-2.5218158e-02
-1.9793790e-01
-3.1962531e-01
-3.6562514e-01
-3.2302844e-01
-1.9575674e-01
-9.0211352e-05
2.4485469e-01
4.9913608e-01
7.0215307e-01
7.7391841e-01
6.5700216e-01
3.9977803e-01
1.1605795e-01
-1.0775348e-01
-2.4163068e-01
-3.0413066e-01
-3.2995319e-01
-3.3642866e-01
-3.1830614e-01
-2.8127170e-01
-2.4083511e-01
-1.9651704e-01
-1.4840519e-01
-1.2041510e-01
-1.2892245e-01
-1.4724156e-01
-1.4868013e-01
-1.3270876e-01
-9.1312830e-02
9.5465521e-03
1.9138610e-01
4.2706666e-01
6.2211689e-01
6.4851545e-01
4.7762604e-01
2.2292728e-01
1.9775352e-02
-9.6385368e-02
-1.6500982e-01
-2.1243998e-01
-2.3771041e-01
-2.3439267e-01
-2.0291129e-01
-1.4685090e-01
-6.5694055e-02
2.6073918e-02
8.4306877e-02
7.8090780e-02
3.2556083e-02
-1.2358300e-02
-4.6958083e-02
-7.1086670e-02
-9.1151862e-02
-1.1787194e-01
-1.4794810e-01
-1.6751317e-01
-1.5978337e-01
-1.1938836e-01
-5.4673462e-02
3.2051005e-02
1.4573517e-01
2.7201300e-01
3.5152866e-01
3.4168645e-01
2.7538019e-01
1.8845500e-01
9.7296583e-02
2.0824767e-02
-4.0412534e-02
-9.1621814e-02
-1.2506725e-01
-1.3279492e-01
-1.2217691e-01
-1.1334869e-01
-1.2189222e-01
-1.4570871e-01
-1.7654939e-01
-2.1203119e-01
-2.5373504e-01
-2.9730542e-01
-3.2305836e-01
-3.0184314e-01
-2.1465975e-01
-6.5447208e-02
1.3466091e-01
3.5456797e-01
5.2157880e-01
5.9118795e-01
5.6533067e-01
4.7646284e-01
3.9056030e-01
3.1082516e-01
1.7889693e-01
-1.5861981e-02
-2.1864491e-01
-3.6978626e-01
-4.4854832e-01
-4.5725571e-01
-3.9941005e-01
-2.7886002e-01
-9.8403461e-02
1.3404853e-01
3.4710750e-01
4.0537839e-01
2.6587954e-01
3.2252665e-02
-1.8677529e-01
-3.5016886e-01
-4.6298610e-01
-5.4116216e-01
-5.7176622e-01
-5.2758042e-01
-3.9897266e-01
-1.8810208e-01
8.7665745e-02
3.6172430e-01
5.3986013e-01
5.9835419e-01
6.5563502e-01
7.9265043e-01
8.9539310e-01
8.4844182e-01
6.2261713e-01
2.6482075e-01
-8.9851897e-02
-3.4930902e-01
-5.0325851e-01
-5.5864342e-01
-5.2952853e-01
-4.5154951e-01
-3.5958800e-01
-2.5770212e-01
-1.4126134e-01
-4.8052166e-02
-2.4314820e-02
-4.4548817e-02
-5.9145655e-02
-5.9560727e-02
-6.3040964e-02
-7.2720310e-02
-5.9846589e-02
3.8451000e-03
1.2385527e-01
2.7361731e-01
3.8125436e-01
3.6090251e-01
2.0872125e-01
2.4410768e-02
-1.0899367e-01
-1.8907711e-01
-2.3914027e-01
-2.6160050e-01
-2.4985589e-01
-2.0304482e-01
-1.2581065e-01
-3.0180196e-02
5.7370058e-02
9.3981880e-02
7.9689820e-02
7.4459214e-02
1.2694012e-01
2.4641872e-01
3.6963521e-01
3.8149083e-01
2.5024843e-01
4.4649920e-02
-1.5882188e-01
-3.1548656e-01
-4.0840957e-01
-4.4097227e-01
-4.2229405e-01
-3.5062696e-01
-2.3539551e-01
-1.2554621e-01
-7.2915415e-02
-6.8397248e-02
-3.3193456e-02
1.2017562e-01
4.0882345e-01
7.2357434e-01
8.9326804e-01
8.4010418e-01
5.7905408e-01
2.0901181e-01
-1.0943289e-01
-3.1585320e-01
-4.4163860e-01
-5.0672650e-01
-5.1086014e-01
-4.6156650e-01
-3.8419294e-01
-2.8588599e-01
-1.5614687e-01
1.3271965e-02
2.2865066e-01
4.3208973e-01
4.9949976e-01
3.9224310e-01
2.0102574e-01
2.8389969e-02
-8.6333198e-02
-1.5663034e-01
-2.1027981e-01
-2.6048151e-01
-2.9094338e-01
-2.7383377e-01
-1.9907794e-01
-7.1064149e-02
8.9736771e-02
2.2939199e-01
2.8361292e-01
2.2704192e-01
8.6574751e-02
-7.5948644e-02
-2.0115145e-01
-2.5760170e-01
-2.2845298e-01
-1.1556996e-01
5.3534457e-02
1.9667175e-01
2.0133237e-01
7.7351187e-02
-4.6942248e-02
-7.8597377e-02
1.7789967e-02
2.3533215e-01
4.5970748e-01
5.1093768e-01
3.2903144e-01
3.4632916e-02
-2.1934389e-01
-3.7800486e-01
-4.5315057e-01
-4.5394584e-01
-3.8145489e-01
-2.4701401e-01
-8.9330522e-02
2.7066997e-02
1.8950674e-02
-1.0477538e-01
-1.8579523e-01
-1.0936252e-01
1.2302314e-01
4.2722663e-01
6.5356818e-01
6.9152401e-01
5.2229943e-01
2.0898467e-01
-1.2367837e-01
-3.5996595e-01
-4.4747401e-01
-3.7723597e-01
-1.7904562e-01
4.5892961e-02
1.9560382e-01
2.4406491e-01
1.8382474e-01
4.7435751e-02
-7.9768255e-02
-1.3819524e-01
-1.0922495e-01
-1.0160945e-02
9.4525253e-02
1.1501803e-01
2.8468891e-02
-9.5780527e-02
-2.0181692e-01
-2.8397869e-01
-3.3156603e-01
-3.2640672e-01
-2.5615538e-01
-1.0943149e-01
1.0049095e-01
3.1234280e-01
4.3159964e-01
3.8739982e-01
2.2207165e-01
7.2383103e-02
-4.3305227e-03
-2.6070965e-02
2.5938203e-02
1.4365472e-01
2.2199447e-01
1.7049107e-01
4.9530543e-02
-3.9347040e-02
-6.6102058e-02
-4.8866491e-02
-5.9616945e-02
-1.4655005e-01
-2.5861300e-01
-3.3926926e-01
-3.7945520e-01
-3.8886554e-01
-3.7557319e-01
-3.2380845e-01
-2.0855785e-01
-3.0928494e-02
1.7168135e-01
3.5327830e-01
4.8191453e-01
5.2163429e-01
4.1437513e-01
1.7647465e-01
-6.0986422e-02
-1.9242039e-01
-1.9452020e-01
-9.7544545e-02
-5.5388601e-03
3.4562823e-02
1.1287577e-01
2.2594662e-01
2.2782079e-01
6.3143167e-02
-1.5121132e-01
-2.7710033e-01
-2.5760890e-01
-1.0785881e-01
6.8583627e-02
1.5352120e-01
1.2072055e-01
1.2150892e-02
-9.8663894e-02
-1.3220261e-01
-4.4608257e-02
1.5730168e-01
3.8269168e-01
4.7478043e-01
3.5458881e-01
1.0378335e-01
-1.3342783e-01
-2.8116880e-01
-3.3510877e-01
-3.0977140e-01
-2.2228859e-01
-1.0047541e-01
1.9958689e-02
1.0983902e-01
1.2380073e-01
5.6714503e-02
-1.4587465e-02
-3.4701181e-02
-1.3655411e-02
9.1039904e-03
4.0964384e-03
-2.4128018e-02
-5.9150167e-02
-9.0423255e-02
-1.1523477e-01
-1.3970700e-01
-1.5912934e-01
-1.5312373e-01
-1.1380735e-01
-4.4210959e-02
6.3587673e-02
2.0668680e-01
3.3897738e-01
3.9490026e-01
3.3453718e-01
1.8945074e-01
4.5256447e-02
-5.6900487e-02
-1.2456269e-01
-1.7360379e-01
-2.2270828e-01
-2.7610255e-01
-3.2285980e-01
-3.4392986e-01
-3.2659771e-01
-2.7472404e-01
-1.7919036e-01
-3.3964365e-03
2.6589882e-01
5.5947748e-01
7.3088050e-01
6.6478392e-01
4.1395226e-01
1.4184809e-01
-6.4176436e-02
-2.0655160e-01
-2.9407976e-01
-3.1975928e-01
-2.7889176e-01
-1.8198108e-01
-5.4369804e-02
5.7215706e-02
1.0748546e-01
9.0571897e-02
4.4701899e-02
2.8757849e-03
-3.3428055e-02
-5.4214331e-02
-4.4489355e-02
-1.2791591e-02
4.4262796e-04
-4.0547256e-02
-1.1284078e-01
-1.7891195e-01
-2.1534574e-01
-2.0963596e-01
-1.7158423e-01
-9.3345607e-02
5.2835151e-02
2.6173079e-01
4.5198640e-01
5.0167248e-01
3.8707500e-01
2.0824084e-01
5.4449057e-02
-6.0099770e-02
-1.4710689e-01
-2.0103277e-01
-2.1806875e-01
-2.1117712e-01
-1.9858068e-01
-1.8737734e-01
-1.6323612e-01
-1.1659646e-01
-6.5628751e-02
-2.8998914e-02
9.1756462e-03
7.7040622e-02
1.8354647e-01
3.0344290e-01
3.6559172e-01
3.1329077e-01
1.8083326e-01
4.5987391e-02
-5.4738787e-02
-1.2584332e-01
-1.7735427e-01
-2.0623274e-01
-2.0969566e-01
-1.9655274e-01
-1.8019444e-01
-1.7061998e-01
-1.7207349e-01
-1.7508161e-01
-1.5077776e-01
-8.8090551e-02
7.0822500e-03
1.4007213e-01
2.8942211e-01
4.0354969e-01
4.3649132e-01
3.7464958e-01
2.5710225e-01
1.3554145e-01
2.4789347e-02
-8.0644600e-02
-1.6610251e-01
-2.1353011e-01
-2.2436313e-01
-2.1091825e-01
-1.9064234e-01
-1.6721892e-01
-1.2494822e-01
-4.6074870e-02
7.7204486e-02
1.8868065e-01
2.0874189e-01
1.5728984e-01
8.9499089e-02
2.4368058e-02
-2.5977999e-02
-6.1830553e-02
-9.5561236e-02
-1.3060061e-01
-1.5140741e-01
-1.5082424e-01
-1.3417935e-01
-9.2644174e-02
-2.9333671e-02
2.5692757e-02
6.6366330e-02
1.1552556e-01
1.7721339e-01
2.4799884e-01
2.7190198e-01
1.9358287e-01
8.1587382e-02
-1.8298579e-03
-6.0643898e-02
-9.8747014e-02
-1.1740544e-01
-1.1659630e-01
-1.0867092e-01
-1.0332258e-01
-8.9565293e-02
-7.4919427e-02
-7.5754610e-02
-7.4479863e-02
-4.8775157e-02
6.2039563e-03
7.8960773e-02
1.3460782e-01
1.3444879e-01
8.3006352e-02
2.9283055e-02
-5.8483644e-03
-3.4377477e-02
-4.6554596e-02
-3.8067909e-02
-2.8424302e-02
-2.5636175e-02
-2.0466744e-02
-7.2379486e-03
1.3546316e-02
4.8379560e-02
8.5105133e-02
9.0686360e-02
6.2005130e-02
1.9190610e-02
-2.1805970e-02
-5.0128549e-02
-7.7165725e-02
-1.2670727e-01
-1.9264068e-01
-2.4254032e-01
-2.5979860e-01
-2.4505300e-01
-1.9532850e-01
-1.3943118e-01
-9.5333319e-02
-6.7269881e-04
1.9795032e-01
4.4716894e-01
6.1798459e-01
6.3967972e-01
5.2368635e-01
3.0756486e-01
6.8850898e-02
-1.1373933e-01
-2.1578556e-01
-2.5013953e-01
-2.4468870e-01
-2.4692566e-01
-2.7303639e-01
-2.7663949e-01
-2.2388071e-01
-1.2036863e-01
2.4574213e-02
1.5724554e-01
1.6797912e-01
4.2976475e-02
-9.8877656e-02
-1.7064278e-01
-1.5720322e-01
-7.7611621e-02
2.9733710e-02
1.5549857e-01
2.7070417e-01
2.7391640e-01
1.2204735e-01
-8.1222229e-02
-2.1522846e-01
-2.2475936e-01
-1.0831097e-01
7.9868495e-02
2.6846169e-01
4.1256468e-01
4.7985782e-01
4.1231321e-01
2.0939829e-01
-2.6000632e-02
-2.1616708e-01
-3.4497380e-01
-4.0487688e-01
-3.9621631e-01
-3.3819209e-01
-2.5346127e-01
-1.4228458e-01
-2.4929847e-02
4.6727137e-02
7.9660982e-02
1.3866245e-01
2.4335694e-01
3.2064396e-01
3.0891425e-01
2.3913065e-01
1.5280580e-01
6.8989859e-02
3.6308729e-03
-4.2121504e-02
-7.6880091e-02
-1.1716133e-01
-1.6763150e-01
-2.0214983e-01
-2.0170074e-01
-1.7492649e-01
-1.3314414e-01
-7.3913760e-02
-3.4005146e-03
5.5951720e-02
8.7451993e-02
8.6606352e-02
6.5469782e-02
4.2668879e-02
2.6611786e-02
6.7503048e-03
-2.3120062e-02
-4.4476213e-02
-4.2640256e-02
-2.1387719e-02
1.6437800e-02
6.6412871e-02
9.3948172e-02
7.7215896e-02
4.5879433e-02
1.9605305e-02
-7.3681376e-03
-2.8877685e-02
-4.3547101e-02
-7.8269790e-02
-1.4791727e-01
-2.2416896e-01
-2.7623730e-01
-2.9713761e-01
-2.9865203e-01
-2.8828599e-01
-2.3415828e-01
-9.1453247e-02
1.4907693e-01
4.2029634e-01
5.9901316e-01
6.0221098e-01
4.6363665e-01
2.8789715e-01
6.6076101e-02
-2.3100877e-01
-4.8195247e-01
-5.8681426e-01
-5.2909890e-01
-3.0986621e-01
-9.9545172e-04
2.6595958e-01
3.9333008e-01
3.4453044e-01
1.5109582e-01
-5.6130021e-02
-1.3116440e-01
-2.8013158e-02
1.9133445e-01
4.0520209e-01
5.2514840e-01
5.2678463e-01
4.2645019e-01
2.6510782e-01
1.0121529e-01
-2.8417463e-02
-1.4502043e-01
-2.4941340e-01
-3.1262376e-01
-3.2935161e-01
-3.0819080e-01
-2.7024259e-01
-2.3525604e-01
-1.9417385e-01
-1.2625569e-01
-4.7389233e-02
2.1249135e-03
2.2801065e-02
3.9999940e-02
5.2532880e-02
3.0085395e-02
-4.3433975e-02
-1.3571565e-01
-2.0498224e-01
-2.2839993e-01
-2.0320311e-01
-1.3358640e-01
1.8026333e-03
2.2277514e-01
4.5433155e-01
5.4170292e-01
4.2684539e-01
2.0418415e-01
-5.0155804e-03
-1.4136850e-01
-2.0147371e-01
-2.0408999e-01
-1.6143894e-01
-7.5898000e-02
2.6241623e-02
8.3408698e-02
6.9566138e-02
2.6863228e-02
-4.0374619e-03
-8.9097349e-03
-7.3996361e-03
-4.1701622e-02
-1.1447645e-01
-1.9804883e-01
-2.6794714e-01
-3.0320731e-01
-2.8777019e-01
-2.1298342e-01
-7.4398709e-02
1.2922943e-01
3.4073153e-01
4.6244913e-01
4.5951886e-01
3.4570850e-01
1.6937426e-01
1.4915509e-02
-7.1444666e-02
-1.0708386e-01
-1.3376569e-01
-1.7146511e-01
-2.1775511e-01
-2.5851727e-01
-2.5193409e-01
-1.6546543e-01
-1.0553400e-02
1.5792549e-01
2.3659576e-01
1.7739177e-01
6.9799745e-02
2.1729883e-02
6.0269089e-02
1.6057938e-01
2.5670893e-01
2.4712242e-01
1.1076913e-01
-5.7720271e-02
-1.7666867e-01
-2.2896553e-01
-2.4639619e-01
-2.6787332e-01
-2.8072974e-01
-2.4760969e-01
-1.4198546e-01
4.7703533e-02
2.9121020e-01
4.8147617e-01
4.9497535e-01
3.4614334e-01
1.6761711e-01
4.9082768e-02
-2.2529349e-02
-9.6812340e-02
-1.7280822e-01
-2.2686592e-01
-2.5285182e-01
-2.4934567e-01
-2.1534141e-01
-1.5080990e-01
-6.0204819e-02
4.8779591e-02
1.3381669e-01
1.4696503e-01
1.0400831e-01
4.4841838e-02
4.5673369e-03
1.1896549e-02
5.7127881e-02
8.8023946e-02
5.6598791e-02
-2.3708058e-02
-1.1001181e-01
-1.8215528e-01
-2.3267939e-01
-2.5696149e-01
-2.6092266e-01
-2.6469919e-01
-2.7441572e-01
-2.5188580e-01
-1.4200822e-01
8.9632902e-02
3.9352683e-01
6.2286162e-01
6.6660160e-01
5.1103127e-01
2.5372927e-01
6.4907970e-02
2.7502168e-02
8.6874493e-02
1.1009186e-01
1.4340913e-03
-1.9194263e-01
-3.4952591e-01
-4.1231457e-01
-3.8049774e-01
-2.5804500e-01
-5.4988161e-02
1.8854971e-01
3.9822752e-01
4.8285015e-01
3.9115055e-01
1.8466700e-01
-2.2898129e-02
-1.7948028e-01
-2.8228222e-01
-3.3454524e-01
-3.4312320e-01
-3.1421071e-01
-2.6045505e-01
-1.9033942e-01
-8.1948541e-02
7.0082481e-02
2.2898303e-01
3.4599846e-01
3.5190547e-01
2.3846301e-01
1.0467933e-01
3.2229249e-02
3.1777893e-02
4.0131453e-02
-2.3258562e-02
-1.4618509e-01
-2.6574878e-01
-3.4590102e-01
-3.7489194e-01
-3.4762347e-01
-2.5556254e-01
-9.0960570e-02
1.2094054e-01
2.8821172e-01
3.0331274e-01
1.8909987e-01
6.9281704e-02
-2.5652946e-02
-1.4370840e-01
-2.7396698e-01
-3.2433496e-01
-2.0785149e-01
4.1556992e-02
2.8446765e-01
4.4476810e-01
5.4063594e-01
5.7997632e-01
5.4696838e-01
4.1943047e-01
1.9361868e-01
-7.1032424e-02
-2.7900310e-01
-3.6034412e-01
-2.9578953e-01
-1.5541611e-01
-6.2465476e-02
-7.6564801e-02
-1.6490049e-01
-2.5162258e-01
-2.8136781e-01
-2.3362174e-01
-9.1651328e-02
1.1653099e-01
2.7438198e-01
2.6934575e-01
1.3465004e-01
1.5487387e-02
1.8364477e-03
7.6787773e-02
1.4118952e-01
7.9872455e-02
-1.1221484e-01
-3.2424579e-01
-4.5355765e-01
-4.5441805e-01
-3.1890586e-01
-6.1527052e-02
2.7250820e-01
5.7046237e-01
7.0581512e-01
6.4235039e-01
4.2471336e-01
1.1764086e-01
-1.8857968e-01
-4.1649863e-01
-5.4646354e-01
-5.7387595e-01
-5.0535056e-01
-3.7913993e-01
-2.4314045e-01
-1.1390248e-01
2.2757656e-02
1.7464224e-01
3.4440069e-01
4.8463206e-01
5.3551504e-01
5.0899952e-01
4.2645136e-01
2.9011591e-01
1.0188187e-01
-1.1299836e-01
-2.9537016e-01
-3.9785310e-01
-4.0575489e-01
-3.1246255e-01
-1.6097003e-01
-3.6590340e-02
2.0543204e-02
-1.7539035e-04
-6.7347674e-02
-1.0332051e-01
-4.8071761e-02
1.0852711e-01
2.7159127e-01
2.9596108e-01
2.0509989e-01
1.5600776e-01
2.0013139e-01
2.4835896e-01
1.7691137e-01
-3.0668580e-02
-2.7504594e-01
-4.7154571e-01
-5.9142928e-01
-6.2987459e-01
-5.8379394e-01
-4.4566611e-01
-2.0279240e-01
1.4432185e-01
5.2160559e-01
7.9432893e-01
8.7340105e-01
7.4655908e-01
4.7911699e-01
1.7930583e-01
-7.8215860e-02
-2.4872640e-01
-3.0842137e-01
-2.7606316e-01
-1.9606152e-01
-1.3369714e-01
-1.5300624e-01
-2.3516955e-01
-3.0863136e-01
-3.2872452e-01
-2.8375875e-01
-1.7823561e-01
-7.1212431e-03
2.2020548e-01
4.2011754e-01
4.8246427e-01
3.9293218e-01
2.3590434e-01
1.0335858e-01
3.1356239e-02
-1.5406026e-02
-8.6469878e-02
-1.7272432e-01
-2.3657134e-01
-2.6309164e-01
-2.4835442e-01
-1.9307572e-01
-1.0173297e-01
2.6261862e-02
1.6556237e-01
2.4705764e-01
2.3318708e-01
1.5795354e-01
7.2802176e-02
7.6571076e-03
-3.5226424e-02
-6.5216942e-02
-8.4817990e-02
-8.8733732e-02
-7.4714678e-02
-5.3624403e-02
-3.8839494e-02
-3.2575567e-02
-3.2426308e-02
-4.1150056e-02
-6.7454644e-02
-1.0690915e-01
-1.2960137e-01
-1.0542768e-01
-2.1926932e-02
1.0103599e-01
2.1690195e-01
2.8259669e-01
2.6378114e-01
1.7182219e-01
6.5251861e-02
-1.7651617e-02
-6.6794841e-02
-8.2325099e-02
-6.5303773e-02
-3.2794033e-02
-2.1381785e-02
-3.6576157e-02
-5.6045596e-02
-6.6945235e-02
-7.1132244e-02
-7.4199642e-02
-7.1922147e-02
-5.6539708e-02
-3.0129426e-02
-9.7363232e-03
-1.2524261e-02
-3.4234385e-02
-5.5191962e-02
-5.6003103e-02
-2.9351882e-02
1.3146177e-02
4.7420503e-02
5.9438042e-02
4.4311006e-02
1.0253782e-02
-6.1779826e-03
2.6949148e-02
1.1665592e-01
2.1598710e-01
2.4407431e-01
1.9087786e-01
1.0427967e-01
1.4590717e-02
-6.1867558e-02
-1.2361584e-01
-1.7952210e-01
-2.2008486e-01
-2.3138015e-01
-2.0945265e-01
-1.6240003e-01
-1.1377803e-01
-8.1011252e-02
-6.6207374e-02
-7.2570100e-02
-8.6968698e-02
-6.5350780e-02
3.3900265e-02
2.1759526e-01
4.2602102e-01
5.3861813e-01
4.6656227e-01
2.6123382e-01
6.7442341e-02
-3.9997606e-02
-8.9580123e-02
-1.2364002e-01
-1.5249283e-01
-1.7460377e-01
-1.7517202e-01
-1.3844165e-01
-7.6446685e-02
-2.3344760e-02
-1.0228473e-03
8.7198425e-03
1.5276954e-02
5.7692998e-03
-1.3689740e-02
-3.6530805e-02
-6.8467423e-02
-1.0489109e-01
-1.4209286e-01
-1.8377368e-01
-2.2669750e-01
-2.5268832e-01
-2.3744357e-01
-1.7706588e-01
-7.4145628e-02
6.7565846e-02
2.2019233e-01
3.5356645e-01
4.3314260e-01
4.1861450e-01
3.4130012e-01
2.9167114e-01
2.8899681e-01
2.7151773e-01
1.7592355e-01
-1.0920907e-02
-2.1544709e-01
-3.5752543e-01
-4.1552238e-01
-3.9537545e-01
-3.1945022e-01
-2.0139010e-01
-5.0821955e-02
1.0945378e-01
2.3807638e-01
2.4911756e-01
1.2229984e-01
-2.8179267e-02
-1.0139663e-01
-9.4746179e-02
-5.2477402e-02
2.5096275e-02
1.2677833e-01
1.8403524e-01
1.8596577e-01
1.3541275e-01
1.6281347e-02
-1.3502853e-01
-2.6906208e-01
-3.5026819e-01
-3.5139040e-01
-2.5867375e-01
-8.4399912e-02
1.2915751e-01
3.2110157e-01
4.0340277e-01
3.3426775e-01
1.9205682e-01
8.2522444e-02
4.3028733e-02
1.8700827e-02
-6.8412797e-02
-1.8942542e-01
-2.6494295e-01
-2.7517266e-01
-2.3655793e-01
-1.6213757e-01
-6.9377056e-02
9.3409747e-03
5.1411095e-02
8.8919680e-02
1.9444690e-01
3.3025155e-01
3.6452855e-01
2.6884913e-01
1.1092523e-01
-3.5432199e-02
-1.2853468e-01
-1.6528373e-01
-1.5972353e-01
-1.4152999e-01
-1.4349829e-01
-1.6284315e-01
-1.5639137e-01
-9.3477104e-02
1.0985296e-02
1.1166845e-01
1.6979845e-01
1.7866911e-01
1.7271413e-01
1.9841715e-01
2.0449919e-01
1.1486107e-01
-7.4392438e-03
-8.5308616e-02
-1.2517246e-01
-1.5027070e-01
-1.6255253e-01
-1.5527480e-01
-1.5033022e-01
-1.5717964e-01
-1.4802738e-01
-1.1285303e-01
-5.7427131e-02
2.1360126e-02
1.1577983e-01
1.9963013e-01
2.3236890e-01
1.9777901e-01
1.3405496e-01
6.4280433e-02
-4.4760976e-03
-5.8772248e-02
-1.1096130e-01
-1.5818663e-01
-1.8038393e-01
-1.6987258e-01
-1.2526317e-01
-5.4935016e-02
2.2360384e-02
8.0271925e-02
9.2720148e-02
7.2468706e-02
7.1822799e-02
1.1341884e-01
1.6581256e-01
1.7681908e-01
1.2284033e-01
2.4435600e-02
-7.9672132e-02
-1.4753628e-01
-1.5634899e-01
-1.1869643e-01
-6.2117110e-02
-2.0845190e-03
2.6195031e-02
-1.3125530e-02
-8.1336859e-02
-1.2099608e-01
-1.3152273e-01
-1.4395185e-01
-1.5077256e-01
-1.0922491e-01
2.8819495e-03
1.8092387e-01
3.6303423e-01
4.3078359e-01
3.4226092e-01
1.8859310e-01
6.4802071e-02
-4.7991370e-03
-5.8154155e-02
-1.3143302e-01
-1.8523572e-01
-1.7453656e-01
-1.1452778e-01
-5.9697337e-02
-5.6547170e-02
-9.3108166e-02
-1.1212347e-01
-8.7116836e-02
-3.5107811e-02
2.9947046e-02
9.9879752e-02
1.5860628e-01
1.6814062e-01
1.0472562e-01
3.1356387e-03
-8.4197199e-02
-1.3447471e-01
-1.5124537e-01
-1.3684353e-01
-9.5281908e-02
-3.6507073e-02
4.1419278e-02
1.1748216e-01
1.4474172e-01
1.3001882e-01
1.2264548e-01
1.3418798e-01
1.3734307e-01
9.4648941e-02
1.8651488e-03
-8.9856559e-02
-1.3526665e-01
-1.2330414e-01
-5.3470672e-02
2.7834573e-02
4.6298172e-02
1.2322541e-02
-1.4428065e-02
-1.7359120e-02
-3.0343067e-02
-9.8142981e-02
-2.0861753e-01
-3.1054788e-01
-3.6463243e-01
-3.5437823e-01
-2.9331518e-01
-2.0539202e-01
-1.0877992e-01
9.6748681e-04
1.1102837e-01
1.6234624e-01
1.6474603e-01
1.8147981e-01
2.3902526e-01
3.3287943e-01
4.1796429e-01
4.3687561e-01
3.7812243e-01
3.1935180e-01
3.2178612e-01
3.0971220e-01
2.0640025e-01
2.2110344e-02
-1.9401355e-01
-3.7960532e-01
-5.1070107e-01
-5.7995997e-01
-5.5553259e-01
-4.1466606e-01
-1.8463766e-01
6.3156867e-02
2.7363287e-01
3.9114058e-01
3.6198985e-01
2.0149883e-01
-1.1828180e-02
-1.7702721e-01
-2.2312926e-01
-1.1954114e-01
7.6509188e-02
2.1943543e-01
2.3396548e-01
1.4047196e-01
2.0875639e-02
-8.4022387e-03
8.5225626e-02
2.0352425e-01
1.9994446e-01
5.8609335e-02
-9.9752703e-02
-1.9251601e-01
-2.0232668e-01
-1.3165501e-01
-8.2962692e-03
8.8531139e-02
8.4808102e-02
9.3233332e-03
-5.7528247e-02
-7.8926810e-02
-7.7083536e-02
-8.0555593e-02
-8.2772201e-02
-6.9782921e-02
-4.4903220e-02
-3.0950020e-02
-4.5315768e-02
-7.4343137e-02
-8.6211431e-02
-6.0077681e-02
-1.0217131e-02
3.9137398e-02
8.4797642e-02
1.2371499e-01
1.3677084e-01
1.0733353e-01
4.2792969e-02
-3.3222091e-02
-9.7119243e-02
-1.2895280e-01
-1.2144551e-01
-8.0136943e-02
-6.2481691e-03
1.0047046e-01
1.9318675e-01
1.9443053e-01
1.0588763e-01
-5.3543201e-03
-9.7224552e-02
-1.5189681e-01
-1.6087891e-01
-1.2819559e-01
-6.0476037e-02
1.4807559e-02
3.6368098e-02
-1.8034420e-02
-9.4489081e-02
-1.4170788e-01
-1.4936152e-01
-1.1758967e-01
-5.2095555e-02
3.3953791e-02
1.2433980e-01
2.0253475e-01
2.5851016e-01
2.7714032e-01
2.3699965e-01
1.4326933e-01
4.1317368e-02
-1.3081365e-02
-2.7980551e-02
-5.9639547e-02
-1.1397311e-01
-1.7142211e-01
-2.2029661e-01
-2.3505821e-01
-1.9299350e-01
-1.0339004e-01
1.2395632e-02
1.5735428e-01
2.9352757e-01
3.3398791e-01
2.5751573e-01
1.2507676e-01
1.0639624e-02
-4.8331855e-02
-6.1978613e-02
-7.3768332e-02
-1.0776191e-01
-1.3264027e-01
-1.3443679e-01
-1.3780375e-01
-1.4092168e-01
-1.2295661e-01
-7.3637016e-02
3.1951190e-03
7.4204941e-02
1.1314163e-01
1.4635586e-01
1.6305008e-01
1.2285862e-01
6.0453895e-02
1.4145930e-02
-2.7282953e-02
-7.2396553e-02
-1.0598087e-01
-1.1315081e-01
-9.5380851e-02
-6.4364691e-02
-1.6144459e-02
4.0605785e-02
7.2690600e-02
8.6588625e-02
1.0564242e-01
1.2494179e-01
1.2755720e-01
9.3466389e-02
2.2220738e-02
-4.4323438e-02
-7.3125324e-02
-7.5207473e-02
-8.0386344e-02
-9.7746840e-02
-1.1602244e-01
-1.2968892e-01
-1.2989427e-01
-1.0214635e-01
-3.0685047e-02
7.6300962e-02
1.5434564e-01
1.6198650e-01
1.3902555e-01
1.1925351e-01
8.8385913e-02
3.6394472e-02
-1.8649785e-02
-6.2144820e-02
-9.4221562e-02
-1.1896801e-01
-1.3441804e-01
-1.3548642e-01
-1.2266717e-01
-9.0171489e-02
-3.6699186e-02
3.4045355e-02
1.1607996e-01
1.7952053e-01
1.7355376e-01
8.7408986e-02
-2.0254786e-02
-1.0536646e-01
-1.6072228e-01
-1.6734420e-01
-1.0787168e-01
3.9075038e-03
1.1663769e-01
1.5862811e-01
1.0797922e-01
3.5536315e-02
1.9448593e-02
5.9447742e-02
1.1661010e-01
1.7341958e-01
1.9910351e-01
1.4794992e-01
3.2024591e-02
-9.2031287e-02
-1.8991161e-01
-2.5237282e-01
-2.7535860e-01
-2.6843791e-01
-2.4577591e-01
-2.0165333e-01
-1.3273510e-01
-5.2033297e-02
4.3660819e-02
1.8158681e-01
3.5692701e-01
4.7322950e-01
4.4255207e-01
2.9692839e-01
1.2250562e-01
-1.8444257e-02
-1.0803658e-01
-1.5599157e-01
-1.7517809e-01
-1.6913949e-01
-1.3596609e-01
-8.5464257e-02
-3.8697341e-02
-1.7633854e-02
-2.4564430e-02
-4.1307199e-02
-5.0505596e-02
-4.5016260e-02
-3.4134064e-02
-4.1449850e-02
-8.1439421e-02
-1.3695831e-01
-1.6849645e-01
-1.6045283e-01
-1.1942496e-01
-3.4904271e-02
9.5594231e-02
2.1682018e-01
2.5248568e-01
1.9358447e-01
1.1117126e-01
9.5149207e-02
1.4031373e-01
1.6741165e-01
1.6238137e-01
1.4266709e-01
9.1957481e-02
4.8847397e-03
-8.8485451e-02
-1.5892513e-01
-2.0172539e-01
-2.2617004e-01
-2.3897042e-01
-2.3925064e-01
-2.2685940e-01
-1.9366083e-01
-1.2179418e-01
-1.0352360e-02
1.2897270e-01
2.9061273e-01
4.4267025e-01
5.0515924e-01
4.1464784e-01
2.1696959e-01
1.9368781e-02
-1.2412988e-01
-2.0962312e-01
-2.4642862e-01
-2.5299806e-01
-2.5075027e-01
-2.4279450e-01
-2.1376039e-01
-1.5185837e-01
-6.0538554e-02
5.0671881e-02
1.7878374e-01
2.8721370e-01
2.9476888e-01
1.8530243e-01
3.7556247e-02
-8.9751284e-02
-1.7989182e-01
-2.1933897e-01
-2.1059307e-01
-1.6225261e-01
-6.3500769e-02
8.5345440e-02
2.3884574e-01
3.1405762e-01
2.6408625e-01
1.4930057e-01
6.0466048e-02
2.3857837e-02
1.2111661e-03
-3.6209074e-02
-6.7991648e-02
-8.7778878e-02
-1.1433261e-01
-1.4829717e-01
-1.7498011e-01
-1.8557477e-01
-1.7730839e-01
-1.5306956e-01
-1.2997529e-01
-1.1765000e-01
-9.0176445e-02
-9.9941026e-03
1.3827412e-01
3.2264094e-01
4.4757871e-01
4.2069078e-01
2.7229181e-01
1.2370528e-01
1.9606807e-02
-6.6563947e-02
-1.2773798e-01
-1.4659044e-01
-1.3000003e-01
-1.0139685e-01
-8.5769923e-02
-8.1132903e-02
-6.5273234e-02
-3.1368755e-02
-4.5763268e-04
1.1076413e-02
1.4342248e-02
1.7400132e-02
1.5692885e-02
5.9363476e-03
-1.2065250e-02
-3.5884235e-02
-6.2118517e-02
-7.9060846e-02
-8.4274636e-02
-8.7543542e-02
-8.1176130e-02
-5.6003620e-02
-1.9570117e-02
2.6966252e-02
9.5053920e-02
1.7682936e-01
2.4054657e-01
2.3876742e-01
1.5471409e-01
4.7242390e-02
-3.2534462e-02
-8.1352899e-02
-1.0153048e-01
-9.9628152e-02
-8.6363886e-02
-6.3436834e-02
-3.1561464e-02
1.3826283e-03
1.8601315e-02
1.1551383e-02
-4.1221444e-03
-1.9619867e-02
-3.3851981e-02
-4.0483487e-02
-4.0710108e-02
-3.5091135e-02
-1.6511995e-02
1.1971059e-02
2.9372888e-02
2.4337102e-02
9.9108876e-03
1.3520619e-03
-2.2141797e-03
-9.3117249e-03
-1.5002997e-02
-2.2918575e-03
3.2660052e-02
6.4622550e-02
6.1942463e-02
2.5184191e-02
-2.3001472e-02
-6.7569867e-02
-9.7770711e-02
-1.0681327e-01
-9.4581867e-02
-6.7225376e-02
-2.7750777e-02
3.9626758e-02
1.1531330e-01
1.4105119e-01
1.0925317e-01
5.3980868e-02
9.4671686e-03
6.9766613e-03
4.9751500e-02
9.5585766e-02
8.8399906e-02
3.2426076e-02
-2.5036626e-02
-6.8977698e-02
-9.9670790e-02
-1.1403067e-01
-1.1341571e-01
-9.9149979e-02
-7.7666243e-02
-5.7118560e-02
-3.9541940e-02
-2.0480408e-02
6.8870398e-03
4.7946014e-02
1.0290482e-01
1.4671598e-01
1.2799036e-01
3.5055168e-02
-7.6683072e-02
-1.5190455e-01
-1.6900811e-01
-1.5525324e-01
-1.7004742e-01
-2.1744946e-01
-2.4406465e-01
-1.9494993e-01
-3.0546063e-02
2.5145651e-01
5.6668158e-01
7.6283762e-01
7.3434861e-01
4.9792688e-01
1.7906226e-01
-9.2828224e-02
-2.7266585e-01
-3.7016874e-01
-3.9532225e-01
-3.5890821e-01
-2.9478149e-01
-2.4848896e-01
-2.3513315e-01
-2.2794335e-01
-2.0063558e-01
-1.2980860e-01
1.5285733e-02
2.3357093e-01
4.4982100e-01
5.2354630e-01
3.7290806e-01
8.6873884e-02
-1.7646856e-01
-3.4155608e-01
-4.0298011e-01
-3.6111026e-01
-2.0742128e-01
5.1017387e-02
3.3605011e-01
5.0950351e-01
4.7303640e-01
2.5230313e-01
-1.3700749e-02
-2.0753937e-01
-2.8861840e-01
-2.3927003e-01
-6.9691298e-02
1.4796484e-01
2.9082303e-01
2.8866896e-01
1.8148609e-01
5.3644973e-02
-3.4544900e-02
-6.9380298e-02
-8.5241100e-02
-1.2106318e-01
-1.6330184e-01
-1.8760141e-01
-1.9030508e-01
-1.6305353e-01
-9.7012068e-02
8.0160935e-03
1.1787711e-01
1.6218654e-01
1.2846932e-01
8.1530268e-02
5.8799245e-02
3.8984080e-02
-1.3396194e-02
-9.5715403e-02
-1.6703032e-01
-1.9552498e-01
-1.7619537e-01
-1.1855879e-01
-4.1213040e-02
3.5572389e-02
1.0049490e-01
1.2572081e-01
9.2578068e-02
3.2126791e-02
-1.9190090e-02
-3.9686478e-02
-9.2108085e-03
8.7247524e-02
2.0480055e-01
2.4557760e-01
1.7575003e-01
3.5888454e-02
-1.1401917e-01
-2.2721429e-01
-2.7944507e-01
-2.5783899e-01
-1.7349830e-01
-5.2032650e-02
7.9843331e-02
2.0349333e-01
2.9690484e-01
3.0811132e-01
2.1416150e-01
5.9788022e-02
-8.6349236e-02
-1.7692123e-01
-2.0276843e-01
-1.8492812e-01
-1.5746946e-01
-1.2354841e-01
-5.9445190e-02
3.4935799e-02
1.1598585e-01
1.3957431e-01
1.1314219e-01
5.2598180e-02
-3.1985136e-02
-9.2151792e-02
-1.0054386e-01
-7.8379775e-02
-2.5868499e-02
4.8521716e-02
1.0266548e-01
1.1217867e-01
8.4661382e-02
4.7396427e-02
2.0871466e-02
1.0063909e-02
1.8283336e-02
4.5852426e-02
9.0532497e-02
1.1943933e-01
8.6989017e-02
1.1084580e-02
-5.8143235e-02
-9.5090975e-02
-9.5576935e-02
-8.2718286e-02
-9.3356892e-02
-1.3055790e-01
-1.7221707e-01
-2.1212686e-01
-2.5235304e-01
-2.8846820e-01
-3.1297386e-01
-3.1783519e-01
-2.8408054e-01
-1.6995502e-01
1.7394315e-02
1.9608846e-01
3.0872572e-01
3.3969990e-01
3.1223434e-01
2.9685907e-01
3.2771823e-01
3.6615371e-01
3.6524993e-01
3.2403150e-01
2.6548995e-01
1.8512491e-01
7.0527621e-02
-7.9186255e-02
-2.4584297e-01
-3.6301220e-01
-3.6523726e-01
-2.4991991e-01
-7.6791209e-02
6.1746716e-02
8.2967069e-02
-3.2141680e-02
-2.0622908e-01
-3.2889864e-01
-3.3608721e-01
-2.2987726e-01
-1.0102311e-01
-6.0628805e-02
-8.6086786e-02
-4.8839319e-02
7.5877400e-02
1.8610185e-01
2.3330732e-01
2.3001318e-01
2.1436516e-01
2.5733046e-01
3.5557510e-01
4.3497256e-01
4.4526901e-01
3.5614992e-01
1.6871138e-01
-6.3482932e-02
-2.7349232e-01
-4.1476525e-01
-4.6823815e-01
-4.2042855e-01
-2.8541576e-01
-1.1418640e-01
5.4156286e-02
1.8827919e-01
2.4823472e-01
2.0130053e-01
6.4828131e-02
-8.8013442e-02
-1.7298800e-01
-1.3378931e-01
2.8851420e-02
2.2657267e-01
3.1253983e-01
2.2679946e-01
5.8205016e-02
-7.4367992e-02
-1.2770247e-01
-1.1253609e-01
-4.8861832e-02
1.6111974e-02
2.3877871e-02
-2.0547408e-02
-5.6174909e-02
-4.6458372e-02
-1.5663937e-02
-7.2200288e-03
-2.5288009e-02
-5.2119378e-02
-8.4321424e-02
-1.2506805e-01
-1.6923145e-01
-2.0692867e-01
-2.2688404e-01
-2.1141433e-01
-1.5750601e-01
-7.7484934e-02
3.8363704e-02
1.9887442e-01
3.3771629e-01
3.5648252e-01
2.6324857e-01
1.4657563e-01
6.4216571e-02
3.7110813e-02
3.4899109e-02
5.1000939e-03
-5.1297468e-02
-1.0780344e-01
-1.4255100e-01
-1.4377513e-01
-1.1821852e-01
-7.7036082e-02
-1.9990489e-02
5.6733625e-02
1.2414491e-01
1.4114169e-01
1.0632351e-01
4.4017999e-02
-2.2649891e-02
-7.4393303e-02
-1.0351836e-01
-1.1350548e-01
-1.0282893e-01
-6.4718148e-02
-2.2964604e-02
-1.2283654e-02
-2.3705010e-02
-3.7133070e-02
-3.7235625e-02
-5.8880099e-03
4.7694927e-02
1.0134582e-01
1.4047114e-01
1.5003308e-01
1.1864355e-01
4.8319121e-02
-4.0945156e-02
-1.2388201e-01
-1.7712994e-01
-1.8910694e-01
-1.7573239e-01
-1.5419851e-01
-1.1389483e-01
-3.0456801e-02
9.4051110e-02
2.1831535e-01
2.8794353e-01
2.5565904e-01
1.3790889e-01
2.0225978e-02
-4.1780735e-02
-3.7565915e-02
8.4950779e-03
3.1760701e-02
1.7452666e-03
-5.0260544e-02
-8.4827415e-02
-7.9973536e-02
-2.7251032e-02
4.6510147e-02
7.7218953e-02
4.6816275e-02
6.6084583e-03
-1.5598939e-02
-3.1937948e-02
-4.3689709e-02
-4.5359190e-02
-3.3690678e-02
-3.5546306e-03
2.3515786e-02
1.6379984e-02
-1.3683585e-02
-3.9324404e-02
-5.2230833e-02
-5.8741964e-02
-5.8828937e-02
-3.7885668e-02
-1.1183322e-03
5.9555418e-03
-3.9926596e-02
-1.0090990e-01
-1.3762751e-01
-1.2894073e-01
-6.0375865e-02
5.7771844e-02
1.9083735e-01
2.9248922e-01
2.9726885e-01
1.8147806e-01
2.0237895e-02
-1.0170607e-01
-1.5190609e-01
-1.2276718e-01
-1.6747168e-02
9.9355253e-02
1.2198142e-01
5.8565877e-02
-9.4297751e-03
-4.8244199e-02
-6.7780679e-02
-7.8039620e-02
-7.2493719e-02
-3.6070283e-02
1.6392568e-02
3.9395666e-02
2.2739759e-02
-1.0051457e-02
-4.0303942e-02
-5.3474471e-02
-3.7543138e-02
1.5216481e-02
9.8960798e-02
1.6029220e-01
1.4629388e-01
8.2580021e-02
1.4466146e-02
-4.4122473e-02
-9.1289127e-02
-1.2276116e-01
-1.2880715e-01
-1.0724917e-01
-6.6274830e-02
-2.4410640e-02
2.9947859e-03
1.5626875e-02
1.9269857e-02
2.2358337e-02
2.3324052e-02
1.4186297e-02
3.6869051e-03
-2.9539437e-03
-1.7397020e-02
-3.0769376e-02
-1.8656702e-02
8.4869073e-03
1.4848661e-02
-7.3457165e-03
-3.9351328e-02
-6.1999582e-02
-5.4973299e-02
-7.2513054e-03
5.6486755e-02
7.9858202e-02
4.1895334e-02
-1.9928587e-02
-6.2255459e-02
-5.2623797e-02
1.6836291e-02
1.1989510e-01
1.9742834e-01
1.8261452e-01
8.9943529e-02
-2.4451096e-03
-5.7208641e-02
-8.4424930e-02
-9.6002331e-02
-9.0218263e-02
-6.4831716e-02
-2.3817855e-02
2.4975129e-02
6.5779795e-02
7.5928539e-02
5.6491899e-02
3.5240913e-02
1.7292686e-02
-5.8081851e-03
-2.3929917e-02
-3.5590958e-02
-5.3463843e-02
-7.8525603e-02
-9.7235866e-02
-1.0306634e-01
-1.0032741e-01
-9.0410820e-02
-7.8639135e-02
-6.4126915e-02
-3.6459472e-02
6.0587096e-03
4.4631785e-02
4.9659815e-02
1.7332923e-02
-1.1515710e-02
2.0591705e-02
1.3911520e-01
2.7892892e-01
3.2998190e-01
2.6859087e-01
1.4411413e-01
6.6152455e-03
-1.1485102e-01
-2.0428050e-01
-2.4650132e-01
-2.5296949e-01
-2.5544262e-01
-2.6380536e-01
-2.6095423e-01
-2.1737966e-01
-1.0649584e-01
7.6558255e-02
2.9536835e-01
4.6188204e-01
5.0722910e-01
4.6057374e-01
3.5081438e-01
1.7792575e-01
1.0834354e-02
-9.6008297e-02
-1.5434395e-01
-1.8056034e-01
-1.8647134e-01
-1.8523155e-01
-1.8286553e-01
-1.7634124e-01
-1.5988739e-01
-1.3325955e-01
-1.0332246e-01
-6.3986311e-02
-5.6795428e-03
6.8309796e-02
1.3904093e-01
1.6845452e-01
1.3390845e-01
6.1376187e-02
1.2307594e-03
-2.6825452e-02
-3.6205812e-02
-3.5527705e-02
-2.8670788e-02
-3.0556608e-02
-5.3407808e-02
-7.8242949e-02
-7.7536101e-02
-4.4496742e-02
1.4738379e-02
7.0822143e-02
9.1841309e-02
7.6396887e-02
3.5796565e-02
-1.3462467e-02
-5.7049235e-02
-9.4161656e-02
-1.2712367e-01
-1.5323363e-01
-1.6176285e-01
-1.3811370e-01
-6.4785292e-02
4.8849098e-02
1.2468415e-01
1.1599273e-01
1.1175859e-01
2.1664973e-01
3.7883014e-01
4.3222916e-01
3.0593395e-01
9.6470842e-02
-6.3915810e-02
-1.3405438e-01
-1.5891087e-01
-1.9458010e-01
-2.4680345e-01
-2.7102120e-01
-2.2715202e-01
-1.2379696e-01
-3.4862380e-02
-2.4391543e-03
3.9758151e-02
1.4836954e-01
2.8074102e-01
3.2697761e-01
2.3904090e-01
9.2117744e-02
-3.3105300e-02
-1.0351350e-01
-1.1622776e-01
-1.0231538e-01
-8.7308217e-02
-6.9397955e-02
-5.4454810e-02
-4.9898450e-02
-3.7877989e-02
-1.0697294e-02
3.3293622e-03
-1.0217310e-02
-2.3347711e-02
-1.7233510e-02
-2.7590473e-03
5.8087510e-03
-1.0654930e-02
-5.8902238e-02
-1.1588043e-01
-1.5561165e-01
-1.6818544e-01
-1.5643396e-01
-1.2357359e-01
-8.1264158e-02
-4.8330432e-02
-4.3526864e-03
1.0076649e-01
2.7605234e-01
4.3311834e-01
4.4906746e-01
3.1086146e-01
1.1983864e-01
-2.1485797e-02
-1.0465222e-01
-1.7458916e-01
-2.2904742e-01
-2.4289228e-01
-2.0731829e-01
-1.3142512e-01
-4.8964676e-02
1.7888455e-03
2.9659489e-02
9.5920957e-02
1.7593110e-01
1.7140012e-01
1.0008007e-01
4.4915521e-02
3.6722206e-02
7.5509002e-02
1.1330605e-01
6.9954562e-02
-4.8325034e-02
-1.6305182e-01
-2.3981651e-01
-2.8207885e-01
-2.8066669e-01
-2.2092419e-01
-1.0877643e-01
3.5301769e-03
4.5755511e-02
9.9902211e-03
-7.5205372e-02
-1.7576096e-01
-2.1487580e-01
-1.3258739e-01
6.3028837e-02
2.9594374e-01
4.5833217e-01
5.1132342e-01
5.0112800e-01
4.7250575e-01
4.1161921e-01
2.6743046e-01
5.6608771e-02
-1.2309963e-01
-2.2877659e-01
-2.7479046e-01
-2.7224831e-01
-2.2711835e-01
-1.4648672e-01
-5.7579428e-02
2.9222487e-04
3.1193424e-02
4.3089332e-02
-4.9598154e-04
-8.5191139e-02
-1.6183610e-01
-2.0519347e-01
-2.0656007e-01
-1.6696622e-01
-8.2678936e-02
4.4617883e-02
1.7175409e-01
2.2754142e-01
1.9450904e-01
1.0332902e-01
-1.2965812e-02
-1.1467723e-01
-1.6591424e-01
-1.5069163e-01
-7.5581565e-02
3.1490319e-02
1.3226850e-01
1.8086087e-01
1.5887045e-01
9.4449349e-02
7.8100726e-03
-8.1985267e-02
-1.4457942e-01
-1.6646427e-01
-1.4158396e-01
-9.9022580e-02
-1.0137822e-01
-1.4591423e-01
-1.6290116e-01
-1.0559648e-01
1.5234784e-02
1.4175582e-01
2.1545060e-01
2.3085632e-01
2.3583361e-01
2.4434730e-01
2.0091840e-01
1.0282954e-01
2.8043170e-02
2.0705347e-02
4.2280575e-02
2.3865280e-02
-3.3779085e-02
-7.4462212e-02
-8.6046356e-02
-9.2713161e-02
-8.5067616e-02
-6.0379894e-02
-4.6627107e-02
-3.4720957e-02
-8.3646846e-03
1.7173501e-02
1.7251485e-02
-1.3300828e-02
-5.5425314e-02
-8.6065118e-02
-8.4353786e-02
-5.7297333e-02
-3.9888908e-02
-4.5764185e-02
-5.9742934e-02
-7.2175890e-02
-7.4606975e-02
-4.6212105e-02
2.7589275e-02
1.3674272e-01
2.1828085e-01
2.0112081e-01
1.0373997e-01
1.3613007e-03
-6.0391107e-02
-7.6519353e-02
-7.1130533e-02
-7.5456705e-02
-9.2784429e-02
-1.0008433e-01
-7.7632033e-02
-3.5881980e-02
5.9609804e-03
6.0257257e-02
1.4748779e-01
2.3921405e-01
2.6117710e-01
1.7815731e-01
3.9138268e-02
-7.9354104e-02
-1.3468059e-01
-1.3659550e-01
-1.1656611e-01
-7.5074952e-02
-2.1306562e-02
4.5085753e-03
-1.1591157e-03
-1.1596178e-02
-9.5044465e-03
7.9538945e-03
3.3810390e-02
5.4882164e-02
5.9480136e-02
5.5032133e-02
3.8976730e-02
-1.7664946e-03
-5.7505138e-02
-1.1034471e-01
-1.4444807e-01
-1.5521787e-01
-1.4686560e-01
-1.3489335e-01
-1.3829376e-01
-1.4122270e-01
-1.1480210e-01
-4.9257944e-02
5.8151776e-02
2.1337098e-01
3.8500253e-01
4.8040262e-01
4.3344062e-01
2.8296493e-01
1.1599300e-01
-1.9995413e-02
-1.1480717e-01
-1.7161230e-01
-2.0354849e-01
-2.2146669e-01
-2.2700428e-01
-2.1360451e-01
-1.7705882e-01
-1.3064187e-01
-9.0225237e-02
-4.5859688e-02
1.8166109e-02
9.7261553e-02
1.4335275e-01
9.5925976e-02
-1.4120744e-02
-9.8650099e-02
-1.1141262e-01
-5.9400638e-02
2.9027164e-02
1.3928631e-01
2.3682589e-01
2.7003856e-01
2.3257027e-01
1.4837477e-01
5.4137011e-02
-4.8566754e-03
-1.1197523e-02
7.4618558e-03
8.1787454e-03
-1.9521709e-02
-5.7833305e-02
-8.9342732e-02
-1.0727812e-01
-1.1341899e-01
-1.0957490e-01
-9.4051389e-02
-5.9588507e-02
-1.9166846e-02
-5.5042702e-04
-1.6243625e-03
-3.2462493e-03
-2.2755097e-03
-4.1130348e-03
-1.6636850e-02
-4.5239577e-02
-6.7251636e-02
-5.9268915e-02
-3.8800976e-02
-2.7784559e-02
-1.6911781e-02
1.1270079e-02
6.7969487e-02
1.2877843e-01
1.3519206e-01
8.6653877e-02
4.0031398e-02
2.9145137e-02
3.8233184e-02
3.8468502e-02
3.0120764e-02
9.3628672e-03
-3.3345160e-02
-7.8139162e-02
-1.0014243e-01
-9.5168349e-02
-7.1908523e-02
-3.5018127e-02
2.7449669e-03
2.5038291e-02
3.7905314e-02
5.1032699e-02
6.8277718e-02
7.9258586e-02
6.1581081e-02
2.1304170e-02
-1.2061362e-02
-1.5791679e-02
-2.0398477e-03
-6.9208783e-03
-3.4095515e-02
-6.1508130e-02
-7.6577128e-02
-7.7085077e-02
-7.0006144e-02
-6.5278449e-02
-6.0353953e-02
-4.3316085e-02
-1.6341023e-02
1.1469610e-02
4.7699988e-02
1.0182870e-01
1.4974032e-01
1.5828951e-01
1.2630361e-01
6.7642054e-02
8.5656974e-03
-3.2863654e-02
-6.7477159e-02
-1.0541759e-01
-1.4162524e-01
-1.6378827e-01
-1.5949417e-01
-1.2613874e-01
-7.7716474e-02
-2.4906950e-02
4.6606793e-02
1.6734640e-01
2.9332485e-01
3.1422709e-01
2.2263122e-01
9.9437637e-02
-9.6760297e-04
-5.8528848e-02
-8.6211390e-02
-1.1163552e-01
-1.3254289e-01
-1.2375240e-01
-8.7877212e-02
-5.3453696e-02
-2.5439124e-02
3.7526312e-03
3.4848096e-02
6.4242642e-02
6.6653717e-02
3.1499971e-02
-7.7453412e-03
-2.1834315e-02
-1.9690258e-02
-2.6483079e-02
-4.5259713e-02
-5.5701226e-02
-4.2846458e-02
-1.0521655e-02
2.6539365e-02
5.7185843e-02
8.1614050e-02
1.0848090e-01
1.2087724e-01
9.3304577e-02
3.9173940e-02
-2.4759029e-02
-8.6541885e-02
-1.2513049e-01
-1.3287656e-01
-1.2221333e-01
-1.0927168e-01
-9.2158239e-02
-7.4702483e-02
-7.5090146e-02
-8.6157648e-02
-8.0799700e-02
-4.2038900e-02
3.1998699e-02
1.3443133e-01
2.3150364e-01
2.7080148e-01
2.2515925e-01
1.0789516e-01
-3.2031156e-02
-1.4884172e-01
-2.1976205e-01
-2.3170266e-01
-1.8760029e-01
-1.3497510e-01
-1.3166630e-01
-1.5582646e-01
-1.2840566e-01
-5.2162031e-02
-7.2912523e-03
1.7089516e-02
9.8513330e-02
2.4897539e-01
3.8280838e-01
3.7910551e-01
2.3407280e-01
7.8852245e-02
4.4302114e-02
1.2144190e-01
1.8479080e-01
1.6511130e-01
6.3615970e-02
-8.5163720e-02
-2.2225357e-01
-3.1664607e-01
-3.4158556e-01
-2.6384601e-01
-6.8044319e-02
1.7331175e-01
3.1329608e-01
3.0185826e-01
1.8510490e-01
3.4241154e-02
-6.5620524e-02
-6.1087231e-02
2.1963577e-02
5.9619730e-02
-1.4701020e-02
-1.2341801e-01
-2.0021767e-01
-2.3787235e-01
-2.3417682e-01
-1.8746432e-01
-9.9054157e-02
4.9967857e-03
6.6224248e-02
5.1406934e-02
-1.4743437e-02
-8.8909037e-02
-1.3514169e-01
-1.1856684e-01
-4.9369306e-02
2.4181747e-02
7.4725656e-02
6.5943205e-02
-1.5862554e-02
-9.7542835e-02
-8.1755074e-02
1.9129250e-02
9.1496284e-02
7.4254248e-02
-2.1892334e-02
-1.2977384e-01
-1.4711809e-01
-5.6207772e-02
7.4224445e-02
1.7718911e-01
2.2674501e-01
2.4124175e-01
2.5293750e-01
2.6561278e-01
2.6327683e-01
2.4878423e-01
2.2872016e-01
2.0142391e-01
1.7888590e-01
1.4569135e-01
6.5212166e-02
-6.3102265e-02
-2.3061499e-01
-3.9823414e-01
-4.8881271e-01
-4.5709715e-01
-2.8632124e-01
8.1448568e-03
3.1828476e-01
4.8940459e-01
4.5507371e-01
2.9387381e-01
1.3459459e-01
2.5524243e-02
-6.0616401e-02
-1.4152242e-01
-2.0101245e-01
-2.3480957e-01
-2.6234279e-01
-3.0618945e-01
-3.7049774e-01
-4.3523498e-01
-4.7561629e-01
-4.6816720e-01
-3.9322195e-01
-2.3667297e-01
7.5983632e-03
3.1162088e-01
5.9754179e-01
7.8599442e-01
8.2610819e-01
6.9731846e-01
4.3728902e-01
1.3765789e-01
-9.1034728e-02
-1.8464500e-01
-1.8342537e-01
-1.6777589e-01
-1.6680066e-01
-1.6745476e-01
-1.5882111e-01
-1.5998097e-01
-1.9640209e-01
-2.5970088e-01
-3.2996141e-01
-3.8453421e-01
-3.9426171e-01
-3.4015571e-01
-2.0693596e-01
1.5142265e-02
3.1622160e-01
6.2213026e-01
7.9617835e-01
7.5110098e-01
5.0460061e-01
1.6260514e-01
-1.4282198e-01
-3.3318444e-01
-3.7812598e-01
-2.8805123e-01
-1.5671484e-01
-1.1365053e-01
-1.9134025e-01
-3.1526500e-01
-3.9682977e-01
-3.7728532e-01
-2.2551116e-01
2.6772211e-02
2.7116089e-01
4.1140340e-01
4.2508330e-01
3.5055976e-01
2.3952611e-01
1.2265229e-01
1.2771225e-03
-1.2057271e-01
-1.8950506e-01
-1.6298441e-01
-7.6759175e-02
4.5629000e-03
5.8295128e-02
8.9180307e-02
9.6165318e-02
7.2188139e-02
1.1402692e-02
-3.1031212e-02
4.0657152e-02
1.9090028e-01
2.6642390e-01
1.6932086e-01
-5.0926512e-02
-2.6123484e-01
-3.9499034e-01
-4.3409198e-01
-3.9926083e-01
-3.3705434e-01
-2.2686596e-01
-5.8785474e-02
1.0267265e-01
2.0676879e-01
2.4043828e-01
2.1820601e-01
1.8326723e-01
1.5460893e-01
1.2842124e-01
1.1405830e-01
1.1589619e-01
1.2227489e-01
1.1581587e-01
7.1209652e-02
1.9027873e-02
2.7827463e-02
8.8712962e-02
1.5512027e-01
1.9767349e-01
1.8383501e-01
8.9099874e-02
-6.8478928e-02
-2.2712813e-01
-3.1010182e-01
-2.5340507e-01
-9.4091292e-02
3.7360894e-02
6.4031736e-02
-2.6768029e-02
-1.7611463e-01
-2.4544395e-01
-1.4165536e-01
9.6589681e-02
3.1952685e-01
3.9871388e-01
3.2576545e-01
1.6269468e-01
-3.2824602e-02
-2.1020459e-01
-3.1136468e-01
-2.8202741e-01
-1.1606962e-01
9.3541288e-02
2.0521857e-01
1.2290738e-01
-1.0552832e-01
-3.0772968e-01
-3.8221747e-01
-3.1423459e-01
-1.2546014e-01
1.1146671e-01
3.3431167e-01
4.8554525e-01
4.9234152e-01
3.1377406e-01
1.3153988e-02
-2.7318353e-01
-4.7752849e-01
-5.8645225e-01
-5.6765544e-01
-4.2473520e-01
-2.1540313e-01
-6.0729069e-03
1.4840656e-01
2.5588093e-01
3.6851456e-01
5.0554297e-01
6.4132824e-01
7.1695642e-01
6.8628528e-01
5.3075948e-01
2.7441340e-01
3.4616884e-03
-2.1700326e-01
-3.8532060e-01
-5.0866603e-01
-5.8215826e-01
-6.0317809e-01
-5.7646196e-01
-5.1487001e-01
-4.2408923e-01
-2.9448123e-01
-1.1464153e-01
1.2437813e-01
3.9522632e-01
6.1011427e-01
6.8669133e-01
6.1064242e-01
4.0933790e-01
1.3833293e-01
-1.1786848e-01
-3.0786049e-01
-4.3492301e-01
-5.1260874e-01
-5.1834966e-01
-4.2412996e-01
-2.3825263e-01
4.2883151e-02
3.8633311e-01
6.6023394e-01
7.3842398e-01
5.9636942e-01
3.2790849e-01
7.3816517e-02
-8.6016588e-02
-1.7263054e-01
-2.3726798e-01
-2.7633878e-01
-2.9192271e-01
-3.1084678e-01
-3.3670864e-01
-3.5363460e-01
-3.5393941e-01
-3.4671506e-01
-3.1174948e-01
-2.0895809e-01
-1.3135372e-02
2.6905703e-01
5.4313259e-01
6.7637950e-01
6.0153144e-01
3.5486566e-01
6.7169539e-02
-1.6407504e-01
-3.2612595e-01
-4.0410268e-01
-3.5963628e-01
-1.6947900e-01
1.2873160e-01
4.1424846e-01
5.5599140e-01
5.0026298e-01
2.8919284e-01
3.0172532e-02
-1.8777524e-01
-3.3130227e-01
-3.9182327e-01
-3.6164657e-01
-2.3990020e-01
-7.0627764e-02
6.0653481e-02
8.4260275e-02
5.2816773e-03
-9.9473811e-02
-1.6973173e-01
-1.9458207e-01
-1.6191199e-01
-3.5868134e-02
1.8043936e-01
4.0228292e-01
5.2773710e-01
4.9817421e-01
3.3399782e-01
1.3119955e-01
-2.1550344e-02
-1.2031805e-01
-2.0432786e-01
-2.7337193e-01
-3.1359740e-01
-3.2082079e-01
-2.8239127e-01
-1.8707475e-01
-2.9339657e-02
1.6328875e-01
3.0573386e-01
3.2166322e-01
2.2343504e-01
8.7211640e-02
-3.0617524e-02
-1.1862488e-01
-1.7487287e-01
-1.9334481e-01
-1.7669873e-01
-1.2729249e-01
-6.0108485e-02
-1.9659534e-03
5.4310325e-02
1.3141620e-01
2.2616486e-01
2.9276018e-01
2.6854229e-01
1.5153957e-01
-4.0742148e-04
-1.3829091e-01
-2.4644627e-01
-3.3656715e-01
-4.2169031e-01
-4.9097704e-01
-5.3167229e-01
-5.6584064e-01
-6.1448613e-01
-6.3489670e-01
-5.6304620e-01
-3.5485529e-01
-2.4018935e-02
