5.2465644e-02
-1.2883547e+00
-2.2627789e+00
-2.5278796e+00
-1.9958461e+00
-9.7134505e-01
4.2208362e-02
6.8150291e-01
8.9197961e-01
8.0664911e-01
4.9521824e-01
-1.1148517e-01
-9.8936911e-01
-1.8195384e+00
-2.1884801e+00
-1.9023993e+00
-1.0367088e+00
1.3995626e-01
1.2099200e+00
1.7359887e+00
1.5694043e+00
9.9959386e-01
4.3370483e-01
3.2345719e-02
-3.2433630e-01
-8.2115482e-01
-1.4434042e+00
-1.9562591e+00
-2.1082260e+00
-1.7652235e+00
-8.7158653e-01
5.9498620e-01
2.5436440e+00
4.5003393e+00
5.5472919e+00
4.9241893e+00
2.7517886e+00
2.6557687e-02
-2.2007615e+00
-3.4694408e+00
-3.8387160e+00
-3.6097339e+00
-3.0965194e+00
-2.4883968e+00
-1.8383084e+00
-1.0811412e+00
-8.6940978e-02
1.2003031e+00
2.5887546e+00
3.5917834e+00
3.6770940e+00
2.6669097e+00
9.1900114e-01
-8.6343917e-01
-2.0547081e+00
-2.4011736e+00
-1.9756604e+00
-1.0810968e+00
-2.3177408e-01
5.6866654e-02
-2.9597683e-01
-8.1688829e-01
-9.4243002e-01
-3.9654926e-01
8.5547124e-01
2.5765413e+00
4.0525823e+00
4.3162271e+00
2.9424748e+00
6.1643415e-01
-1.4468359e+00
-2.5648290e+00
-2.7535701e+00
-2.3456616e+00
-1.7492157e+00
-1.3066063e+00
-1.1832994e+00
-1.2902411e+00
-1.3863182e+00
-1.2693433e+00
-8.4124707e-01
-8.4048149e-02
9.7321666e-01
2.2271473e+00
3.4017810e+00
4.0278940e+00
3.6970858e+00
2.4688604e+00
9.4426244e-01
-2.0360249e-01
-7.8211226e-01
-1.1262835e+00
-1.6021753e+00
-2.1454125e+00
-2.4213173e+00
-2.2551232e+00
-1.7299469e+00
-1.0622751e+00
-4.6869605e-01
-6.7629961e-02
1.5949272e-01
3.1257113e-01
4.1873225e-01
3.7790149e-01
9.9882206e-02
-3.0131701e-01
-5.0976177e-01
-2.7661307e-01
3.7266608e-01
1.1154978e+00
1.5019795e+00
1.2862774e+00
6.3675565e-01
1.2917988e-02
-2.2691643e-01
-7.1469141e-02
2.8250817e-01
6.8277266e-01
1.0670845e+00
1.3066208e+00
1.1625518e+00
5.7296575e-01
-1.6923136e-01
-7.1647491e-01
-9.9494930e-01
-1.1368095e+00
-1.2372274e+00
-1.3381111e+00
-1.4620751e+00
-1.5565232e+00
-1.5442817e+00
-1.3878145e+00
-1.0816481e+00
-5.9782600e-01
1.3505435e-01
1.1444508e+00
2.3109039e+00
3.1785729e+00
3.0937358e+00
1.9567846e+00
4.5132654e-01
-6.5769157e-01
-1.0714897e+00
-9.4099036e-01
-5.6573251e-01
-1.4114129e-01
1.6442289e-01
1.4851642e-01
-1.9077236e-01
-6.1644209e-01
-9.8101055e-01
-1.3075393e+00
-1.6148157e+00
-1.8336587e+00
-1.8476054e+00
-1.5841398e+00
-9.9502456e-01
-5.0162008e-03
1.4402489e+00
3.2568840e+00
4.9609956e+00
5.5700820e+00
4.3779938e+00
1.8842785e+00
-6.5253731e-01
-2.3714405e+00
-3.1210444e+00
-3.2109881e+00
-3.0947461e+00
-3.0336785e+00
-2.9904729e+00
-2.7465292e+00
-2.1198853e+00
-1.0799435e+00
3.0224688e-01
1.9543971e+00
3.6889612e+00
4.9485891e+00
5.1001040e+00
4.0843937e+00
2.4169654e+00
6.8267499e-01
-7.2558332e-01
-1.6000689e+00
-1.8822469e+00
-1.6964413e+00
-1.3910652e+00
-1.3765644e+00
-1.7432700e+00
-2.1507272e+00
-2.1929931e+00
-1.7110804e+00
-7.9030836e-01
2.3717110e-01
8.6979053e-01
9.0398515e-01
6.7286313e-01
6.3784609e-01
9.5277372e-01
1.3576323e+00
1.3135097e+00
4.8326970e-01
-8.2479920e-01
-1.9326069e+00
-2.3798808e+00
-2.0555569e+00
-9.9705433e-01
7.1426599e-01
2.8625215e+00
4.7543505e+00
5.2812269e+00
3.8788499e+00
1.2290171e+00
-1.3334605e+00
-2.9426056e+00
-3.5005284e+00
-3.3582162e+00
-2.9949406e+00
-2.6866362e+00
-2.3641048e+00
-1.7984361e+00
-8.4172898e-01
5.2288519e-01
2.1311729e+00
3.5407533e+00
4.2106124e+00
3.8641970e+00
2.6412610e+00
9.5383000e-01
-6.8621197e-01
-1.7935395e+00
-2.1122892e+00
-1.6841466e+00
-7.8063398e-01
1.4350617e-01
5.7556431e-01
2.3775012e-01
-6.3502684e-01
-1.4482341e+00
-1.7387937e+00
-1.3697921e+00
-4.8438345e-01
4.4932318e-01
8.6173264e-01
6.9712103e-01
5.2866743e-01
8.7166969e-01
1.6775225e+00
2.3173722e+00
1.9936036e+00
5.8076047e-01
-1.1375522e+00
-2.3229548e+00
-2.7277257e+00
-2.5139557e+00
-1.9748298e+00
-1.4402361e+00
-1.0301235e+00
-4.4889594e-01
6.8216939e-01
2.3653543e+00
3.9413913e+00
4.3577687e+00
3.1735223e+00
1.0584477e+00
-8.8982276e-01
-2.0180259e+00
-2.2570706e+00
-1.8481077e+00
-1.1538080e+00
-5.3463571e-01
-1.9719699e-01
-8.0427594e-02
4.3163129e-02
2.5544107e-01
3.6075226e-01
1.0514094e-01
-4.9880015e-01
-1.1037756e+00
-1.3301190e+00
-1.0043183e+00
-1.5489709e-01
9.9250055e-01
1.9250157e+00
2.0367795e+00
1.2429467e+00
1.2607220e-01
-6.5558890e-01
-7.7896837e-01
-2.3389247e-01
7.3889061e-01
1.5569737e+00
1.5344394e+00
6.2236128e-01
-5.1942441e-01
-1.2637985e+00
-1.4344429e+00
-1.1936554e+00
-8.6029027e-01
-7.3753535e-01
-9.2430720e-01
-1.2669822e+00
-1.5517924e+00
-1.6608535e+00
-1.5329072e+00
-1.0869866e+00
-1.9902865e-01
1.1899806e+00
2.8819674e+00
4.1534588e+00
4.0305275e+00
2.3476916e+00
1.0353306e-01
-1.4771287e+00
-1.8237786e+00
-1.0448051e+00
2.4223806e-01
9.9402248e-01
4.4832915e-01
-9.7120778e-01
-2.1155646e+00
-2.3109299e+00
-1.5653338e+00
-1.7267310e-01
1.3929532e+00
2.4259484e+00
2.3039854e+00
1.0638776e+00
-5.7135842e-01
-1.7861694e+00
-2.1299196e+00
-1.5214635e+00
-9.6363199e-02
1.7363331e+00
3.1315060e+00
3.2225912e+00
2.0466453e+00
5.8307098e-01
-3.2223158e-01
-5.9936753e-01
-7.5831915e-01
-1.2285975e+00
-1.8133847e+00
-2.0442347e+00
-1.7442157e+00
-1.0671199e+00
-3.0327516e-01
2.6090264e-01
4.8041938e-01
4.4801819e-01
3.3038486e-01
1.6847142e-01
-8.5795776e-02
-4.0477327e-01
-6.2484004e-01
-5.8863619e-01
-2.7937165e-01
2.2543807e-01
8.2452640e-01
1.3271112e+00
1.4221716e+00
8.9120366e-01
-1.3958664e-01
-1.2349549e+00
-1.9461722e+00
-2.0412739e+00
-1.4903264e+00
-3.8043375e-01
1.0743667e+00
2.3984620e+00
2.9531852e+00
2.4499691e+00
1.2732257e+00
1.7785358e-01
-3.4388378e-01
-3.8988930e-01
-4.7277053e-01
-9.1342014e-01
-1.4465943e+00
-1.6110537e+00
-1.2014301e+00
-2.9683095e-01
8.2519481e-01
1.7314937e+00
1.9238159e+00
1.2337200e+00
1.4799990e-01
-6.5296853e-01
-8.9908247e-01
-7.6248192e-01
-6.1624482e-01
-7.5337366e-01
-1.1658501e+00
-1.6001004e+00
-1.8253100e+00
-1.7707339e+00
-1.4714761e+00
-9.6803152e-01
-2.4111950e-01
7.7311411e-01
2.0799352e+00
3.4428719e+00
4.2765961e+00
3.9275966e+00
2.2999291e+00
1.4862339e-01
-1.5390926e+00
-2.3217689e+00
-2.3219462e+00
-1.9005365e+00
-1.4349593e+00
-1.1790379e+00
-1.1817387e+00
-1.2539118e+00
-1.1042183e+00
-5.4646508e-01
4.5797648e-01
1.8015650e+00
3.1252323e+00
3.8137344e+00
3.3672307e+00
1.9259276e+00
2.0872976e-01
-1.1316921e+00
-1.8727102e+00
-2.0930883e+00
-1.9575803e+00
-1.6365023e+00
-1.2820361e+00
-9.6030643e-01
-6.3606604e-01
-2.5583775e-01
1.8743928e-01
6.7743955e-01
1.1754657e+00
1.5255876e+00
1.4343252e+00
7.9179094e-01
-3.4000288e-02
-5.3122826e-01
-5.2103949e-01
-2.3692358e-01
-1.2900646e-01
-4.4611415e-01
-9.7524709e-01
-1.3020985e+00
-1.1708179e+00
-5.8668897e-01
2.3826647e-01
9.4411654e-01
1.1523527e+00
7.6343696e-01
4.2185708e-02
-6.4539196e-01
-1.0708827e+00
-1.1559502e+00
-8.7196895e-01
-1.9447965e-01
8.6439052e-01
2.1069182e+00
3.0958495e+00
3.3592697e+00
2.6270548e+00
1.0588106e+00
-7.3101332e-01
-2.0785939e+00
-2.6861976e+00
-2.6597465e+00
-2.3150578e+00
-1.9217778e+00
-1.5176500e+00
-9.7537382e-01
-1.9656400e-01
7.9067139e-01
1.8206044e+00
2.5999368e+00
2.8103700e+00
2.3182459e+00
1.2664484e+00
5.6237509e-03
-1.0570004e+00
-1.6240707e+00
-1.5589758e+00
-9.2398461e-01
-5.2060552e-02
5.2610427e-01
4.1976018e-01
-2.7028934e-01
-1.0596590e+00
-1.5023760e+00
-1.3887833e+00
-7.4214161e-01
2.6210475e-01
1.4010283e+00
2.3260351e+00
2.5413833e+00
1.8176303e+00
5.4935779e-01
-6.3261391e-01
-1.3991914e+00
-1.7426391e+00
-1.8009195e+00
-1.7483744e+00
-1.7033654e+00
-1.6689578e+00
-1.5314308e+00
-1.1108490e+00
-2.6515754e-01
1.0388431e+00
2.6134492e+00
3.9409128e+00
4.4331341e+00
3.9980752e+00
2.8696049e+00
1.0985674e+00
-1.0175696e+00
-2.8181599e+00
-3.8678302e+00
-4.1140527e+00
-3.7356684e+00
-2.9875396e+00
-2.0405159e+00
-9.0192346e-01
5.0254355e-01
2.1268479e+00
3.6038736e+00
4.3359085e+00
3.9290846e+00
2.5129033e+00
7.1495087e-01
-7.0604966e-01
-1.3032887e+00
-1.0535136e+00
-2.8473908e-01
4.0665398e-01
4.8352737e-01
-7.1144930e-02
-8.0299324e-01
-1.2832379e+00
-1.3747165e+00
-1.1509968e+00
-7.9176333e-01
-4.8765888e-01
-3.2654804e-01
-2.5030488e-01
-1.4309301e-01
-2.2884526e-02
-4.8515582e-02
-2.7096670e-01
-5.4795614e-01
-7.9381070e-01
-1.0457968e+00
-1.2928390e+00
-1.4000371e+00
-1.1847227e+00
-5.3099019e-01
6.1176979e-01
2.2297964e+00
4.0588455e+00
5.3533327e+00
5.2393491e+00
3.5213025e+00
9.1953935e-01
-1.5266916e+00
-3.1698690e+00
-3.8928917e+00
-3.8957101e+00
-3.5282928e+00
-3.0967309e+00
-2.6616046e+00
-2.0600234e+00
-1.1021823e+00
3.3641975e-01
2.1921999e+00
3.9452726e+00
4.7856817e+00
4.3848104e+00
3.1863027e+00
1.7448248e+00
2.6695693e-01
-1.1311092e+00
-2.1453199e+00
-2.3942037e+00
-1.7510557e+00
-5.0903102e-01
6.9181498e-01
1.1974027e+00
8.2953288e-01
3.7419412e-04
-7.1175702e-01
-1.0200329e+00
-9.9861622e-01
-8.9849920e-01
-8.9218352e-01
-9.2328767e-01
-8.4124187e-01
-6.0708887e-01
-3.3446660e-01
-2.0701898e-01
-3.5337119e-01
-7.4210535e-01
-1.1573082e+00
-1.3243362e+00
-1.0538438e+00
-2.4533942e-01
1.1297704e+00
2.9521643e+00
4.6978499e+00
5.4080713e+00
4.4028880e+00
2.0672786e+00
-4.2154646e-01
-2.1240792e+00
-2.8116809e+00
-2.7172319e+00
-2.2653464e+00
-1.8292331e+00
-1.4717020e+00
-1.0518280e+00
-5.4589948e-01
-6.3690086e-02
3.3713488e-01
6.4303868e-01
7.7504851e-01
5.9779521e-01
7.7154127e-02
-6.1749841e-01
-1.2355570e+00
-1.6022634e+00
-1.6275284e+00
-1.2448725e+00
-4.1544541e-01
8.5116957e-01
2.2997792e+00
3.2144998e+00
2.8654338e+00
1.4047385e+00
-1.2651096e-01
-8.3620489e-01
-5.3130875e-01
5.3563353e-01
1.7591776e+00
2.2021346e+00
1.3514003e+00
-2.1934062e-01
-1.5237670e+00
-2.1129544e+00
-2.1134594e+00
-1.8499619e+00
-1.6361925e+00
-1.6724912e+00
-1.9064699e+00
-2.0683478e+00
-1.9005429e+00
-1.2813715e+00
-1.8290346e-01
1.3748299e+00
3.2592024e+00
5.0621305e+00
6.0336141e+00
5.4802079e+00
3.4157937e+00
7.0236022e-01
-1.5979009e+00
-2.9163253e+00
-3.2272503e+00
-2.8066708e+00
-2.0874695e+00
-1.4845759e+00
-1.1927056e+00
-1.1145199e+00
-9.9134768e-01
-6.4938744e-01
-1.1967636e-01
3.9973850e-01
6.7740049e-01
5.6382043e-01
8.2767124e-02
-5.2983248e-01
-9.6196016e-01
-1.0017924e+00
-5.9539499e-01
2.1726304e-01
1.3303216e+00
2.5125634e+00
3.3080012e+00
3.2142935e+00
2.1736287e+00
6.7932692e-01
-6.8528325e-01
-1.6700135e+00
-2.3248864e+00
-2.7108774e+00
-2.7507657e+00
-2.3353517e+00
-1.4797326e+00
-3.3203298e-01
8.8401444e-01
1.8655606e+00
2.2485915e+00
1.7944050e+00
6.7299376e-01
-5.9935954e-01
-1.5460281e+00
-1.9355868e+00
-1.7385657e+00
-1.0146432e+00
1.3210392e-01
1.5358380e+00
2.8405839e+00
3.4904083e+00
3.0988168e+00
1.8229067e+00
3.0531917e-01
-8.2909557e-01
-1.3694863e+00
-1.4529602e+00
-1.3205747e+00
-1.1716951e+00
-1.1051458e+00
-1.0869201e+00
-1.0121720e+00
-8.3964345e-01
-6.5475228e-01
-6.0552601e-01
-7.7153884e-01
-1.0881887e+00
-1.3747807e+00
-1.4335993e+00
-1.1241310e+00
-3.5352543e-01
9.4408811e-01
2.7519220e+00
4.6945132e+00
5.8859165e+00
5.4578118e+00
3.4159197e+00
7.1717138e-01
-1.6208869e+00
-3.1312609e+00
-3.7790472e+00
-3.7135445e+00
-3.1364702e+00
-2.2425734e+00
-1.1461120e+00
7.1806293e-02
1.1483300e+00
1.6697309e+00
1.5085399e+00
9.8750316e-01
4.2886964e-01
-9.4564939e-02
-6.1495556e-01
-1.1309456e+00
-1.5370193e+00
-1.6845826e+00
-1.4766254e+00
-8.8093773e-01
7.9547420e-02
1.2878207e+00
2.5064960e+00
3.3596408e+00
3.4213138e+00
2.5368290e+00
1.0824918e+00
-2.5706129e-01
-1.0493101e+00
-1.3660020e+00
-1.6167438e+00
-2.0347452e+00
-2.3330587e+00
-2.1461565e+00
-1.4506351e+00
-5.0264527e-01
3.2400620e-01
7.1439006e-01
6.0107984e-01
2.0457854e-01
-2.1355418e-01
-5.3988565e-01
-7.2627971e-01
-6.4943802e-01
-8.3833990e-02
1.0878147e+00
2.6154641e+00
3.7667818e+00
3.6693962e+00
2.1215628e+00
-1.1606939e-01
-2.0311704e+00
-3.1361887e+00
-3.4751122e+00
-3.2687409e+00
-2.6588481e+00
-1.6288714e+00
-1.1810484e-01
1.7911708e+00
3.5872381e+00
4.3832720e+00
3.6685382e+00
1.8782882e+00
-1.8809461e-02
-1.3560897e+00
-1.9825443e+00
-1.9995861e+00
-1.5623152e+00
-7.9400310e-01
7.1444928e-02
5.9202119e-01
4.2556363e-01
-2.7859445e-01
-9.7098426e-01
-1.1768333e+00
-7.5316451e-01
1.4455579e-01
9.8921833e-01
1.0394044e+00
7.5773458e-02
-1.2979335e+00
-2.2535336e+00
-2.3289684e+00
-1.4849198e+00
1.1708271e-01
2.1867578e+00
4.0754680e+00
4.8265972e+00
3.9032755e+00
1.7816194e+00
-4.3232331e-01
-1.8796192e+00
-2.2524861e+00
-1.6127398e+00
-3.0995218e-01
9.6709156e-01
1.4526909e+00
9.1139588e-01
-2.3864819e-01
-1.4067608e+00
-2.2265204e+00
-2.6121718e+00
-2.6290863e+00
-2.3894480e+00
-2.0151671e+00
-1.5910824e+00
-1.1218589e+00
-4.8593719e-01
4.9495083e-01
1.9243771e+00
3.6714250e+00
5.0586887e+00
5.1197652e+00
3.5967475e+00
1.2761647e+00
-8.0963838e-01
-2.1487643e+00
-2.7005507e+00
-2.6026175e+00
-2.0318042e+00
-1.1190156e+00
-9.6742185e-02
5.9193453e-01
5.8311848e-01
1.5353329e-02
-5.3937724e-01
-6.0300721e-01
-7.2767182e-02
7.2477505e-01
1.0714243e+00
4.9214808e-01
-6.5541313e-01
-1.6702473e+00
-2.1610636e+00
-2.0543661e+00
-1.4147808e+00
-3.4411205e-01
1.0631368e+00
2.5967247e+00
3.7492843e+00
3.9479872e+00
3.0781498e+00
1.5737413e+00
1.8802525e-02
-1.1767181e+00
-1.8358634e+00
-1.9746920e+00
-1.7583513e+00
-1.4089791e+00
-1.0944627e+00
-8.6015610e-01
-6.3661950e-01
-3.6742208e-01
-1.2618878e-01
-7.3795357e-02
-2.5696153e-01
-4.8952134e-01
-5.3546099e-01
-2.2831047e-01
5.2111204e-01
1.5766805e+00
2.4526768e+00
2.4618361e+00
1.3282091e+00
-3.8139975e-01
-1.7699129e+00
-2.3879481e+00
-2.3030516e+00
-1.7166306e+00
-7.6752551e-01
4.2982657e-01
1.6396431e+00
2.5165783e+00
2.8755061e+00
2.7690237e+00
2.2355646e+00
1.2583988e+00
-2.3772019e-02
-1.2697152e+00
-2.1021507e+00
-2.3482467e+00
-2.1308822e+00
-1.7054063e+00
-1.2646276e+00
-9.4392844e-01
-8.3560925e-01
-9.0721390e-01
-1.0082910e+00
-1.0070904e+00
-8.5519350e-01
-5.1963623e-01
7.1230375e-02
1.0024917e+00
2.2727517e+00
3.6614377e+00
4.5888618e+00
4.3623391e+00
2.8251484e+00
5.9797310e-01
-1.4269079e+00
-2.7425499e+00
-3.3429180e+00
-3.4608019e+00
-3.2955621e+00
-2.8590435e+00
-2.0744027e+00
-9.0735365e-01
5.9087832e-01
2.1700786e+00
3.2979380e+00
3.5327359e+00
3.0098139e+00
2.1617130e+00
1.1579234e+00
-7.0104280e-02
-1.3892648e+00
-2.3511824e+00
-2.6093233e+00
-2.1812966e+00
-1.3193994e+00
-3.2516987e-01
4.9267052e-01
8.4460530e-01
5.9811763e-01
-1.2427094e-01
-9.7340023e-01
-1.5494820e+00
-1.5933425e+00
-1.0039952e+00
2.1197943e-01
1.9307823e+00
3.7365192e+00
4.8149654e+00
4.3950829e+00
2.4743287e+00
-9.0341485e-03
-1.9582331e+00
-2.9134094e+00
-3.0018044e+00
-2.5888986e+00
-2.0653228e+00
-1.7130589e+00
-1.6207970e+00
-1.6343708e+00
-1.4575312e+00
-8.5301007e-01
2.9213245e-01
1.9618511e+00
3.8649620e+00
5.2421199e+00
5.1463221e+00
3.3143462e+00
5.9388674e-01
-1.8057528e+00
-3.2521786e+00
-3.7351846e+00
-3.4988385e+00
-2.8582781e+00
-2.0708441e+00
-1.2242954e+00
-2.9428735e-01
7.0629130e-01
1.6325370e+00
2.2063245e+00
2.1787976e+00
1.5683587e+00
7.1114562e-01
2.4837592e-02
-2.6285322e-01
-1.7619686e-01
1.0217263e-01
3.4704490e-01
3.9690718e-01
2.4321786e-01
4.1311827e-02
-1.3019060e-02
1.2130156e-01
2.4439330e-01
6.9051879e-02
-4.3685301e-01
-9.5308873e-01
-1.1304806e+00
-8.4435834e-01
-2.1412211e-01
4.0714294e-01
5.2779355e-01
7.8875220e-02
-4.3754723e-01
-6.8607284e-01
-6.7535818e-01
-5.0313296e-01
-3.0209644e-01
-1.5961149e-01
-1.0308575e-01
-1.0069229e-01
-1.7839352e-02
3.3321351e-01
1.0190556e+00
1.8417691e+00
2.3480742e+00
2.0979903e+00
1.0622476e+00
-3.1666278e-01
-1.4872771e+00
-2.1383275e+00
-2.2763474e+00
-2.1136934e+00
-1.8825599e+00
-1.6945247e+00
-1.5111911e+00
-1.2225224e+00
-7.3056813e-01
2.6805284e-02
1.0178372e+00
2.0226190e+00
2.7169261e+00
3.0137615e+00
3.1380382e+00
3.1855595e+00
2.8731033e+00
1.8855983e+00
3.2162336e-01
-1.3356365e+00
-2.6193101e+00
-3.2995239e+00
-3.3349148e+00
-2.7928937e+00
-1.8245077e+00
-6.7759516e-01
1.9503786e-01
2.9626843e-01
-2.9428564e-01
-8.9785644e-01
-9.1883600e-01
-1.5274816e-01
1.2806731e+00
2.8956971e+00
3.8973826e+00
3.7049576e+00
2.4424414e+00
7.3058021e-01
-8.2051497e-01
-1.8781414e+00
-2.3527609e+00
-2.2323202e+00
-1.5884265e+00
-6.7672722e-01
1.0539282e-01
4.8587309e-01
5.5637236e-01
6.3457609e-01
9.2098116e-01
1.2605837e+00
1.1477326e+00
3.2858862e-01
-7.2577316e-01
-1.4091123e+00
-1.5432473e+00
-1.2670298e+00
-8.1937031e-01
-4.5201514e-01
-3.6920570e-01
-6.1926345e-01
-1.0395956e+00
-1.3911284e+00
-1.5155042e+00
-1.3353471e+00
-7.8044164e-01
2.5506578e-01
1.8380354e+00
3.8164447e+00
5.4485290e+00
5.5843478e+00
3.8103340e+00
1.0132249e+00
-1.4747621e+00
-2.9385413e+00
-3.4220985e+00
-3.3410377e+00
-3.1141910e+00
-2.8496850e+00
-2.3446785e+00
-1.3902276e+00
1.9686328e-02
1.6799617e+00
3.1473037e+00
3.8212139e+00
3.3690610e+00
2.0381890e+00
4.4906634e-01
-8.9532038e-01
-1.8022002e+00
-2.1870031e+00
-1.9994874e+00
-1.2853334e+00
-1.8580994e-01
1.0419863e+00
1.9412917e+00
2.0028907e+00
1.1672570e+00
-2.6121661e-02
-9.8211249e-01
-1.4646667e+00
-1.4988580e+00
-1.1961165e+00
-7.6606381e-01
-4.4604747e-01
-2.5073169e-01
-3.5531376e-02
2.3424681e-01
4.0200089e-01
2.4824697e-01
-2.5470820e-01
-8.1955391e-01
-1.1532105e+00
-1.1717276e+00
-7.7072751e-01
1.8597111e-01
1.6172630e+00
3.0856478e+00
3.9542054e+00
3.7939237e+00
2.6555334e+00
1.0410714e+00
-4.4132615e-01
-1.4865777e+00
-2.0995994e+00
-2.3584456e+00
-2.3249653e+00
-2.0837843e+00
-1.7490436e+00
-1.3971186e+00
-1.0119354e+00
-5.4561445e-01
-2.0344910e-02
4.1901205e-01
5.3019499e-01
1.7583833e-01
-4.5958083e-01
-9.7553966e-01
-1.0894361e+00
-7.3663344e-01
7.5172108e-02
1.3189267e+00
2.8531939e+00
4.2153904e+00
4.6817001e+00
3.7893951e+00
1.7969204e+00
-4.3587690e-01
-2.1170414e+00
-2.9444438e+00
-2.9984003e+00
-2.6015682e+00
-2.1781373e+00
-1.9796934e+00
-1.8894993e+00
-1.5804647e+00
-8.2962020e-01
3.7984846e-01
1.8788672e+00
3.2443122e+00
3.7490781e+00
2.8559750e+00
9.4141491e-01
-9.7539636e-01
-2.1753000e+00
-2.4975166e+00
-2.0192379e+00
-8.8987752e-01
6.8232404e-01
2.2559610e+00
3.0771338e+00
2.6051075e+00
1.1300716e+00
-4.4164183e-01
-1.4142497e+00
-1.6550452e+00
-1.3503746e+00
-7.3796094e-01
-2.8830694e-02
5.1081625e-01
6.2994851e-01
3.4287134e-01
-1.3025744e-01
-6.1052266e-01
-1.0034826e+00
-1.2636708e+00
-1.4133536e+00
-1.5035673e+00
-1.5427098e+00
-1.4879205e+00
-1.2714582e+00
-8.4083207e-01
-1.5119804e-01
8.6595023e-01
2.2650825e+00
3.8713287e+00
5.0076777e+00
4.7212823e+00
2.7205141e+00
-8.6318215e-02
-2.4185081e+00
-3.6740165e+00
-3.9476674e+00
-3.5818410e+00
-2.8735129e+00
-1.9109456e+00
-6.2438685e-01
1.0586870e+00
2.9761949e+00
4.3206861e+00
4.0221111e+00
2.0326901e+00
-4.8329416e-01
-2.3587190e+00
-3.1874218e+00
-3.0646950e+00
-2.1931865e+00
-6.9815478e-01
1.3815614e+00
3.6355368e+00
4.9478582e+00
4.3135460e+00
2.0660900e+00
-3.8027221e-01
-1.9455102e+00
-2.4129839e+00
-2.0608106e+00
-1.4546480e+00
-1.2406420e+00
-1.5486473e+00
-1.8493444e+00
-1.6470162e+00
-8.2168807e-01
4.5477269e-01
1.5588159e+00
1.6755710e+00
7.1626310e-01
-5.4828417e-01
-1.3771694e+00
-1.5098959e+00
-9.5459530e-01
2.0753439e-01
1.8478508e+00
3.5558619e+00
4.4701749e+00
3.8638843e+00
1.9411038e+00
-3.0337387e-01
-1.9576465e+00
-2.7326685e+00
-2.8183689e+00
-2.5710201e+00
-2.2559765e+00
-1.8417231e+00
-1.1339783e+00
-6.6014116e-02
1.2010514e+00
2.2194786e+00
2.4098634e+00
1.6175164e+00
3.2716957e-01
-8.3123852e-01
-1.5548718e+00
-1.8264839e+00
-1.7164416e+00
-1.2691970e+00
-4.4994474e-01
7.5255754e-01
2.1652187e+00
3.2504153e+00
3.3221410e+00
2.2742606e+00
7.5869034e-01
-4.7655848e-01
-1.1363872e+00
-1.3736483e+00
-1.4399364e+00
-1.4323020e+00
-1.3549513e+00
-1.2200694e+00
-1.0383156e+00
-7.7497033e-01
-4.5214650e-01
-1.7065860e-01
5.4534905e-02
3.1018303e-01
6.2055774e-01
8.8468366e-01
9.6021890e-01
7.6662177e-01
3.9487760e-01
6.0692374e-02
-1.0578200e-01
-1.6825209e-01
-2.6741726e-01
-4.4595380e-01
-5.8239474e-01
-5.0566042e-01
-1.8549521e-01
1.5088462e-01
1.0247512e-01
-4.3660769e-01
-1.0066623e+00
-1.0394592e+00
-2.9717556e-01
1.0997267e+00
2.5822937e+00
3.2137054e+00
2.4977473e+00
9.8452205e-01
-4.1114386e-01
-1.2713372e+00
-1.6554792e+00
-1.7759972e+00
-1.7950303e+00
-1.7542418e+00
-1.6084829e+00
-1.2768282e+00
-6.9751591e-01
1.6794597e-01
1.3529900e+00
2.7183936e+00
3.7217630e+00
3.6475594e+00
2.3396470e+00
4.9046743e-01
-1.0821560e+00
-2.0872165e+00
-2.6006236e+00
-2.7079773e+00
-2.3930190e+00
-1.6589328e+00
-7.1040997e-01
2.8506706e-02
1.8129188e-01
-2.4203133e-01
-8.5807778e-01
-1.2122389e+00
-9.9402409e-01
-6.7033140e-02
1.5799279e+00
3.6808638e+00
5.4052101e+00
5.6518365e+00
3.9884378e+00
1.2115585e+00
-1.3325957e+00
-2.8677549e+00
-3.3884681e+00
-3.2455727e+00
-2.7943233e+00
-2.2278546e+00
-1.5829232e+00
-8.1110621e-01
9.1619637e-02
9.1320605e-01
1.3659921e+00
1.4672151e+00
1.3930487e+00
1.1129925e+00
4.8759536e-01
-3.8229415e-01
-1.1270761e+00
-1.4445234e+00
-1.2812981e+00
-7.4490167e-01
-1.0500369e-02
6.2037133e-01
7.7591371e-01
4.1828129e-01
3.1137822e-02
1.7608899e-01
1.0028261e+00
2.0270691e+00
2.3729923e+00
1.6121412e+00
1.9672625e-01
-1.0807613e+00
-1.7624233e+00
-1.8480584e+00
-1.5818442e+00
-1.2565302e+00
-1.0818954e+00
-1.1017452e+00
-1.2328199e+00
-1.3602512e+00
-1.3805360e+00
-1.2164737e+00
-8.1204595e-01
-1.0175810e-01
1.0125829e+00
2.5918055e+00
4.4076461e+00
5.7048276e+00
5.5397865e+00
3.6331725e+00
7.5381057e-01
-1.8959335e+00
-3.5464316e+00
-4.0976408e+00
-3.8813957e+00
-3.3459876e+00
-2.7762240e+00
-2.2100666e+00
-1.5614257e+00
-7.1967020e-01
4.3284191e-01
1.9192520e+00
3.4126290e+00
4.1507704e+00
3.4711838e+00
1.5713224e+00
-5.6726455e-01
-2.0507806e+00
-2.5636216e+00
-2.1760127e+00
-1.0563686e+00
5.7145641e-01
2.2185864e+00
3.1273728e+00
2.8699858e+00
1.7968283e+00
5.9253905e-01
-3.9053220e-01
-1.2176645e+00
-1.9539788e+00
-2.4015731e+00
-2.3387953e+00
-1.7547894e+00
-8.3067002e-01
9.6306903e-02
6.2122369e-01
6.1908734e-01
3.8856650e-01
1.9690866e-01
3.8161156e-04
-3.6508865e-01
-9.1930302e-01
-1.4381133e+00
-1.6183451e+00
-1.2716053e+00
-3.7558516e-01
9.5045979e-01
2.3941319e+00
3.4144330e+00
3.4652867e+00
2.3819612e+00
6.4919389e-01
-8.7388961e-01
-1.5907708e+00
-1.3718377e+00
-4.6831628e-01
4.9300400e-01
7.7993300e-01
1.5160557e-01
-9.1836888e-01
-1.7587477e+00
-2.0287649e+00
-1.7240590e+00
-1.0161197e+00
-1.8215210e-01
4.8528807e-01
7.7167090e-01
5.8397070e-01
-1.6075531e-02
-7.2139539e-01
-1.0348340e+00
-6.0079902e-01
6.2794376e-01
2.2957541e+00
3.4907798e+00
3.1992303e+00
1.3491794e+00
-9.8538063e-01
-2.6637013e+00
-3.2436750e+00
-2.7895400e+00
-1.5012707e+00
4.2375867e-01
2.6255415e+00
4.2150810e+00
4.1467869e+00
2.4384279e+00
2.7814240e-01
-1.2985310e+00
-2.0989414e+00
-2.3641025e+00
-2.3308337e+00
-2.1217347e+00
-1.7771605e+00
-1.3091410e+00
-7.3006485e-01
-2.2108051e-02
8.3614430e-01
1.7346986e+00
2.3995601e+00
2.4380037e+00
1.6241363e+00
3.3307505e-01
-7.2466338e-01
-1.1286365e+00
-8.8383978e-01
-2.8608352e-01
2.2294969e-01
3.3514238e-01
8.8317659e-02
-3.0538526e-01
-7.1532940e-01
-1.0893515e+00
-1.3676939e+00
-1.5028467e+00
-1.5009778e+00
-1.4226786e+00
-1.3191206e+00
-1.1556094e+00
-8.3300289e-01
-2.3076407e-01
7.9381519e-01
2.3517790e+00
4.2427537e+00
5.6691774e+00
5.6117941e+00
3.7380543e+00
8.4111166e-01
-1.8076331e+00
-3.4373952e+00
-3.9628615e+00
-3.6916489e+00
-3.0697134e+00
-2.4141170e+00
-1.7919345e+00
-1.1246470e+00
-3.1717923e-01
6.8884816e-01
1.8220306e+00
2.7840127e+00
3.1710538e+00
2.7786608e+00
1.7246903e+00
3.6332846e-01
-8.7562946e-01
-1.6370237e+00
-1.6884484e+00
-1.0119813e+00
7.4962430e-02
9.4950744e-01
1.0957820e+00
6.0156514e-01
2.5387223e-03
-2.9358768e-01
-2.5930482e-01
-2.1165381e-01
-4.6674097e-01
-8.9288647e-01
-1.1232436e+00
-1.0076378e+00
-6.3651363e-01
-1.9492368e-01
1.0030313e-01
7.4607169e-02
-2.8785865e-01
-8.0313236e-01
-1.2361893e+00
-1.4427709e+00
-1.3496609e+00
-8.9732985e-01
-1.5063696e-02
1.3175226e+00
2.9800690e+00
4.4986187e+00
5.0313729e+00
3.9628504e+00
1.6007539e+00
-9.2596113e-01
-2.6426412e+00
-3.3212282e+00
-3.2813439e+00
-3.0026870e+00
-2.7496051e+00
-2.4672527e+00
-1.9968169e+00
-1.2447319e+00
-1.7759340e-01
1.2054927e+00
2.8337499e+00
4.3744472e+00
5.1339769e+00
4.4435801e+00
2.2929199e+00
-4.2375494e-01
-2.5487068e+00
-3.5147729e+00
-3.3992670e+00
-2.5636397e+00
-1.4114826e+00
-2.4687190e-01
7.9649160e-01
1.6912869e+00
2.3213583e+00
2.3816834e+00
1.5845181e+00
1.2416253e-01
-1.2818984e+00
-1.9963427e+00
-1.8476445e+00
-1.0505447e+00
-6.3559543e-02
5.5893779e-01
4.8850903e-01
-6.9644934e-02
-5.7411254e-01
-6.2994980e-01
-1.6701637e-01
6.0010968e-01
1.2444500e+00
1.3740669e+00
9.6116613e-01
3.4051073e-01
-1.7336905e-01
-4.8122440e-01
-5.6078822e-01
-4.0483250e-01
-1.1785395e-01
-1.1280916e-02
-1.3109670e-01
-3.0692074e-02
4.5027510e-01
8.8694856e-01
7.5342988e-01
3.0831721e-03
-8.6584103e-01
-1.3679663e+00
-1.3734115e+00
-1.0478145e+00
-6.8591728e-01
-5.2513792e-01
-6.1735749e-01
-8.1428469e-01
-8.9478589e-01
-7.0915444e-01
-1.8382710e-01
6.6384163e-01
1.6267099e+00
2.2716970e+00
2.2000660e+00
1.4347477e+00
4.4862804e-01
-1.6960605e-01
-5.5192858e-02
7.0476930e-01
1.4727645e+00
1.4250841e+00
3.6518698e-01
-1.0232174e+00
-1.9428955e+00
-2.1225890e+00
-1.6947147e+00
-9.4296256e-01
-2.2198111e-01
1.2710899e-01
-2.2564720e-02
-4.6774201e-01
-9.2206286e-01
-1.2357679e+00
-1.3393267e+00
-1.1331798e+00
-4.4234766e-01
8.3986883e-01
2.5415818e+00
3.9642259e+00
4.0897913e+00
2.5500399e+00
1.5426218e-01
-1.8740953e+00
-2.9294708e+00
-3.0578273e+00
-2.4725948e+00
-1.3169974e+00
3.2927192e-01
2.1984386e+00
3.5950245e+00
3.7698308e+00
2.6166523e+00
7.6365729e-01
-1.0002428e+00
-2.2230926e+00
-2.7680523e+00
-2.6831718e+00
-2.1828176e+00
-1.5694370e+00
-1.0925351e+00
-8.4351730e-01
-7.6255628e-01
-6.5516043e-01
-2.2569330e-01
7.5756300e-01
2.3154125e+00
4.0172501e+00
4.8889176e+00
4.0554926e+00
1.6866585e+00
-9.9089623e-01
-2.8061891e+00
-3.3561379e+00
-2.8134357e+00
-1.5997143e+00
-1.7532300e-01
1.0213050e+00
1.5828145e+00
1.3226461e+00
4.5112659e-01
-5.6151863e-01
-1.3323196e+00
-1.7440988e+00
-1.8368631e+00
-1.6888031e+00
-1.3556284e+00
-8.4302184e-01
-1.4472267e-01
7.2396745e-01
1.7173600e+00
2.6344850e+00
3.0213500e+00
2.4623125e+00
1.0896133e+00
-3.8315986e-01
-1.2611380e+00
-1.2892690e+00
-5.7854950e-01
4.7473027e-01
1.2229390e+00
1.1287926e+00
2.9478046e-01
-6.4724423e-01
-1.2193238e+00
-1.3796381e+00
-1.3191901e+00
-1.2299908e+00
-1.1952627e+00
-1.2179265e+00
-1.2811372e+00
-1.3428414e+00
-1.3207636e+00
-1.1172240e+00
-6.3419441e-01
1.8443924e-01
1.2376678e+00
2.2208816e+00
2.7876077e+00
2.7564059e+00
2.1627403e+00
1.2686254e+00
5.0672312e-01
-1.4627155e-02
-6.5579602e-01
-1.4300318e+00
-1.7580032e+00
-1.1430441e+00
4.3530353e-01
2.4411182e+00
3.7622881e+00
3.3614593e+00
1.3872628e+00
-9.1325519e-01
-2.4726851e+00
-2.9990862e+00
-2.6526029e+00
-1.7680614e+00
-7.3559596e-01
1.0542252e-01
5.5710815e-01
6.0102657e-01
3.7218049e-01
6.3946013e-02
-2.4808483e-01
-6.5262604e-01
-1.2308648e+00
-1.8459503e+00
-2.1802905e+00
-1.9988608e+00
-1.2708457e+00
-6.8798431e-02
1.5234901e+00
3.3145033e+00
4.6729203e+00
4.6578131e+00
3.0009642e+00
5.3917282e-01
-1.6332987e+00
-2.9722870e+00
-3.4187075e+00
-3.0794840e+00
-2.1049827e+00
-6.1512045e-01
1.2750585e+00
3.1200961e+00
4.0068610e+00
3.2539035e+00
1.2857314e+00
-6.9738548e-01
-1.8646087e+00
-2.1202025e+00
-1.7687978e+00
-1.2727137e+00
-1.0190169e+00
-1.0046462e+00
-9.2009873e-01
-5.5523277e-01
1.3097043e-02
4.1571210e-01
2.3342035e-01
-5.0187227e-01
-1.2832742e+00
-1.6350386e+00
-1.3671665e+00
-4.7154447e-01
9.7810413e-01
2.7803641e+00
4.4857379e+00
5.3860020e+00
4.8740465e+00
2.9836096e+00
5.0173726e-01
-1.5995403e+00
-2.8082513e+00
-3.1117184e+00
-2.7503252e+00
-2.1080181e+00
-1.5861885e+00
-1.4025921e+00
-1.4552875e+00
-1.4222373e+00
-1.0756249e+00
-4.4567403e-01
2.7078534e-01
8.8338001e-01
1.2668149e+00
1.3371174e+00
1.1411481e+00
8.9366177e-01
7.4422943e-01
5.9567519e-01
3.0689767e-01
-6.2330471e-02
-2.8985223e-01
-1.9577134e-01
1.7399452e-01
4.5608339e-01
2.2696194e-01
-5.5618276e-01
-1.5555215e+00
-2.3463179e+00
-2.6303721e+00
-2.2898257e+00
-1.3153922e+00
2.2420685e-01
2.1066108e+00
3.8163084e+00
4.6603572e+00
4.2545153e+00
2.8132016e+00
9.6578310e-01
-6.7960837e-01
-1.8147446e+00
-2.3793514e+00
-2.4430620e+00
-2.1269489e+00
-1.5786427e+00
-9.5044733e-01
-3.6045201e-01
1.1512145e-01
4.4040782e-01
6.3434921e-01
7.5546960e-01
7.8889380e-01
6.2615465e-01
2.3774899e-01
-2.2164248e-01
-5.6656801e-01
-8.1555965e-01
-1.0214254e+00
-1.0406971e+00
-7.7580873e-01
-3.0854048e-01
1.9210984e-01
5.1048631e-01
4.6396921e-01
2.3455678e-02
-6.1463714e-01
-1.0745551e+00
-9.7298740e-01
-1.2225127e-01
1.4278396e+00
3.2628395e+00
4.4459789e+00
4.0328264e+00
2.0349896e+00
-4.8762689e-01
-2.4514047e+00
-3.4525262e+00
-3.6068527e+00
-3.2133628e+00
-2.5201538e+00
-1.6154196e+00
-4.5890400e-01
1.0075814e+00
2.6553369e+00
3.8837702e+00
3.8960672e+00
2.5757744e+00
6.2621386e-01
-1.1513129e+00
-2.3910362e+00
-3.0856813e+00
-3.2519239e+00
-2.8619954e+00
-1.9667536e+00
-6.8006872e-01
9.0062274e-01
2.4681301e+00
3.2665585e+00
2.6762765e+00
1.1121179e+00
-3.2038864e-01
-8.6833603e-01
-3.5189332e-01
1.0395479e+00
2.4925521e+00
2.7265880e+00
1.3322516e+00
-6.7899152e-01
-2.0927209e+00
-2.5042396e+00
-2.1604468e+00
-1.4804568e+00
-7.8905840e-01
-2.8842392e-01
-1.5772044e-01
-4.8342818e-01
-1.0526585e+00
-1.4380630e+00
-1.3133552e+00
-5.5578216e-01
8.1177409e-01
2.5996739e+00
4.1493908e+00
4.4362225e+00
3.1238594e+00
1.0616435e+00
-6.1922481e-01
-1.4323343e+00
-1.5436226e+00
-1.3768303e+00
-1.2908582e+00
-1.3358255e+00
-1.3098775e+00
-1.0716768e+00
-6.6678931e-01
-2.8602245e-01
-1.4452282e-01
-3.0815600e-01
-6.4410244e-01
-9.5461684e-01
-1.1167540e+00
-1.0863354e+00
-8.2425525e-01
-2.7010192e-01
5.8894296e-01
1.6742543e+00
2.7230110e+00
3.3024588e+00
3.1332338e+00
2.3837718e+00
1.5095903e+00
7.5073704e-01
-3.9938499e-02
-1.0011512e+00
-1.9061773e+00
-2.3993427e+00
-2.3705853e+00
-1.9595975e+00
-1.4281893e+00
-1.0456849e+00
-9.5263427e-01
-1.0888933e+00
-1.2662258e+00
-1.3351025e+00
-1.2359792e+00
-9.1627508e-01
-2.6931671e-01
8.5660026e-01
2.5219591e+00
4.4003324e+00
5.6158424e+00
5.2553131e+00
3.2600961e+00
5.9054579e-01
-1.6021112e+00
-2.7452552e+00
-2.8696055e+00
-2.3525861e+00
-1.6951287e+00
-1.2707816e+00
-1.1679208e+00
-1.2291737e+00
-1.1910583e+00
-8.4638903e-01
-2.0032493e-01
6.1228553e-01
1.4399819e+00
1.9745944e+00
1.8262190e+00
8.9805813e-01
-3.6683516e-01
-1.2581646e+00
-1.3593853e+00
-6.8662031e-01
4.9314154e-01
1.7759373e+00
2.6249811e+00
2.5118145e+00
1.3750876e+00
-2.2052322e-01
-1.5945453e+00
-2.4058505e+00
-2.6423621e+00
-2.4500330e+00
-2.0129448e+00
-1.4994672e+00
-1.0015483e+00
-4.8505597e-01
1.4316541e-01
9.2443013e-01
1.7985368e+00
2.5951700e+00
3.0623765e+00
2.9656087e+00
2.2327571e+00
1.0098970e+00
-3.8220048e-01
-1.5532860e+00
-2.2147050e+00
-2.2880998e+00
-1.9177043e+00
-1.4085292e+00
-1.0247762e+00
-7.7792540e-01
-4.5237751e-01
1.9850371e-01
1.2554458e+00
2.4440794e+00
3.1001643e+00
2.6487186e+00
1.2751113e+00
-2.4029248e-01
-1.2962564e+00
-1.7586595e+00
-1.7891991e+00
-1.6699468e+00
-1.6498559e+00
-1.7892691e+00
-1.9284157e+00
-1.8622002e+00
-1.4769420e+00
-7.0507703e-01
5.2105058e-01
2.1999720e+00
3.9809103e+00
5.0085776e+00
4.4701208e+00
2.4337985e+00
-5.4261191e-02
-1.8603230e+00
-2.5200816e+00
-2.1552299e+00
-1.3230994e+00
-8.6907380e-01
-1.2442556e+00
-2.0442199e+00
-2.4941885e+00
-2.1438249e+00
-9.8561690e-01
7.7768080e-01
2.8097650e+00
4.4743475e+00
4.9894075e+00
4.0607726e+00
2.1395785e+00
-2.2463461e-02
-1.8393089e+00
-2.9672640e+00
-3.2672550e+00
-2.8054741e+00
-1.8187069e+00
-6.6070784e-01
2.7215704e-01
7.3260005e-01
7.8440709e-01
6.6162669e-01
5.3748033e-01
4.9536399e-01
6.1199172e-01
8.8755465e-01
1.0873309e+00
8.4366491e-01
8.6957475e-02
-7.8643639e-01
-1.3470956e+00
-1.4818285e+00
-1.3376896e+00
-1.1157271e+00
-9.2747561e-01
-7.8667509e-01
-6.1745141e-01
-2.8402722e-01
3.2404873e-01
1.2094181e+00
2.1689116e+00
2.7483064e+00
2.4719697e+00
1.2840902e+00
-2.5239837e-01
-1.3922428e+00
-1.8101599e+00
-1.6929665e+00
-1.4486110e+00
-1.3165328e+00
-1.2115238e+00
-9.2385319e-01
-3.1955063e-01
5.8741641e-01
1.5677847e+00
2.2182803e+00
2.2553474e+00
1.7265220e+00
8.9238624e-01
-2.6644831e-02
-9.0272848e-01
-1.5267737e+00
-1.6673829e+00
-1.2899278e+00
-5.9054553e-01
1.0066141e-01
4.7265412e-01
4.0919825e-01
1.0204612e-01
-7.6909052e-02
1.1687507e-01
6.5116930e-01
1.2491426e+00
1.5051201e+00
1.1445280e+00
2.9226488e-01
-6.0002757e-01
-1.1496902e+00
-1.2737216e+00
-1.1074298e+00
-8.5936614e-01
-6.9118833e-01
-6.4759882e-01
-6.8688222e-01
-7.3944582e-01
-7.4749689e-01
-6.8169013e-01
-5.4046883e-01
-3.0579506e-01
1.0278217e-01
7.5838656e-01
1.6032342e+00
2.3465444e+00
2.6332917e+00
2.4121972e+00
1.9103026e+00
1.2795171e+00
4.6512667e-01
-6.3737386e-01
-1.9132221e+00
-2.9503424e+00
-3.3491154e+00
-2.9776072e+00
-1.9321695e+00
-4.2145144e-01
1.2830310e+00
2.7278408e+00
3.2216634e+00
2.3520377e+00
5.6017598e-01
-1.2174508e+00
-2.3522821e+00
-2.7274575e+00
-2.4572144e+00
-1.6809850e+00
-5.2807042e-01
8.4905845e-01
2.2613141e+00
3.4461097e+00
4.0078412e+00
3.5368451e+00
2.0354038e+00
1.1999348e-01
-1.4587739e+00
-2.2933714e+00
-2.3393367e+00
-1.8190264e+00
-1.0553499e+00
-3.4769782e-01
5.2577265e-02
6.9771673e-02
-1.4894506e-01
-3.9783637e-01
-6.1788874e-01
-8.7011138e-01
-1.1640831e+00
-1.3869447e+00
-1.3805693e+00
-1.0633263e+00
-4.1714008e-01
5.7483125e-01
1.8974325e+00
3.3800390e+00
4.5507536e+00
4.6966734e+00
3.4094834e+00
1.1246645e+00
-1.2156279e+00
-2.9390108e+00
-3.8734939e+00
-4.1562313e+00
-4.0148105e+00
-3.6029534e+00
-2.9670333e+00
-2.0784283e+00
-8.5799795e-01
7.4147674e-01
2.5289175e+00
3.9871031e+00
4.6072836e+00
4.2938036e+00
3.2582308e+00
1.7563399e+00
9.8444035e-02
-1.2277699e+00
-1.6536220e+00
-9.3697782e-01
5.6625600e-01
1.8769366e+00
1.9889002e+00
8.8901013e-01
-5.4721469e-01
-1.5728452e+00
-1.9807290e+00
-1.9360993e+00
-1.7143661e+00
-1.4522434e+00
-1.1358039e+00
-7.7246236e-01
-4.3972816e-01
-1.9140457e-01
-5.9965998e-02
-6.4297396e-02
-1.8015717e-01
-3.4857868e-01
-5.1568357e-01
-6.3706630e-01
-7.0398882e-01
-6.9972966e-01
-4.3202407e-01
3.4879218e-01
1.6697217e+00
3.1650591e+00
4.1256221e+00
3.9024997e+00
2.4104977e+00
3.0639354e-01
-1.5022037e+00
-2.5306831e+00
-2.7992195e+00
-2.5662176e+00
-2.0973935e+00
-1.5501695e+00
-1.0000244e+00
-4.7344234e-01
1.5323539e-02
3.8971581e-01
4.9797316e-01
2.5162715e-01
-2.1092978e-01
-5.5954041e-01
-4.9777299e-01
6.6027713e-02
1.0290164e+00
2.1510631e+00
3.0932335e+00
3.4864012e+00
3.0885801e+00
1.9409976e+00
3.8816410e-01
-1.0895195e+00
-2.1455321e+00
-2.6671102e+00
-2.7009482e+00
-2.3817344e+00
-1.8649668e+00
-1.2849608e+00
-7.4648426e-01
-2.7614368e-01
1.9306245e-01
7.0788234e-01
1.1547812e+00
1.2714742e+00
8.4558549e-01
-5.4220433e-02
-1.0840661e+00
-1.8414391e+00
-2.0441085e+00
-1.5943932e+00
-5.2207881e-01
1.0514526e+00
2.8217401e+00
4.2006579e+00
4.5552619e+00
3.6685872e+00
1.8657021e+00
-1.7629018e-01
-1.7861723e+00
-2.6092823e+00
-2.6201915e+00
-2.0045564e+00
-1.0617435e+00
-2.1141927e-01
1.1996951e-01
-1.0404232e-01
-4.8600036e-01
-6.4688818e-01
-5.2521347e-01
-2.7778696e-01
-6.9132389e-02
3.5836470e-02
8.8138074e-02
1.8637421e-01
3.5277792e-01
4.8250184e-01
4.5582039e-01
2.7528168e-01
6.9995790e-02
-6.8775989e-02
-2.0120162e-01
-3.8060838e-01
-4.6251404e-01
-1.8544717e-01
6.0223450e-01
1.6851718e+00
2.3460933e+00
1.8967709e+00
5.4227187e-01
-8.0135911e-01
-1.5156794e+00
-1.5919758e+00
-1.3187190e+00
-1.0483325e+00
-1.0194091e+00
-1.2371313e+00
-1.5408915e+00
-1.7335632e+00
-1.6493446e+00
-1.1731209e+00
-2.1479637e-01
1.2714192e+00
3.1682771e+00
4.8498168e+00
5.2259368e+00
3.7227956e+00
1.0484235e+00
-1.4123473e+00
-2.7816849e+00
-2.9761429e+00
-2.3600866e+00
-1.4991483e+00
-8.6885596e-01
-5.5237473e-01
-2.5377243e-01
3.6332693e-01
1.2993625e+00
2.0772059e+00
2.0606951e+00
1.1286621e+00
-1.2998017e-01
-1.0177631e+00
-1.2606671e+00
-9.6824821e-01
-3.8822392e-01
1.5260511e-01
3.2810301e-01
8.6142418e-02
-2.7353569e-01
-3.9056019e-01
-1.4786877e-01
2.8765134e-01
6.4361771e-01
7.1439823e-01
4.5276466e-01
-4.9107923e-03
-4.5903964e-01
-7.8042619e-01
-9.1293988e-01
-8.3953430e-01
-6.1349114e-01
-3.7853713e-01
-2.6589200e-01
-3.0172572e-01
-4.6238199e-01
-7.0888896e-01
-9.6232697e-01
-1.1022765e+00
-1.0109122e+00
-6.3060887e-01
5.8601620e-02
1.0223616e+00
2.0648446e+00
2.8458329e+00
3.1173331e+00
2.8335816e+00
2.0060419e+00
7.4303700e-01
-5.9483766e-01
-1.5584523e+00
-1.9396574e+00
-1.8529316e+00
-1.5459881e+00
-1.1762791e+00
-7.6027505e-01
-2.8967505e-01
2.1130772e-01
7.1464224e-01
1.1405894e+00
1.3000693e+00
1.0352743e+00
4.2757571e-01
-2.5050121e-01
-7.7466740e-01
-1.0739345e+00
-1.1613205e+00
-1.0667825e+00
-8.2792239e-01
-5.0084907e-01
-1.5859609e-01
1.3976049e-01
4.0150141e-01
7.3778016e-01
1.2583816e+00
1.8066686e+00
1.8835884e+00
1.1306258e+00
-1.2157988e-01
-1.1550992e+00
-1.5681981e+00
-1.4209600e+00
-1.0158336e+00
-6.9476555e-01
-6.5636762e-01
-8.3767773e-01
-9.7835372e-01
-8.4978016e-01
-3.7019825e-01
4.4677861e-01
1.4757765e+00
2.3742784e+00
2.6177941e+00
1.8730168e+00
4.4122131e-01
-9.0444768e-01
-1.5562371e+00
-1.4061250e+00
-8.6500494e-01
-5.4986221e-01
-5.9393513e-01
-5.2751623e-01
1.1961839e-01
1.4285353e+00
2.8307621e+00
3.2462906e+00
2.1886900e+00
3.6373436e-01
-1.1882582e+00
-2.0253168e+00
-2.2884759e+00
-2.2540119e+00
-2.0686899e+00
-1.7517444e+00
-1.2793466e+00
-6.3085109e-01
1.7196464e-01
1.0347222e+00
1.7404065e+00
2.0744061e+00
2.0518764e+00
1.8489321e+00
1.4815313e+00
7.0508687e-01
-5.9110297e-01
-2.0346918e+00
-3.0546182e+00
-3.3527343e+00
-2.9529926e+00
-2.0005745e+00
-5.9003658e-01
1.2456869e+00
3.3464773e+00
5.0230005e+00
5.2217574e+00
3.6549321e+00
1.2419649e+00
-8.8152350e-01
-2.2250886e+00
-2.7759399e+00
-2.6380353e+00
-1.9516917e+00
-9.0241267e-01
2.2272939e-01
1.0165561e+00
1.0349001e+00
2.1201199e-01
-8.3294655e-01
-1.3639073e+00
-1.1262349e+00
-3.9859758e-01
1.5169248e-01
-2.5538281e-02
-8.0617362e-01
-1.5645664e+00
-1.7885478e+00
-1.3115705e+00
-1.7544250e-01
1.3648020e+00
2.7223653e+00
3.2577943e+00
2.8086825e+00
1.8000411e+00
7.7507013e-01
-2.6191481e-02
-6.3889295e-01
-1.0536035e+00
-1.0286967e+00
-3.7860587e-01
6.9957344e-01
1.5547557e+00
1.4999086e+00
5.2671493e-01
-7.4781132e-01
-1.7285116e+00
-2.1716123e+00
-2.2125749e+00
-2.1712202e+00
-2.1779619e+00
-2.0739431e+00
-1.6360615e+00
-7.7901244e-01
4.6659134e-01
2.0245793e+00
3.6586896e+00
4.6662311e+00
4.1394169e+00
2.1238535e+00
-1.9019276e-01
-1.7384853e+00
-2.2589310e+00
-1.9522937e+00
-1.1358270e+00
-1.2200822e-01
7.4232656e-01
1.0985891e+00
8.4878942e-01
2.8756591e-01
-2.0335618e-01
-4.8201371e-01
-6.8292966e-01
-9.7968841e-01
-1.3212423e+00
-1.4868860e+00
-1.3069395e+00
-7.7291549e-01
2.9851369e-02
9.4630241e-01
1.7268426e+00
2.0359822e+00
1.6096966e+00
6.0335901e-01
-4.6853164e-01
-1.2177562e+00
-1.5622753e+00
-1.5598591e+00
-1.2985040e+00
-8.7109058e-01
-3.2701925e-01
3.5983251e-01
1.2243753e+00
2.2220858e+00
3.0638324e+00
3.2202807e+00
2.3757458e+00
8.0831639e-01
-7.9006912e-01
-1.8567758e+00
-2.2839866e+00
-2.2600302e+00
-2.0051243e+00
-1.6963603e+00
-1.4251948e+00
-1.1904758e+00
-9.6309701e-01
-7.6425445e-01
-6.3554770e-01
-5.2315126e-01
-2.7148632e-01
2.5450446e-01
1.0654722e+00
2.0319989e+00
2.8936720e+00
3.3907980e+00
3.3973321e+00
2.8399714e+00
1.6370131e+00
-5.3641558e-02
-1.6888487e+00
-2.7143604e+00
-2.9543516e+00
-2.6100923e+00
-2.0915803e+00
-1.7443071e+00
-1.5100834e+00
-1.0095512e+00
1.4676114e-02
1.4967472e+00
2.9272303e+00
3.4331462e+00
2.5629723e+00
8.7250512e-01
-6.5981271e-01
-1.5123758e+00
-1.6847836e+00
-1.3712689e+00
-7.8806595e-01
-1.0701037e-01
5.0603044e-01
9.1013561e-01
1.0601197e+00
9.4539530e-01
4.8889149e-01
-1.3105407e-01
-4.4472845e-01
-4.2090701e-01
-5.6291608e-01
-1.1901429e+00
-1.9954689e+00
-2.4160733e+00
-2.1724978e+00
-1.2753210e+00
1.7810673e-01
2.0377097e+00
3.8958113e+00
4.8953491e+00
4.2724928e+00
2.3212861e+00
1.5187777e-01
-1.4285893e+00
-2.2136461e+00
-2.2517826e+00
-1.6931486e+00
-8.0157646e-01
-3.6599376e-03
2.6757861e-01
-5.1834234e-02
-6.2763679e-01
-1.0670144e+00
-1.1514827e+00
-9.3056436e-01
-7.8565885e-01
-1.0786861e+00
-1.5807236e+00
-1.7013817e+00
-1.1259072e+00
9.9970351e-02
1.7664168e+00
3.4547305e+00
4.3511041e+00
3.6758590e+00
1.5995812e+00
-7.7713816e-01
-2.4427013e+00
-3.0258846e+00
-2.5566549e+00
-1.1960250e+00
8.1300560e-01
2.9518095e+00
4.2759617e+00
3.9242078e+00
1.9609741e+00
-5.8245142e-01
-2.6050140e+00
-3.6135570e+00
-3.6798086e+00
-3.1909197e+00
-2.5804937e+00
-2.0276296e+00
-1.4355839e+00
-6.1483254e-01
6.0145354e-01
2.2764777e+00
4.1072146e+00
5.1755283e+00
4.6287860e+00
2.6947493e+00
4.3131285e-01
-1.3023288e+00
-2.2649600e+00
-2.5683655e+00
-2.3977224e+00
-1.8926513e+00
-1.1325292e+00
-3.4784652e-01
1.4523241e-02
-2.4431850e-01
-7.3007254e-01
-8.3205633e-01
-2.0172613e-01
1.1597517e+00
2.8115710e+00
3.7643833e+00
3.1461127e+00
1.2471623e+00
-7.8199216e-01
-2.1141402e+00
-2.6233437e+00
-2.5993202e+00
-2.4238600e+00
-2.3083728e+00
-2.2036356e+00
-1.9128859e+00
-1.2816077e+00
-2.6290752e-01
1.1536594e+00
2.9256228e+00
4.7488192e+00
5.8776729e+00
5.4987609e+00
3.5271118e+00
8.2893440e-01
-1.4783816e+00
-2.7807858e+00
-3.0808718e+00
-2.8099740e+00
-2.5863459e+00
-2.7464939e+00
-3.0814089e+00
-3.1773199e+00
-2.8122245e+00
-1.9908727e+00
-8.1312115e-01
6.5854124e-01
2.3995687e+00
4.1469184e+00
5.2954454e+00
5.3559114e+00
4.3014214e+00
2.4235469e+00
2.3423040e-01
-1.6026898e+00
-2.6179854e+00
-2.7383619e+00
-2.1491533e+00
-1.1338101e+00
-7.3251176e-02
6.0700391e-01
6.8764061e-01
2.5282497e-01
-4.7642374e-01
