3.5774433e-02
1.3252422e-01
2.6740244e-01
4.0881308e-01
5.1751784e-01
5.7696614e-01
6.1361208e-01
6.6364884e-01
6.9734967e-01
6.4544247e-01
4.6377061e-01
1.7656310e-01
-1.2736395e-01
-3.5683980e-01
-4.6274799e-01
-4.5415383e-01
-3.8253038e-01
-2.9644999e-01
-2.2154611e-01
-1.7787142e-01
-1.6808519e-01
-1.6174891e-01
-1.2875486e-01
-7.0276592e-02
-3.1661459e-02
-6.9366703e-02
-1.7309841e-01
-2.7379930e-01
-3.3579268e-01
-3.3602692e-01
-2.1945970e-01
2.3354107e-02
3.3361959e-01
6.2174273e-01
7.9983059e-01
8.2655200e-01
7.2853777e-01
5.7640010e-01
4.0383313e-01
1.8850978e-01
-5.2187175e-02
-2.4892519e-01
-3.6686863e-01
-4.0299294e-01
-3.6329995e-01
-2.7963172e-01
-1.9215188e-01
-1.2631006e-01
-9.9275553e-02
-1.1950910e-01
-1.6436924e-01
-1.9746712e-01
-2.0991620e-01
-2.1488873e-01
-2.2722530e-01
-2.5507673e-01
-2.8046632e-01
-2.5953919e-01
-1.5677337e-01
-5.1694856e-02
-2.4784264e-02
3.1579279e-02
2.0747585e-01
4.3916228e-01
6.2283993e-01
7.0886644e-01
7.1950440e-01
6.6702818e-01
5.1271494e-01
2.5137675e-01
-4.8040931e-02
-2.8750289e-01
-4.1054037e-01
-4.4705911e-01
-4.6093976e-01
-4.8010175e-01
-4.8966023e-01
-4.7271529e-01
-4.2768110e-01
-3.5768388e-01
-2.7246076e-01
-1.5445882e-01
3.4635608e-02
2.7960979e-01
4.7966505e-01
5.1794574e-01
3.8987908e-01
2.0444885e-01
6.8961281e-02
-1.4776519e-02
-4.8569875e-02
6.5216404e-02
3.1945736e-01
5.5424673e-01
6.4676037e-01
5.6116137e-01
3.1440485e-01
-4.5400879e-03
-2.7082255e-01
-4.4521149e-01
-5.3965327e-01
-5.4249100e-01
-4.7141373e-01
-3.7406670e-01
-3.0100522e-01
-2.7912029e-01
-2.7645663e-01
-2.3068728e-01
-9.7204197e-02
3.5817428e-02
3.3723852e-02
-6.4751071e-02
-1.5680637e-01
-1.7416367e-01
-6.4478292e-02
1.4202910e-01
3.4296634e-01
4.7000780e-01
5.2118107e-01
5.1853195e-01
5.1542021e-01
5.6069762e-01
6.0461217e-01
5.5210860e-01
3.6423942e-01
7.1579911e-02
-2.4140439e-01
-4.9109547e-01
-6.1600251e-01
-5.7765287e-01
-4.4386890e-01
-3.2809920e-01
-2.4193183e-01
-1.6334642e-01
-9.8496490e-02
-5.5049004e-02
-3.2473628e-02
-2.1263790e-02
-2.7083057e-02
-7.0083713e-02
-1.4906491e-01
-2.1894479e-01
-2.1757849e-01
-1.1075390e-01
1.0297761e-01
3.8490212e-01
6.2611483e-01
7.0484752e-01
6.1223155e-01
4.5283191e-01
2.6373822e-01
1.9147652e-02
-2.2591147e-01
-4.0964421e-01
-5.0655454e-01
-5.1521683e-01
-4.7699816e-01
-4.2239256e-01
-3.5453825e-01
-2.6203121e-01
-1.2835940e-01
4.7990020e-02
2.7603599e-01
5.4063517e-01
7.4060814e-01
7.4960696e-01
5.4362361e-01
2.2506874e-01
-7.8996110e-02
-2.9301377e-01
-4.1830110e-01
-4.9507741e-01
-5.3096021e-01
-5.1288168e-01
-4.3562421e-01
-3.2865585e-01
-2.2215857e-01
-7.7323238e-02
1.4755565e-01
4.3129628e-01
6.8141677e-01
7.6169351e-01
6.0598411e-01
2.7963499e-01
-5.5051129e-02
-2.8613446e-01
-4.3607395e-01
-5.2304383e-01
-5.1762672e-01
-3.9044417e-01
-1.7100488e-01
2.2338350e-02
1.2206961e-01
1.7816165e-01
2.8250557e-01
4.5464310e-01
5.8188860e-01
5.2614650e-01
2.9766672e-01
6.1402437e-02
-8.5735373e-02
-1.8869975e-01
-2.9886992e-01
-4.2145319e-01
-5.2767731e-01
-5.6474325e-01
-4.9616439e-01
-3.2940336e-01
-6.6193490e-02
2.6098631e-01
5.4621305e-01
6.8376458e-01
6.0512537e-01
3.3188779e-01
1.5165938e-02
-1.7583428e-01
-1.8139692e-01
-7.1346625e-02
1.6374032e-02
5.7994235e-03
-7.5812305e-02
-1.7513094e-01
-2.6737626e-01
-3.1289040e-01
-2.4598480e-01
-5.1808929e-02
2.0298461e-01
3.8668197e-01
3.7731161e-01
1.8852192e-01
-2.9985391e-02
-1.6480526e-01
-2.2691505e-01
-2.6834903e-01
-2.7642813e-01
-1.9823862e-01
-5.1701885e-02
5.0317876e-02
2.4787812e-02
-7.1346872e-02
-1.0939864e-01
-2.5749808e-02
1.4524936e-01
3.3413272e-01
4.7581572e-01
5.3241003e-01
4.9094168e-01
3.4014425e-01
7.7038311e-02
-2.2547369e-01
-4.3811869e-01
-5.0701230e-01
-4.7288798e-01
-3.9288266e-01
-2.8488214e-01
-1.4110055e-01
2.7444287e-02
1.7168262e-01
2.6310305e-01
3.3152056e-01
4.0921190e-01
4.8124068e-01
4.8998690e-01
3.6653962e-01
1.0634337e-01
-1.9471176e-01
-4.2510208e-01
-5.7278688e-01
-6.8125845e-01
-7.0711445e-01
-5.9738769e-01
-3.6551829e-01
-7.4515050e-02
1.9684749e-01
4.0663294e-01
5.4846263e-01
6.4250613e-01
6.7547435e-01
6.1669349e-01
4.6663262e-01
2.7454833e-01
1.2570843e-01
1.7651734e-02
-1.2651321e-01
-3.1332526e-01
-4.6967651e-01
-5.2166277e-01
-4.5626797e-01
-3.3671237e-01
-2.4526934e-01
-1.9323752e-01
-1.3377628e-01
-4.3331906e-02
6.2362454e-02
1.3435087e-01
1.2904376e-01
8.4546285e-02
9.6789678e-02
1.5697654e-01
1.3585680e-01
2.3902442e-02
-6.7899904e-02
-1.2630881e-01
-2.0077530e-01
-2.7791647e-01
-2.8579094e-01
-1.6461462e-01
7.0439002e-02
3.1175973e-01
4.2565419e-01
4.2446182e-01
4.4554737e-01
4.7681383e-01
3.7452116e-01
1.0829741e-01
-2.0403131e-01
-4.1011219e-01
-4.2823723e-01
-2.8247073e-01
-1.3769901e-01
-1.3659130e-01
-2.0540648e-01
-2.3393687e-01
-2.0442299e-01
-1.2352094e-01
2.7206104e-02
2.7185416e-01
5.3570773e-01
6.4134358e-01
4.7500741e-01
1.4024927e-01
-1.6193906e-01
-3.5162510e-01
-4.2883878e-01
-3.9563524e-01
-2.7730440e-01
-1.1334596e-01
8.2241310e-02
2.8794371e-01
4.0423553e-01
3.5594808e-01
2.0446747e-01
6.1907925e-02
-3.9662306e-02
-1.2467854e-01
-2.1592806e-01
-3.1902737e-01
-3.8884119e-01
-3.7774132e-01
-3.3324402e-01
-3.2546916e-01
-3.0808338e-01
-2.1491068e-01
-4.2590819e-02
1.8504756e-01
4.1190007e-01
5.9423172e-01
7.0757176e-01
6.9876784e-01
5.1157893e-01
1.9862320e-01
-7.5277216e-02
-2.1094959e-01
-2.1726480e-01
-1.6927735e-01
-2.0166348e-01
-3.4905601e-01
-4.8539736e-01
-5.1781114e-01
-4.4374101e-01
-2.8268450e-01
-5.1083898e-02
2.4854732e-01
5.7209031e-01
7.7887545e-01
7.2688058e-01
4.4675383e-01
1.2182689e-01
-7.6879667e-02
-1.4483054e-01
-1.9952849e-01
-2.7117437e-01
-3.0879817e-01
-2.9422398e-01
-2.3241934e-01
-1.3607830e-01
-5.0297770e-02
2.4875665e-04
5.2279610e-02
1.0874159e-01
1.0464902e-01
3.4152914e-02
-1.8866411e-02
-5.4949802e-03
5.4911070e-02
7.7408271e-02
-3.4133900e-02
-2.3079484e-01
-3.8220138e-01
-4.3414769e-01
-3.9250202e-01
-2.6625613e-01
-5.3524979e-02
2.3664804e-01
5.5788556e-01
8.1753465e-01
8.9676213e-01
7.2697903e-01
3.8737704e-01
6.2881213e-02
-1.4900968e-01
-2.9260864e-01
-4.1792144e-01
-5.1123705e-01
-5.4295041e-01
-5.2691161e-01
-5.0311435e-01
-4.5578876e-01
-3.3498768e-01
-1.4718023e-01
6.1487672e-02
2.7436534e-01
4.8829540e-01
6.7276453e-01
7.8445221e-01
7.6431193e-01
5.5767699e-01
2.1888389e-01
-1.0282503e-01
-3.1310062e-01
-4.3329725e-01
-5.1805392e-01
-5.6798341e-01
-5.7142331e-01
-5.3261684e-01
-4.5026550e-01
-3.4133819e-01
-2.3780948e-01
-1.1857894e-01
8.7670490e-02
3.7931696e-01
6.5931799e-01
8.3179381e-01
8.6250066e-01
7.9516008e-01
6.5969027e-01
4.1096584e-01
6.8749519e-02
-2.3752052e-01
-4.0842664e-01
-4.7083235e-01
-4.9222043e-01
-4.7529238e-01
-4.2089122e-01
-3.4551890e-01
-2.4640678e-01
-1.3720523e-01
-4.3768917e-02
3.9732966e-02
1.4782662e-01
2.6768370e-01
3.0787122e-01
2.1771385e-01
6.9228637e-02
-1.9339401e-02
8.7816171e-03
6.7344332e-02
1.5635558e-02
-1.3636734e-01
-2.7752510e-01
-3.6201110e-01
-4.0060383e-01
-3.8319870e-01
-2.8877242e-01
-1.1075054e-01
1.5373293e-01
4.5860442e-01
6.8850412e-01
7.7382056e-01
6.9948372e-01
4.7566979e-01
1.9270457e-01
-7.1036797e-02
-2.8473006e-01
-4.1928744e-01
-4.5615486e-01
-4.0375823e-01
-3.3616925e-01
-3.1952881e-01
-3.2112960e-01
-2.8885426e-01
-2.1176280e-01
-8.2915197e-02
1.0626739e-01
3.3646615e-01
5.5378145e-01
6.6410860e-01
5.7516930e-01
3.0228273e-01
-1.2640803e-02
-2.5620423e-01
-4.2032794e-01
-4.9850172e-01
-4.7671086e-01
-3.6979712e-01
-2.1324084e-01
-4.4224873e-02
1.1554361e-01
2.7671463e-01
4.2775136e-01
5.1609812e-01
5.3396524e-01
4.5154896e-01
2.4651422e-01
6.7712674e-03
-1.7670550e-01
-2.8895054e-01
-3.8650346e-01
-5.1423542e-01
-6.1968014e-01
-6.4850660e-01
-6.1257180e-01
-5.1824150e-01
-3.4618797e-01
-8.0717606e-02
2.8166077e-01
6.8904374e-01
1.0100661e+00
1.1239025e+00
1.0199812e+00
7.7518968e-01
4.5284958e-01
9.1261973e-02
-2.4044813e-01
-4.6997646e-01
-5.7222033e-01
-5.7814175e-01
-5.4223059e-01
-4.7992785e-01
-3.7210003e-01
-2.2397526e-01
-6.1557846e-02
9.4011648e-02
2.0111145e-01
1.9338576e-01
7.7158867e-02
-2.1283685e-02
-1.2815285e-02
5.9550306e-02
1.0080213e-01
7.7121190e-02
3.0965041e-02
-1.5969943e-02
-8.9912318e-02
-2.1141303e-01
-3.2718440e-01
-3.4359948e-01
-2.2656441e-01
4.0236703e-04
2.6819949e-01
5.0445536e-01
6.8433947e-01
7.4139468e-01
5.9195239e-01
2.7564242e-01
-6.2824768e-02
-2.9212924e-01
-3.7456911e-01
-3.8112557e-01
-4.0708213e-01
-4.5581567e-01
-4.8437205e-01
-4.6228990e-01
-3.6321071e-01
-1.8486389e-01
5.8137428e-02
3.4428164e-01
6.3743533e-01
8.2233823e-01
7.5795286e-01
4.8603248e-01
1.5105586e-01
-1.7064390e-01
-4.2610985e-01
-5.8124807e-01
-6.3129067e-01
-5.9008059e-01
-4.7478172e-01
-3.1006571e-01
-1.1655426e-01
1.2313882e-01
3.8479548e-01
5.8438631e-01
6.2559323e-01
4.6489618e-01
2.0347362e-01
2.2389162e-02
1.4339680e-02
8.4044016e-02
2.8393240e-02
-1.8136719e-01
-3.7567402e-01
-4.6194041e-01
-4.3980213e-01
-3.0737925e-01
-7.4439551e-02
2.3525255e-01
5.4235346e-01
6.9837586e-01
6.0156502e-01
3.2920612e-01
5.1701003e-02
-1.5367472e-01
-2.9172660e-01
-3.7388554e-01
-4.0449585e-01
-3.7850883e-01
-2.8960568e-01
-1.8621608e-01
-1.5562635e-01
-1.8841636e-01
-1.9362695e-01
-1.1250772e-01
6.8445912e-02
2.9516708e-01
4.4700221e-01
4.3792479e-01
3.0273465e-01
1.2157309e-01
-8.6639833e-02
-2.7691854e-01
-3.5767693e-01
-2.9595157e-01
-1.1832254e-01
1.1754227e-01
3.2573511e-01
4.2097653e-01
3.7233543e-01
2.3926936e-01
1.0031640e-01
1.7742134e-04
-1.5533762e-02
6.1173757e-02
1.4589365e-01
1.2575401e-01
-6.5090404e-03
-1.6191689e-01
-2.6785216e-01
-3.0619465e-01
-2.7532355e-01
-1.9980474e-01
-1.5416878e-01
-1.5282618e-01
-1.3623673e-01
-7.3436817e-02
2.0386157e-02
1.1204252e-01
1.8589423e-01
2.4363168e-01
2.5753310e-01
1.9047473e-01
6.0034675e-02
-7.7670023e-02
-1.7337103e-01
-2.1268845e-01
-2.2850941e-01
-2.4767319e-01
-2.4129363e-01
-1.8514196e-01
-1.1571011e-01
-5.1447179e-02
5.5515464e-02
2.3037201e-01
4.4027427e-01
5.9115518e-01
5.5069860e-01
3.1198197e-01
2.9860135e-02
-1.6262765e-01
-2.5479784e-01
-2.8211310e-01
-2.5767246e-01
-1.9418100e-01
-1.1538584e-01
-4.6102121e-02
-7.0184662e-03
8.4100158e-03
3.1644598e-02
8.1054904e-02
1.4971673e-01
1.7897821e-01
1.0372206e-01
-3.6502610e-02
-1.6027267e-01
-2.3868154e-01
-2.8040402e-01
-2.9893691e-01
-2.8678129e-01
-2.3691755e-01
-1.5989247e-01
-5.5665769e-02
7.2466379e-02
2.0495670e-01
3.5027676e-01
5.1866323e-01
6.1266805e-01
4.9724767e-01
2.1196295e-01
-6.9657509e-02
-2.2695804e-01
-2.6711386e-01
-2.6262438e-01
-2.2800201e-01
-1.4743303e-01
-3.0990146e-02
8.5906238e-02
1.2055109e-01
5.6589081e-02
8.4620178e-03
6.5217974e-02
1.6464768e-01
1.8032545e-01
8.9256294e-02
-5.3963321e-02
-1.8772713e-01
-2.5203723e-01
-2.5939643e-01
-2.8323127e-01
-3.4847992e-01
-4.1856222e-01
-4.4383776e-01
-3.8361198e-01
-2.0744215e-01
8.5763916e-02
4.5593775e-01
8.0489597e-01
9.7918006e-01
8.7838108e-01
5.8627263e-01
3.1144403e-01
1.0827931e-01
-1.1014742e-01
-3.2871401e-01
-4.7129012e-01
-5.0668550e-01
-4.3977972e-01
-3.0858571e-01
-1.7153864e-01
-7.0473141e-02
-6.3503267e-03
2.6989356e-02
2.4903498e-02
1.1578590e-02
3.2739358e-02
1.1168843e-01
2.3367653e-01
2.9277954e-01
1.9135558e-01
1.2486327e-02
-1.3063028e-01
-2.2281879e-01
-2.7110285e-01
-2.7236059e-01
-2.3229264e-01
-1.7418610e-01
-1.0747928e-01
-3.3083901e-02
2.9266603e-02
9.7986831e-02
2.5633720e-01
4.6292608e-01
5.3058049e-01
3.9300594e-01
1.3817589e-01
-9.8668410e-02
-2.2097912e-01
-2.4173177e-01
-2.4194979e-01
-2.7864986e-01
-3.3640597e-01
-3.7366217e-01
-3.6000719e-01
-2.6742119e-01
-7.1932559e-02
2.1579176e-01
5.3267078e-01
7.6431365e-01
7.6788025e-01
5.2388867e-01
1.8153221e-01
-1.2605129e-01
-3.4609784e-01
-4.6384126e-01
-4.9628287e-01
-4.7004825e-01
-3.9549530e-01
-2.7678826e-01
-1.3661294e-01
1.1454051e-02
1.9286804e-01
4.2026788e-01
6.0689779e-01
6.1182574e-01
4.0500029e-01
1.0609680e-01
-1.2997006e-01
-2.1456529e-01
-1.9171178e-01
-1.7795783e-01
-2.0737010e-01
-2.4723580e-01
-2.8372740e-01
-3.1560802e-01
-3.2767988e-01
-2.8808054e-01
-1.6788947e-01
3.0523212e-02
2.5433141e-01
4.0084879e-01
3.8432867e-01
2.4154620e-01
6.9577325e-02
-1.0575049e-01
-2.8803478e-01
-4.1827077e-01
-4.1013397e-01
-2.2968083e-01
3.8382862e-02
2.3142192e-01
3.2013826e-01
3.9483233e-01
4.6083154e-01
4.5812462e-01
3.6296151e-01
1.9441252e-01
2.0540175e-03
-1.4767985e-01
-2.0536147e-01
-1.4066789e-01
1.6967101e-02
1.6333825e-01
2.3553772e-01
1.9754294e-01
3.0916929e-02
-1.8506200e-01
-3.3710313e-01
-3.6473056e-01
-2.6994623e-01
-1.0781648e-01
3.8789778e-02
1.3437036e-01
1.9897173e-01
2.2694111e-01
1.8341230e-01
6.8167139e-02
-6.7234704e-02
-1.7184100e-01
-2.4272992e-01
-2.7849979e-01
-2.6537854e-01
-2.1261705e-01
-1.2286480e-01
-2.9522307e-03
1.2108886e-01
2.4073098e-01
3.4907831e-01
4.0568902e-01
3.7243247e-01
2.3933474e-01
3.7675134e-02
-1.5798962e-01
-3.0080197e-01
-3.8643034e-01
-4.1519507e-01
-4.0721673e-01
-3.9587861e-01
-3.7193675e-01
-2.8248461e-01
-9.9358553e-02
1.0232417e-01
2.4748172e-01
3.7394875e-01
4.6523156e-01
4.2935442e-01
2.5427054e-01
3.0155684e-02
-1.0509694e-01
-8.0406193e-02
4.1815670e-02
1.3556761e-01
1.7224412e-01
2.2943590e-01
2.9637735e-01
2.6716802e-01
8.3837335e-02
-2.0987994e-01
-4.8538901e-01
-6.3343595e-01
-6.3403449e-01
-5.0872343e-01
-2.6832106e-01
7.7519122e-02
4.4998938e-01
6.8512172e-01
6.4830269e-01
3.7519829e-01
5.6226578e-02
-1.6075648e-01
-2.6307915e-01
-2.8479943e-01
-2.4039946e-01
-1.2595666e-01
5.4234859e-02
2.5795277e-01
4.0895546e-01
4.3060688e-01
2.9721151e-01
8.7921298e-02
-7.9402185e-02
-1.6013452e-01
-1.8279926e-01
-1.9037698e-01
-2.0326697e-01
-2.3412682e-01
-2.8071299e-01
-3.3086553e-01
-3.8740035e-01
-4.1752283e-01
-3.5716548e-01
-2.0868185e-01
-1.5489501e-02
2.2152472e-01
4.8660572e-01
6.9640291e-01
7.2432693e-01
5.0342248e-01
1.6362326e-01
-8.0602925e-02
-1.4945195e-01
-1.1175254e-01
-9.6736941e-02
-1.6606512e-01
-2.7760548e-01
-3.7068488e-01
-3.8775152e-01
-2.9171347e-01
-9.4741929e-02
1.5819942e-01
4.2118945e-01
6.2065806e-01
6.5211573e-01
4.8519026e-01
2.1018060e-01
-4.3892195e-02
-2.1287248e-01
-3.0157815e-01
-3.3866116e-01
-3.4454881e-01
-3.1911009e-01
-2.8222926e-01
-2.6377381e-01
-2.5147745e-01
-2.2054383e-01
-1.7702155e-01
-1.4552670e-01
-1.4276111e-01
-1.5163812e-01
-1.1090904e-01
4.4486490e-02
3.3858828e-01
6.9794994e-01
9.4369046e-01
9.2964667e-01
6.4262711e-01
2.1757031e-01
-1.5803406e-01
-3.8507382e-01
-4.5636527e-01
-4.1310517e-01
-2.9358820e-01
-1.5387290e-01
-7.2926404e-02
-5.5565112e-02
-5.2019998e-02
-2.7644061e-02
8.1389037e-03
1.0252495e-02
-1.8806799e-02
-2.5892944e-02
-7.2684781e-04
1.7800074e-02
1.1127992e-02
-1.0699362e-02
-3.4541274e-02
-3.7243816e-02
-1.0269706e-02
6.0029450e-03
-1.2669626e-02
-3.1471384e-02
-2.7414005e-02
-1.7911983e-02
-1.1632036e-02
4.3379159e-03
4.1442685e-02
1.0878812e-01
1.6945844e-01
1.5985711e-01
9.2608028e-02
2.0980541e-02
-3.5377459e-02
-9.0043162e-02
-1.4846293e-01
-1.8521694e-01
-1.7946923e-01
-1.3084311e-01
-5.2853703e-02
1.8414273e-02
4.4488686e-02
2.4437433e-02
-1.7660589e-02
-5.1115978e-02
-3.6205451e-02
5.6079577e-02
2.0979399e-01
3.3419772e-01
3.1524393e-01
1.5256597e-01
-2.8804720e-02
-1.2146257e-01
-1.0090638e-01
-3.6153099e-02
-4.4481523e-02
-1.2780400e-01
-1.9184987e-01
-1.9554828e-01
-1.4649049e-01
-5.4117410e-02
5.2194872e-02
1.3096467e-01
1.8122261e-01
2.0207676e-01
1.6162596e-01
6.8904876e-02
-3.4265868e-02
-1.1374377e-01
-1.4823930e-01
-1.5551997e-01
-1.6037114e-01
-1.5495527e-01
-1.4194561e-01
-1.3416316e-01
-1.2627046e-01
-1.0217739e-01
-2.7299069e-02
1.3267967e-01
3.7164274e-01
5.9112893e-01
6.2127620e-01
4.1010772e-01
1.1720169e-01
-1.0843727e-01
-2.7035087e-01
-4.0168145e-01
-5.0814753e-01
-5.7446935e-01
-5.7109705e-01
-4.8075848e-01
-3.1226993e-01
-8.4355131e-02
2.0222184e-01
4.7401878e-01
5.7882429e-01
4.5816852e-01
1.8454743e-01
-7.9360546e-02
-1.6973953e-01
-6.4015180e-02
1.3981158e-01
2.9456727e-01
3.7686487e-01
4.7561487e-01
4.9872384e-01
3.1442765e-01
-9.2341554e-03
-3.1042091e-01
-4.8414850e-01
-5.1924665e-01
-4.3690215e-01
-2.6346403e-01
-2.9238042e-02
2.2617917e-01
4.2270974e-01
4.5994973e-01
3.2082060e-01
9.3621162e-02
-1.2203489e-01
-2.6324472e-01
-3.3824015e-01
-3.9914108e-01
-4.5383260e-01
-4.7893953e-01
-4.6080044e-01
-3.8374176e-01
-2.3170644e-01
-1.1964724e-02
2.5222650e-01
4.8899794e-01
5.7646636e-01
4.9231405e-01
3.8439662e-01
3.6325665e-01
3.3448061e-01
1.7183527e-01
-9.6856179e-02
-3.2744880e-01
-4.0526648e-01
-3.1990797e-01
-1.3929149e-01
4.7011922e-03
2.6192328e-03
-8.9123412e-02
-1.2425577e-01
-5.4654049e-02
7.2832863e-02
1.9378692e-01
2.6218536e-01
2.6486598e-01
2.1923134e-01
1.5904934e-01
1.0064626e-01
3.7977566e-02
-2.3980176e-02
-8.5339364e-02
-1.6633144e-01
-2.5393863e-01
-2.8970098e-01
-2.3372779e-01
-1.1963576e-01
-2.3144264e-02
7.5281279e-03
1.4261495e-03
3.4775928e-02
1.4539506e-01
2.9713747e-01
3.7523558e-01
2.9532245e-01
1.1317075e-01
-8.5659683e-02
-2.6926884e-01
-3.8840622e-01
-4.0343173e-01
-3.4545698e-01
-2.8640805e-01
-2.8796839e-01
-3.3212685e-01
-3.3102772e-01
-2.1741748e-01
3.0367009e-02
3.4169650e-01
5.2274760e-01
5.3433964e-01
5.6856337e-01
6.8266458e-01
7.4585168e-01
6.3329580e-01
3.4385345e-01
9.8465560e-03
-2.4466340e-01
-3.8637124e-01
-4.4885531e-01
-4.6059634e-01
-4.2070650e-01
-3.4546262e-01
-2.6780777e-01
-2.0738664e-01
-1.5744439e-01
-1.0805421e-01
-6.7534452e-02
-5.5857335e-02
-9.2807025e-02
-1.3431315e-01
-9.7259340e-02
3.9947202e-02
2.0195789e-01
2.5911576e-01
2.0054050e-01
1.6795146e-01
2.4701913e-01
3.7117883e-01
3.6059265e-01
1.4739940e-01
-9.7833972e-02
-2.4942454e-01
-3.0534300e-01
-3.0073930e-01
-2.8451391e-01
-2.4838361e-01
-1.5275337e-01
1.0768501e-02
1.9628974e-01
3.5185308e-01
4.4708805e-01
4.4789120e-01
3.2568060e-01
9.8895768e-02
-1.3842359e-01
-2.8562076e-01
-3.1578047e-01
-2.7393648e-01
-2.4073758e-01
-2.5299266e-01
-2.7135444e-01
-2.5021009e-01
-1.7678074e-01
-6.9124491e-02
5.4897006e-02
2.1131087e-01
4.1333345e-01
5.8448332e-01
5.7140534e-01
3.8015945e-01
1.8830880e-01
6.6607756e-02
-5.1980858e-03
-5.3669056e-02
-1.3717586e-01
-2.5597499e-01
-3.4437533e-01
-3.5517547e-01
-3.2209794e-01
-3.1602106e-01
-3.2360510e-01
-3.0316792e-01
-2.5197846e-01
-1.5271057e-01
1.5655412e-02
2.4476419e-01
4.9591555e-01
6.5643672e-01
5.8523097e-01
3.3203633e-01
1.0212773e-01
-2.6345167e-02
-8.0958877e-02
-7.5635763e-02
-5.5997529e-02
-6.4676234e-02
-9.5854002e-02
-1.2688340e-01
-1.2497585e-01
-8.6377319e-02
-4.7569847e-02
-3.1183377e-02
-2.4212497e-02
-1.7295458e-02
-3.0143284e-02
-6.2590145e-02
-1.0044988e-01
-1.3521675e-01
-1.5259489e-01
-1.6062934e-01
-1.7715366e-01
-1.9275281e-01
-1.7966047e-01
-1.2936938e-01
-7.5646648e-02
-1.5277635e-02
1.1295177e-01
3.3262404e-01
5.8971099e-01
7.4712974e-01
6.7456425e-01
3.9368275e-01
4.6359691e-02
-2.3660241e-01
-3.9536460e-01
-4.3956127e-01
-4.1168378e-01
-3.8475799e-01
-3.8317247e-01
-3.3448658e-01
-1.9535405e-01
3.3790481e-02
3.4070417e-01
6.3820558e-01
7.5552834e-01
5.9039360e-01
2.6296135e-01
-1.4214800e-02
-1.7373869e-01
-2.7309692e-01
-3.4841619e-01
-3.9096226e-01
-4.0201198e-01
-4.0121780e-01
-3.9352301e-01
-3.6692166e-01
-2.9605118e-01
-1.4199105e-01
1.1689165e-01
4.0444553e-01
5.7775177e-01
5.9574038e-01
5.0556873e-01
3.3760188e-01
1.1550881e-01
-1.2104501e-01
-3.0325861e-01
-3.7373220e-01
-3.4124179e-01
-2.4497939e-01
-1.1064951e-01
4.8830196e-02
2.2113016e-01
3.6918901e-01
4.1379542e-01
3.0847593e-01
1.2225677e-01
-3.9585055e-02
-1.3981122e-01
-1.8352888e-01
-1.5069459e-01
-3.4519509e-02
1.0526862e-01
1.9213546e-01
1.6188509e-01
8.4120585e-03
-1.7739877e-01
-2.9233799e-01
-3.0621421e-01
-2.4601783e-01
-1.3130314e-01
2.4422650e-02
1.8992032e-01
3.2099142e-01
3.6923076e-01
2.8660069e-01
7.7041838e-02
-1.5395892e-01
-3.0676259e-01
-3.7287846e-01
-3.8117216e-01
-3.4674675e-01
-2.8340714e-01
-2.0729434e-01
-1.0863789e-01
3.1325503e-02
1.9697781e-01
3.6670087e-01
5.4886523e-01
6.7205044e-01
5.9154291e-01
3.0422022e-01
-2.8699518e-02
-2.5535711e-01
-3.3357079e-01
-3.3969081e-01
-3.7331046e-01
-4.2365614e-01
-4.2340836e-01
-3.6565003e-01
-2.8703881e-01
-1.9327104e-01
-4.6536985e-02
1.7956337e-01
4.2829871e-01
5.9280142e-01
6.1325838e-01
5.1716644e-01
3.8438990e-01
2.5856641e-01
1.3138975e-01
-1.8517730e-02
-1.6335926e-01
-2.5583811e-01
-2.9032718e-01
-2.7099066e-01
-2.1247834e-01
-1.3793855e-01
-4.8785092e-02
2.0998911e-02
2.4373934e-02
5.8111893e-03
1.8141598e-02
3.7169711e-02
1.6111694e-02
-5.1440630e-02
-1.3999437e-01
-2.3419522e-01
-3.2104994e-01
-3.8299845e-01
-4.0165364e-01
-3.6945557e-01
-2.8751722e-01
-1.4865102e-01
6.4943527e-02
3.6162009e-01
6.8822849e-01
9.2048628e-01
9.3892543e-01
7.4022249e-01
4.1668413e-01
7.3363884e-02
-1.9521259e-01
-3.5406527e-01
-4.1258501e-01
-3.9735014e-01
-3.6756983e-01
-3.6099341e-01
-3.5254117e-01
-3.0918392e-01
-2.2384109e-01
-8.8963447e-02
9.6310254e-02
2.8914373e-01
4.4476559e-01
5.3266014e-01
4.6959667e-01
2.4507691e-01
9.6933686e-03
-1.4263326e-01
-2.4914260e-01
-3.3858031e-01
-4.0319739e-01
-4.2005448e-01
-3.7524672e-01
-2.8905330e-01
-1.7577637e-01
-1.8874758e-02
1.9228384e-01
4.2387986e-01
6.1069165e-01
6.6611523e-01
5.2036161e-01
2.3054859e-01
-5.1173758e-02
-2.3472538e-01
-3.2457226e-01
-3.5632089e-01
-3.5477840e-01
-3.2704607e-01
-2.7302477e-01
-1.9750878e-01
-1.2022096e-01
-6.1224968e-02
1.4279358e-03
1.1232369e-01
2.8163823e-01
4.3916214e-01
5.0882048e-01
4.8330192e-01
3.3792237e-01
1.0617094e-01
-1.0240623e-01
-2.4897897e-01
-3.3645491e-01
-3.5849779e-01
-3.1754364e-01
-2.4495542e-01
-1.9395172e-01
-1.7716328e-01
-1.7172615e-01
-1.6274181e-01
-1.2714633e-01
-5.2019737e-02
8.7069750e-02
3.1442455e-01
5.1976575e-01
5.1109457e-01
2.8033956e-01
2.3515608e-02
-1.2331104e-01
-1.6111168e-01
-1.3833652e-01
-1.3833145e-01
-1.8819802e-01
-1.9735258e-01
-8.8523149e-02
1.4505001e-01
3.5103942e-01
3.8281939e-01
3.3138252e-01
2.5613033e-01
1.1082504e-01
-1.0649617e-01
-3.2208499e-01
-4.3688278e-01
-4.3308369e-01
-3.6668386e-01
-3.1726796e-01
-2.9014989e-01
-1.9676607e-01
-1.0344134e-02
2.1839629e-01
4.0460624e-01
4.7740683e-01
4.9560184e-01
5.2409170e-01
4.8585015e-01
2.9739377e-01
2.2692835e-02
-2.0116835e-01
-3.2489459e-01
-3.7235908e-01
-3.7619739e-01
-3.6704607e-01
-3.4701743e-01
-2.9747443e-01
-2.0546002e-01
-8.4252387e-02
6.5084706e-02
2.6481085e-01
4.9271288e-01
6.4633847e-01
5.7892091e-01
2.7341152e-01
-9.0533731e-02
-3.3607987e-01
-4.3261051e-01
-4.3325774e-01
-3.7362599e-01
-2.5786925e-01
-8.7873875e-02
1.0993883e-01
2.4677022e-01
2.4322690e-01
1.5259906e-01
9.7367854e-02
1.5282023e-01
2.2335136e-01
1.7492808e-01
7.3951476e-02
2.6363575e-03
-5.7595680e-02
-1.5310721e-01
-2.8980556e-01
-3.9705019e-01
-4.2389356e-01
-3.9138113e-01
-3.3715505e-01
-2.5326896e-01
-9.6349944e-02
1.5337793e-01
4.6660864e-01
7.5368232e-01
8.6394052e-01
6.9927353e-01
3.4620510e-01
7.8562567e-03
-1.7890971e-01
-2.5067866e-01
-3.0913752e-01
-3.4629629e-01
-3.1728205e-01
-2.3175862e-01
-1.3401850e-01
-6.3132283e-02
-6.2977093e-03
6.7701075e-02
1.4478973e-01
1.8008471e-01
1.6315531e-01
1.1153245e-01
2.6558814e-02
-7.8216385e-02
-1.7086499e-01
-2.2967498e-01
-2.3917546e-01
-2.0478723e-01
-1.6149024e-01
-1.4415620e-01
-1.3803858e-01
-9.3839576e-02
9.9260871e-03
1.5133284e-01
2.7648480e-01
3.4190114e-01
3.5838153e-01
3.5047371e-01
2.6810734e-01
7.8710252e-02
-1.2896014e-01
-2.7876842e-01
-3.5079471e-01
-3.4775302e-01
-2.9387566e-01
-1.9442697e-01
-4.1780955e-02
1.6179149e-01
3.8521924e-01
5.4289699e-01
5.2464974e-01
3.2860986e-01
8.3848639e-02
-1.0118979e-01
-2.0908920e-01
-2.6854328e-01
-2.8962863e-01
-2.6759629e-01
-2.2761249e-01
-2.0231194e-01
-1.8916957e-01
-1.6441643e-01
-1.1497765e-01
-4.3480283e-02
3.1850400e-02
1.0031453e-01
1.6253996e-01
2.2075494e-01
2.9390019e-01
3.3958024e-01
2.7521573e-01
1.2867574e-01
-9.3411013e-03
-9.2223694e-02
-1.2293836e-01
-1.5667542e-01
-2.3842192e-01
-3.2820481e-01
-3.6836640e-01
-3.4434978e-01
-2.7351441e-01
-1.6176608e-01
1.7488271e-02
2.7282377e-01
5.5441389e-01
7.3968689e-01
7.2148373e-01
4.7823445e-01
1.1148787e-01
-1.8695016e-01
-3.5056399e-01
-4.2675021e-01
-4.3603710e-01
-3.9284080e-01
-3.2220993e-01
-2.3204367e-01
-1.0873325e-01
6.1694165e-02
2.8507974e-01
4.6759336e-01
4.4761596e-01
2.4907112e-01
4.3815260e-02
-7.0722191e-02
-1.3131061e-01
-2.0526648e-01
-2.7055630e-01
-2.7759673e-01
-2.1374144e-01
-1.4723208e-01
-1.5950071e-01
-1.9295746e-01
-1.4088383e-01
2.9809042e-02
2.9366350e-01
5.7197406e-01
7.1878194e-01
6.0659781e-01
3.1413691e-01
3.8031057e-02
-1.5098609e-01
-2.5562741e-01
-2.7498635e-01
-2.3135854e-01
-1.6455078e-01
-1.3335799e-01
-1.6792711e-01
-2.2378612e-01
-2.3543845e-01
-1.7016941e-01
-3.1534739e-02
1.4472093e-01
3.0173270e-01
3.8640982e-01
3.4037053e-01
1.4099507e-01
-1.1055745e-01
-2.8737911e-01
-3.5307352e-01
-3.4621695e-01
-3.1452887e-01
-2.5607825e-01
-1.4821810e-01
2.4863202e-02
2.3903948e-01
3.7047053e-01
3.1105190e-01
1.5800301e-01
1.1518880e-01
2.3458346e-01
3.9316682e-01
4.5393570e-01
3.5271086e-01
1.2031135e-01
-1.3256898e-01
-3.1055907e-01
-4.0974273e-01
-4.6539617e-01
-4.7968515e-01
-4.5381014e-01
-4.0596775e-01
-3.4583444e-01
-2.5626968e-01
-9.8155142e-02
1.5574077e-01
4.9794665e-01
8.1614776e-01
9.2023496e-01
7.2964537e-01
3.6437018e-01
2.4005317e-02
-1.9369339e-01
-3.0823567e-01
-3.6853690e-01
-3.9376565e-01
-3.7196582e-01
-3.1294119e-01
-2.4507434e-01
-1.7062212e-01
-8.0372899e-02
2.7430696e-02
1.5029591e-01
2.2605335e-01
1.6055795e-01
-2.1658955e-02
-1.8530213e-01
-2.2582718e-01
-1.2139095e-01
1.0742752e-01
3.4688021e-01
4.1978002e-01
2.9148887e-01
7.4978858e-02
-9.8555394e-02
-1.5665468e-01
-9.1567862e-02
6.2216372e-02
1.7926381e-01
1.4120580e-01
1.1184181e-02
-9.7930680e-02
-1.6979035e-01
-2.2270246e-01
-2.6626392e-01
-2.8599118e-01
-2.5780229e-01
-1.8267960e-01
-1.0525935e-01
-6.7099361e-02
-4.3277117e-02
-3.3788992e-04
6.0305628e-02
1.3652971e-01
2.1272462e-01
2.9421500e-01
3.7022186e-01
3.2689128e-01
1.2280662e-01
-1.0885085e-01
-2.3995496e-01
-2.5755436e-01
-2.1087879e-01
-1.8613025e-01
-2.3226193e-01
-2.7655875e-01
-2.0348864e-01
3.3600809e-02
3.3971605e-01
5.4276596e-01
6.2430418e-01
6.9039027e-01
7.1475693e-01
5.8836775e-01
2.9535416e-01
-4.3482651e-02
-2.9492149e-01
-4.3856717e-01
-4.9635027e-01
-4.9271531e-01
-4.6859122e-01
-4.4965014e-01
-4.3100224e-01
-4.0042211e-01
-3.4952538e-01
-2.7018228e-01
-1.5868862e-01
-1.4236496e-02
1.6440837e-01
3.2547832e-01
4.1575362e-01
4.7166606e-01
4.8741230e-01
3.8214960e-01
1.7022140e-01
-2.0823453e-02
-9.0947940e-02
-4.0870020e-02
2.5925313e-02
2.2861446e-02
-1.7006704e-02
-3.5627821e-02
-4.2731236e-02
-9.6535862e-02
-1.9968252e-01
-2.6719058e-01
-2.1442293e-01
-4.8394280e-02
1.1818126e-01
1.6244563e-01
6.1976254e-02
-1.1625410e-01
-2.8153584e-01
-3.4238924e-01
-2.6072041e-01
-7.0554699e-02
1.8153441e-01
4.1525397e-01
5.2637316e-01
4.7970713e-01
3.3076254e-01
1.6392352e-01
-1.6374543e-02
-2.0776079e-01
-3.1216599e-01
-2.6156027e-01
-8.0667899e-02
1.3991675e-01
2.6174635e-01
2.2596762e-01
1.1284713e-01
-2.2681218e-03
-9.9938757e-02
-1.6323915e-01
-1.8509637e-01
-1.7668986e-01
-1.4530244e-01
-8.9789926e-02
-1.2780931e-02
8.9798856e-02
1.9003342e-01
1.9710450e-01
7.8023445e-02
-9.0493437e-02
-2.2186427e-01
-2.8698701e-01
-3.0047862e-01
-2.7141363e-01
-2.2015603e-01
-1.8079727e-01
-1.5380610e-01
-1.1451186e-01
-2.4880934e-02
1.3973925e-01
3.2842052e-01
4.1528056e-01
3.5345882e-01
2.6505039e-01
2.5229828e-01
2.6434939e-01
2.0534143e-01
7.4422644e-02
-5.4878982e-02
-1.4733973e-01
-2.2759202e-01
-3.1629995e-01
-3.8469799e-01
-4.0015854e-01
-3.5467737e-01
-2.5634549e-01
-1.1349028e-01
9.0371593e-02
3.5648205e-01
6.3258334e-01
7.8637199e-01
6.7677107e-01
3.3822608e-01
-2.9814392e-02
-2.6687662e-01
-3.5465306e-01
-3.6494078e-01
-3.6521617e-01
-3.6736497e-01
-3.5095900e-01
-2.9314008e-01
-1.7723854e-01
-1.1353474e-02
1.7276828e-01
3.5549046e-01
5.1483369e-01
5.5026701e-01
3.8115507e-01
1.0307193e-01
-1.4262872e-01
-3.0633691e-01
-3.8819829e-01
-3.9867906e-01
-3.4603226e-01
-2.3630852e-01
-1.1948799e-01
-5.6755917e-02
-1.7910270e-02
5.4125153e-02
1.7698959e-01
3.5365489e-01
5.0601363e-01
4.8471261e-01
2.8599260e-01
6.6207094e-02
-8.3314696e-02
-1.8937969e-01
-2.8992578e-01
-3.7035634e-01
-4.1108944e-01
-4.0186721e-01
-3.3737535e-01
-2.3690408e-01
-9.3132363e-02
1.2494262e-01
4.0733941e-01
6.5099939e-01
7.0807063e-01
5.4628592e-01
2.5946748e-01
-3.4323401e-02
-2.4102485e-01
-3.3128538e-01
-3.3424873e-01
-2.9040177e-01
-2.2814396e-01
-1.6903436e-01
-1.3305533e-01
-9.9025776e-02
-1.1962536e-02
1.4771960e-01
3.1567625e-01
3.7294631e-01
2.8503824e-01
1.3593470e-01
2.3977564e-02
-4.6624912e-02
-1.3824472e-01
-2.3596017e-01
-2.8810567e-01
-2.8209234e-01
-2.4055210e-01
-2.0259113e-01
-1.6773153e-01
-1.1394820e-01
-3.7271925e-02
6.4689003e-02
1.9797064e-01
3.5200839e-01
4.8453694e-01
5.1875992e-01
4.0430624e-01
1.9738599e-01
6.5490455e-03
-1.0893251e-01
-1.4355975e-01
-1.6090681e-01
-2.1178891e-01
-2.5778945e-01
-2.8312861e-01
-2.8716039e-01
-2.3919072e-01
-1.3499311e-01
-2.4455570e-03
1.2271630e-01
2.3554138e-01
2.9002164e-01
2.0477002e-01
3.5414353e-02
-1.0024117e-01
-1.4749459e-01
-1.2639647e-01
-1.2106067e-01
-1.5099860e-01
-1.3272531e-01
-1.9023927e-02
9.1582101e-02
9.6996545e-02
6.1646703e-02
7.7229153e-02
1.6378803e-01
2.8616492e-01
3.3311389e-01
2.3402416e-01
5.8197133e-02
-1.0297686e-01
-2.3053949e-01
-3.1489032e-01
-3.3329737e-01
-2.9402735e-01
-2.2236280e-01
-1.4051973e-01
-6.6326198e-02
9.6004533e-03
1.1622617e-01
2.8974931e-01
4.8329380e-01
5.4757373e-01
4.1667655e-01
1.7277970e-01
-4.3951117e-02
-1.4763327e-01
-1.8311876e-01
-2.4596468e-01
-3.3771460e-01
-4.0313616e-01
-4.2940101e-01
-4.2424606e-01
-3.7613785e-01
-2.6147588e-01
-6.5318585e-02
2.0172151e-01
4.9150136e-01
7.1359394e-01
7.5041458e-01
5.8929869e-01
3.4614922e-01
1.0770321e-01
-8.9998792e-02
-2.2378936e-01
-2.6887890e-01
-2.4968140e-01
-2.4615919e-01
-2.6930408e-01
-2.7213098e-01
-2.2949880e-01
-1.7267279e-01
-1.3102343e-01
-6.9535329e-02
4.2972935e-02
2.1621770e-01
4.0806303e-01
4.8576464e-01
3.7208259e-01
1.4984461e-01
-3.8995643e-02
-1.3153779e-01
-1.6076270e-01
-1.6762991e-01
-1.5853968e-01
-1.2872431e-01
-8.7796349e-02
-6.3869899e-02
-8.6639791e-02
-1.6863262e-01
-2.8293899e-01
-3.7141311e-01
-4.0266649e-01
-3.8719157e-01
-3.2723049e-01
-2.0807935e-01
-1.5588739e-02
2.3418832e-01
4.9744195e-01
7.4714936e-01
9.4016696e-01
1.0030590e+00
8.7688736e-01
5.5271127e-01
1.0851776e-01
-3.0710849e-01
-5.7809413e-01
-6.8397731e-01
-6.6726998e-01
-6.0810325e-01
-5.6343973e-01
-5.1691939e-01
-4.3382692e-01
-3.0001273e-01
-1.0330338e-01
1.6455034e-01
4.9177630e-01
8.1186862e-01
9.9305212e-01
9.3437552e-01
6.6430063e-01
3.0088600e-01
-4.7691132e-02
-3.1426915e-01
-4.7718439e-01
-5.3731085e-01
-5.1065082e-01
-4.3731772e-01
-3.6262527e-01
-3.0328045e-01
-2.3864807e-01
-1.6099193e-01
-7.2112666e-02
4.4277551e-02
1.9760511e-01
3.6985637e-01
5.1575295e-01
5.7736000e-01
4.7761613e-01
2.0441264e-01
-9.4448979e-02
-2.8544550e-01
-3.7147121e-01
-3.9045043e-01
-3.7122557e-01
-3.3183950e-01
-2.6177383e-01
-1.3298512e-01
5.4551782e-02
2.3979763e-01
3.5897937e-01
4.2693199e-01
4.5495899e-01
3.7527879e-01
1.7734823e-01
-4.3205463e-02
-1.9252518e-01
-2.4498238e-01
-2.7663556e-01
-3.6344076e-01
-4.6004068e-01
-4.9128148e-01
-4.3625145e-01
-2.9782731e-01
-9.3490557e-02
1.4232041e-01
3.9523260e-01
6.6367511e-01
8.5661521e-01
8.2506366e-01
5.5054275e-01
1.8713015e-01
-1.0654005e-01
-3.0089587e-01
-4.3889206e-01
-5.4636191e-01
-6.0160970e-01
-5.6330666e-01
-4.2907124e-01
-2.4444678e-01
-5.9030330e-02
1.3091207e-01
3.6174273e-01
6.3074516e-01
8.3254688e-01
7.9746674e-01
5.1248276e-01
1.4812818e-01
-1.6612138e-01
-3.8139062e-01
-4.9215800e-01
-5.3107854e-01
-5.1597556e-01
-4.5877053e-01
-3.6883337e-01
-2.4269728e-01
-6.4938207e-02
1.8373672e-01
4.5565589e-01
6.3094361e-01
5.9689350e-01
3.8115693e-01
1.5143514e-01
-3.5058487e-02
-2.2024080e-01
-3.7325676e-01
-4.4576692e-01
-4.2022528e-01
-3.0760522e-01
-1.4932287e-01
1.7202517e-02
1.9027545e-01
3.4034250e-01
3.9589832e-01
3.5806514e-01
3.0211052e-01
2.3501854e-01
1.1194994e-01
-3.9601652e-02
-1.7069519e-01
-2.6330694e-01
-3.2126839e-01
-3.5428304e-01
-3.6208050e-01
-3.4567596e-01
-3.0947757e-01
-2.4841355e-01
-1.4320813e-01
1.2299752e-02
1.9919550e-01
3.9033599e-01
5.7094478e-01
6.9707518e-01
6.7748718e-01
4.7569741e-01
1.7099511e-01
-1.0261401e-01
-2.6653286e-01
-3.2853245e-01
-3.3696521e-01
-3.2266065e-01
-2.8574150e-01
-2.4592194e-01
-2.1918572e-01
-1.9780917e-01
-1.8849379e-01
-1.8616059e-01
-1.4510358e-01
-6.3295888e-02
-6.9136204e-03
-1.7453804e-02
-5.7621157e-02
-3.9489340e-02
4.4168825e-02
1.2003563e-01
1.7410632e-01
2.5010671e-01
3.9394886e-01
5.7991786e-01
6.8437145e-01
6.1893875e-01
3.9176701e-01
6.8797032e-02
-2.2941968e-01
-3.9206173e-01
-4.1137754e-01
-3.4704221e-01
-2.5628818e-01
-1.6821218e-01
-1.2747265e-01
-1.6543505e-01
-2.3813738e-01
-3.0377311e-01
-3.2614343e-01
-2.6938943e-01
-1.4848416e-01
-1.0428642e-02
1.3289434e-01
3.0885926e-01
5.0046012e-01
5.9389848e-01
4.9463150e-01
2.6802990e-01
2.5992290e-02
-1.8268636e-01
-3.1752561e-01
-3.4030067e-01
-2.5182120e-01
-7.4649971e-02
1.4893417e-01
3.1428385e-01
3.4608264e-01
2.7278295e-01
1.3680466e-01
-1.5620687e-02
-1.3294750e-01
-2.0528890e-01
-2.3933879e-01
-2.3044333e-01
-1.8158129e-01
-1.3541470e-01
-1.1889776e-01
-8.2029860e-02
1.8081873e-02
1.5897242e-01
2.5802577e-01
2.1535413e-01
5.3658782e-02
-1.0184198e-01
-1.8108587e-01
-2.0226715e-01
-2.0226539e-01
-1.7744249e-01
-1.1990079e-01
-4.4976230e-02
1.5693515e-02
4.7792068e-02
8.7392364e-02
1.5466882e-01
2.0991152e-01
1.9554167e-01
1.1528442e-01
4.2046351e-02
3.0116070e-02
8.9150241e-02
1.5302429e-01
1.2417326e-01
2.3162662e-02
-6.4411186e-02
-8.8696428e-02
-7.1845719e-02
-7.4462719e-02
-9.5292652e-02
-1.1542601e-01
-1.3302884e-01
-1.4638866e-01
-1.5154603e-01
-1.1820669e-01
-1.7933626e-02
1.3290587e-01
2.4421034e-01
2.4920379e-01
1.8930470e-01
1.0541555e-01
-2.8854708e-03
-1.2941187e-01
-2.4734175e-01
-3.1668636e-01
-3.0718003e-01
-2.2429612e-01
-1.2866414e-01
-5.8354446e-02
4.2214862e-02
2.1425291e-01
4.1997576e-01
5.4536007e-01
4.5778683e-01
1.9889971e-01
-4.5890969e-02
-1.8418613e-01
-2.5918474e-01
-3.1567099e-01
-3.4696077e-01
-3.4444210e-01
-3.1395003e-01
-2.7616941e-01
-2.4712881e-01
-1.9700482e-01
-7.5350593e-02
1.3126128e-01
3.7132116e-01
5.8339172e-01
7.5515660e-01
8.2832797e-01
7.1138107e-01
4.1081250e-01
3.5908609e-02
-2.6694789e-01
-4.2519574e-01
-4.6801467e-01
-4.5373610e-01
-4.1254870e-01
-3.5107937e-01
-2.7194360e-01
-1.6596828e-01
-3.0764259e-02
1.0467260e-01
2.0297512e-01
2.5545300e-01
2.7361245e-01
2.2904410e-01
9.6171723e-02
-5.9292045e-02
-1.6701808e-01
-2.2079757e-01
-2.5091590e-01
-2.7742571e-01
-2.8288416e-01
-2.4656766e-01
-1.6527686e-01
-5.7755013e-02
6.2733921e-02
2.1402011e-01
4.0271205e-01
5.7293800e-01
5.8831642e-01
3.4225614e-01
-6.7543387e-02
-4.2156533e-01
-5.9596987e-01
-5.7817307e-01
-3.8326821e-01
-4.3835016e-02
3.5753980e-01
6.8424884e-01
7.9909763e-01
6.6018650e-01
3.5737709e-01
5.2796842e-02
-1.3264110e-01
-2.1439032e-01
-2.7759337e-01
-3.3550983e-01
-3.5272578e-01
-3.3385986e-01
-3.0414116e-01
-2.7444447e-01
-2.3898580e-01
-1.8036412e-01
-8.2155463e-02
3.2292840e-02
9.9272499e-02
1.0929721e-01
1.2214858e-01
1.8405776e-01
2.9320940e-01
3.7398312e-01
3.1522184e-01
1.3271570e-01
-3.3201660e-02
-1.0377417e-01
-1.2073398e-01
-1.3699818e-01
-1.3006164e-01
-7.0590120e-02
2.4093198e-02
9.7886652e-02
1.0099151e-01
5.9389682e-02
2.3771971e-02
-4.3669048e-03
-3.9406590e-02
-6.5263115e-02
-7.0432837e-02
-6.6652198e-02
-6.5448180e-02
-9.8409671e-02
-1.8374898e-01
-2.6704502e-01
-2.9414679e-01
-2.6609517e-01
-2.0972761e-01
-1.3793335e-01
-2.1193015e-02
1.6170216e-01
3.9449514e-01
5.9815003e-01
6.3287851e-01
4.7658091e-01
2.6932475e-01
1.1634261e-01
-1.0363206e-02
-1.5257263e-01
-2.7440367e-01
-3.3946354e-01
-3.4406314e-01
-3.0535652e-01
-2.6307087e-01
-2.4013254e-01
-2.2428195e-01
-1.9961218e-01
-1.5284666e-01
-4.9648538e-02
1.4059041e-01
4.0470687e-01
6.5769364e-01
7.3460779e-01
5.2985303e-01
1.7803234e-01
-9.2775296e-02
-2.1884040e-01
-2.7345589e-01
-3.0972211e-01
-3.1221262e-01
-2.6762066e-01
-1.8718270e-01
-8.6311657e-02
6.9707728e-03
8.0851912e-02
1.5658994e-01
2.5931331e-01
3.3196412e-01
2.5856234e-01
5.8421144e-02
-1.4467152e-01
-2.7081200e-01
-2.9596870e-01
-2.6745249e-01
-2.5736200e-01
-2.6620535e-01
-2.5340794e-01
-1.9807419e-01
-9.0619649e-02
8.0685842e-02
3.0858962e-01
5.3654635e-01
6.6353891e-01
5.6837329e-01
2.7304737e-01
-1.1940039e-02
-1.4816776e-01
-1.8805943e-01
-2.2590279e-01
-2.5562749e-01
-2.3814386e-01
-1.7791829e-01
-1.0589748e-01
-4.5162899e-02
1.9913854e-02
1.0887598e-01
2.2092624e-01
2.9216918e-01
2.4673780e-01
1.2452627e-01
2.3278553e-03
-1.0422783e-01
-1.8271079e-01
-2.2030362e-01
-2.5108654e-01
-2.9931582e-01
-3.4889352e-01
-3.8322356e-01
-3.7497832e-01
-2.9895093e-01
-1.5768619e-01
4.2490281e-02
2.8895276e-01
5.2934344e-01
6.8474858e-01
7.0170640e-01
5.8072484e-01
3.5463920e-01
8.0857642e-02
-1.5231600e-01
-2.9028340e-01
-3.3203152e-01
-2.8218733e-01
-2.0732700e-01
-1.9152666e-01
-1.9536497e-01
-1.3329452e-01
-1.9695578e-02
5.2063577e-02
3.3853999e-02
-3.9789855e-02
-9.1773038e-02
-7.1349910e-02
7.1190996e-03
9.1357024e-02
1.2344910e-01
1.3625764e-01
1.9159749e-01
2.3550080e-01
2.0026427e-01
8.9339368e-02
-2.6602578e-02
-9.2803781e-02
-1.4330689e-01
-1.8390919e-01
-1.4200109e-01
4.0919592e-02
2.7996754e-01
3.6973467e-01
2.3940135e-01
1.6505918e-02
-1.6526289e-01
-2.5894809e-01
-2.7466052e-01
-2.6908604e-01
-3.0289885e-01
-3.5824109e-01
-3.7519625e-01
-3.2109355e-01
-1.8308730e-01
4.1744000e-02
3.3038058e-01
6.3449861e-01
8.5026414e-01
8.1947957e-01
5.1509299e-01
1.2860276e-01
-1.6346585e-01
-3.5474545e-01
-4.8941111e-01
-5.6820681e-01
-5.5812952e-01
-4.2929285e-01
-2.2424905e-01
-5.0176828e-02
7.1811640e-02
2.1987344e-01
3.6925393e-01
3.8898324e-01
2.3445771e-01
1.1938447e-02
-1.1824180e-01
-8.7945913e-02
5.2904052e-02
1.8083299e-01
1.6691216e-01
4.3881606e-02
-7.3577186e-02
-1.7472544e-01
-2.5734477e-01
-2.8493850e-01
-2.2936310e-01
-7.8255419e-02
1.3637078e-01
3.3278174e-01
4.1820210e-01
3.8402916e-01
2.8442748e-01
1.3948129e-01
-3.3091667e-02
-2.0569484e-01
-3.3934336e-01
-3.6643042e-01
-2.6861200e-01
-1.3644303e-01
-4.9083151e-02
2.2541890e-02
8.7200630e-02
1.1083807e-01
1.0488122e-01
9.5862775e-02
8.0308770e-02
5.8004922e-02
5.3708621e-02
5.1880692e-02
-7.9427156e-03
-1.3126816e-01
-2.6688602e-01
-3.7554870e-01
-4.2737562e-01
-4.0982338e-01
-3.2302360e-01
-1.4817187e-01
1.2659433e-01
4.3587691e-01
6.3647167e-01
6.3425491e-01
4.7086336e-01
2.6639244e-01
1.0183803e-01
5.1944418e-03
1.8004127e-02
1.3098078e-01
2.2735932e-01
1.7627024e-01
-2.0373076e-02
-2.1292059e-01
-3.1423440e-01
-3.6005799e-01
-3.8409896e-01
-3.9444874e-01
-3.9582076e-01
-3.7975354e-01
-3.1052157e-01
-1.6382574e-01
4.6828187e-02
3.0296490e-01
5.6816215e-01
7.6045210e-01
7.8725912e-01
6.1648736e-01
3.0554521e-01
-4.0825748e-02
-3.2973635e-01
-5.2166117e-01
-6.0688180e-01
-5.9729187e-01
-5.5936988e-01
-5.4155616e-01
-5.0704553e-01
-3.9813045e-01
-1.9175846e-01
9.5555982e-02
4.2415500e-01
7.0996710e-01
8.2100895e-01
6.7893851e-01
3.7134799e-01
9.1104466e-02
-1.0434462e-01
-2.5336460e-01
-3.0175007e-01
-2.0862218e-01
-3.3377510e-02
1.4158469e-01
2.5583011e-01
3.0530041e-01
3.2024059e-01
2.9234251e-01
1.7949603e-01
-1.6536952e-02
-1.9931956e-01
-2.7410882e-01
-2.3276839e-01
-1.3976324e-01
-1.0832713e-01
-1.5710725e-01
-1.9503442e-01
-2.0100785e-01
-2.0673241e-01
-2.4124727e-01
-3.1308452e-01
-3.5467637e-01
-2.8599799e-01
-1.1041078e-01
8.4796850e-02
2.2435673e-01
3.0734013e-01
3.5959316e-01
3.7222259e-01
3.2707890e-01
2.5266718e-01
1.7348957e-01
8.5356245e-02
-1.3958734e-02
-1.1471069e-01
-1.5315861e-01
-7.2437688e-02
8.1516488e-02
2.0477588e-01
2.1443627e-01
1.2749978e-01
4.8507677e-02
3.9974464e-02
6.9799958e-02
6.3253220e-02
-1.9313042e-02
-1.3174364e-01
-1.9596748e-01
-2.1846009e-01
-2.5165401e-01
-2.8778436e-01
-2.8087579e-01
-1.9096966e-01
-1.4614121e-02
1.5500839e-01
1.8033279e-01
6.3089720e-02
-8.3999051e-02
-2.0006122e-01
-2.6096568e-01
-2.4100189e-01
-1.2994111e-01
5.9136901e-02
2.5609030e-01
3.3512837e-01
2.2578004e-01
3.0007904e-02
-6.9943020e-02
-4.8558456e-03
1.8188182e-01
3.8277687e-01
4.7364331e-01
4.3311019e-01
3.2260566e-01
1.4188871e-01
-1.1724318e-01
-3.6650290e-01
-5.2407530e-01
-5.5929040e-01
-4.7173865e-01
-3.0190423e-01
-1.3175516e-01
-1.8524899e-02
4.6976802e-02
6.5864534e-02
7.5986901e-02
1.6228706e-01
3.3190799e-01
4.9898744e-01
5.3365659e-01
3.5248177e-01
4.1319178e-02
-2.2989387e-01
-3.9057062e-01
-4.5651345e-01
-4.6182810e-01
-4.2369214e-01
-3.3763025e-01
-2.1085453e-01
-6.6046956e-02
5.0184102e-02
1.1630709e-01
1.8712535e-01
3.4106618e-01
5.4956567e-01
6.3805471e-01
5.4187348e-01
3.6161014e-01
1.2758591e-01
-1.5831660e-01
-4.2045315e-01
-5.6624270e-01
-5.5381747e-01
-4.3177636e-01
-2.8792732e-01
-1.5435199e-01
-1.0209340e-03
2.0133749e-01
4.3284715e-01
6.1110094e-01
6.0906357e-01
3.8009974e-01
5.2241580e-02
-2.1002797e-01
-3.2645052e-01
-3.1069561e-01
-2.4719341e-01
-2.1656696e-01
-2.4345117e-01
-3.0184185e-01
-3.5463905e-01
-3.6577902e-01
-3.0072292e-01
-1.6065916e-01
-3.8849569e-03
7.8309740e-02
9.7810192e-02
1.8847140e-01
3.8973045e-01
6.0448707e-01
7.0566339e-01
6.1886665e-01
3.6130277e-01
2.3215176e-02
-2.6471142e-01
-4.2429086e-01
-4.4463838e-01
-3.2166763e-01
-7.3522595e-02
2.3986211e-01
4.8187684e-01
4.6748126e-01
1.7494753e-01
-2.0551668e-01
-4.8628446e-01
-6.0024899e-01
-5.5833874e-01
-3.8642294e-01
-1.1336561e-01
2.0200014e-01
4.3169704e-01
4.2996040e-01
2.0897286e-01
-4.6271452e-02
-1.6094129e-01
-1.3132077e-01
-5.2158076e-02
7.3030471e-02
2.4416913e-01
3.6283490e-01
3.5369683e-01
2.1270676e-01
-1.2093844e-02
-2.1403390e-01
-2.9623090e-01
-2.5271384e-01
-1.6272516e-01
-1.1986148e-01
-1.4749172e-01
-1.9034702e-01
-1.8628116e-01
-9.2644405e-02
1.1481310e-01
3.8938357e-01
5.8726557e-01
5.7017407e-01
3.4257044e-01
2.9448677e-02
-2.5820939e-01
-4.6946737e-01
-5.8227320e-01
-5.9844228e-01
-5.3311670e-01
-3.9821819e-01
-2.1142697e-01
-9.3496840e-03
1.9278696e-01
4.2039175e-01
6.4751475e-01
7.7135449e-01
6.9600352e-01
4.1255255e-01
6.1620557e-02
-1.6816788e-01
-2.4860932e-01
-2.8176434e-01
-3.1513338e-01
-3.3250401e-01
-3.3724795e-01
-3.5511638e-01
-3.9113245e-01
-4.5088766e-01
-5.3297662e-01
-5.4286879e-01
-3.6271964e-01
-4.9177999e-03
