8.4965197e-02
1.1513656e-01
1.9771026e-01
3.5186479e-01
5.5290368e-01
7.2886223e-01
8.2625657e-01
8.3800042e-01
7.5201813e-01
5.3642298e-01
2.1551703e-01
-9.2415278e-02
-2.9639092e-01
-3.9214067e-01
-4.0478652e-01
-3.6157055e-01
-2.8541589e-01
-1.9489383e-01
-1.1046027e-01
-6.1793884e-02
-5.3683024e-02
-5.4602953e-02
-5.4066867e-02
-6.5851385e-02
-1.1269063e-01
-2.0796969e-01
-3.1713763e-01
-3.8936887e-01
-4.0009969e-01
-3.4570066e-01
-2.2090581e-01
-5.5268562e-03
3.0169397e-01
6.2117400e-01
8.2935105e-01
8.6386609e-01
7.4777800e-01
5.5001742e-01
3.1600757e-01
6.0111801e-02
-1.6526797e-01
-2.9772867e-01
-3.3574014e-01
-3.1113466e-01
-2.5147675e-01
-1.8532315e-01
-1.3175329e-01
-9.0844594e-02
-6.2267595e-02
-5.0633869e-02
-5.2295654e-02
-6.1083416e-02
-7.9356358e-02
-1.0683682e-01
-1.3574495e-01
-1.6130387e-01
-1.7684192e-01
-1.7468270e-01
-1.5133490e-01
-1.3309807e-01
-1.5318038e-01
-1.7473012e-01
-1.3564702e-01
-1.9840067e-02
1.6124489e-01
3.8421542e-01
5.8942401e-01
6.8201591e-01
6.1571121e-01
4.1910982e-01
1.6573619e-01
-4.1386187e-02
-1.6152553e-01
-2.3221658e-01
-2.8589778e-01
-3.2179430e-01
-3.3205949e-01
-3.1990531e-01
-2.8632556e-01
-2.5407194e-01
-2.4089749e-01
-2.0336616e-01
-1.0675997e-01
3.3462122e-02
1.5798271e-01
1.8899068e-01
1.1046811e-01
-1.3762694e-02
-8.2108126e-02
-2.6860045e-02
1.3894067e-01
3.6347795e-01
5.9089050e-01
7.2898112e-01
6.9059484e-01
4.6577148e-01
1.3946137e-01
-1.5409573e-01
-3.4249263e-01
-4.2519495e-01
-4.2059676e-01
-3.5684304e-01
-2.8089651e-01
-2.4010196e-01
-2.3810716e-01
-2.4892732e-01
-2.4575129e-01
-2.0944275e-01
-1.4050330e-01
-1.1273890e-01
-2.0151840e-01
-3.3208973e-01
-3.8716860e-01
-3.2147938e-01
-1.3454702e-01
1.2327207e-01
3.5430517e-01
4.9091843e-01
5.4483766e-01
5.6842363e-01
6.1004624e-01
6.7532698e-01
7.2561146e-01
7.0604701e-01
5.6820201e-01
3.0049649e-01
-3.1148017e-02
-3.0824448e-01
-4.6246836e-01
-5.0209965e-01
-4.7097783e-01
-4.1557666e-01
-3.5793497e-01
-3.0546333e-01
-2.6399039e-01
-2.3530153e-01
-2.1733420e-01
-2.0282638e-01
-1.8476333e-01
-1.7161758e-01
-1.6534968e-01
-1.3627039e-01
-5.5497153e-02
8.9622494e-02
2.8781235e-01
4.8826668e-01
6.2233585e-01
6.2707994e-01
4.9278884e-01
2.9458791e-01
9.3651505e-02
-9.9783409e-02
-2.5370937e-01
-3.4287906e-01
-3.8042840e-01
-3.8621997e-01
-3.7117113e-01
-3.3008342e-01
-2.5363840e-01
-1.4596595e-01
-2.1285274e-02
1.1930518e-01
2.8862755e-01
4.3701780e-01
4.7396527e-01
3.7238163e-01
1.7944164e-01
-1.3863857e-02
-1.5265971e-01
-2.4398912e-01
-3.0233091e-01
-3.3698288e-01
-3.5872766e-01
-3.6708251e-01
-3.4105317e-01
-2.6829206e-01
-1.5683100e-01
2.1149646e-03
2.4096800e-01
5.3859804e-01
7.6701990e-01
7.9379790e-01
6.0495224e-01
2.8382307e-01
-4.8866064e-02
-2.8794306e-01
-4.0521278e-01
-4.3227522e-01
-3.9407112e-01
-2.8570270e-01
-1.8149828e-01
-1.8041398e-01
-2.1216204e-01
-1.6725287e-01
-2.0043119e-02
2.0488726e-01
4.0660592e-01
4.5786629e-01
3.7304195e-01
2.9965551e-01
2.4954237e-01
1.0008528e-01
-1.3843320e-01
-3.4722508e-01
-4.6793163e-01
-5.0063796e-01
-4.5105623e-01
-3.2724355e-01
-1.3113154e-01
1.5077336e-01
4.4659657e-01
5.9302464e-01
5.1868782e-01
2.8690458e-01
2.7944224e-02
-1.3836282e-01
-1.8011526e-01
-1.5806293e-01
-1.4849158e-01
-1.4223397e-01
-1.3251145e-01
-1.7992628e-01
-2.6210481e-01
-2.7241451e-01
-1.5099104e-01
8.5902733e-02
3.5291019e-01
5.3762569e-01
5.6237865e-01
4.4782141e-01
2.6594216e-01
5.3660534e-02
-1.5327619e-01
-3.2220047e-01
-4.2558638e-01
-4.4262232e-01
-3.8585090e-01
-3.1717795e-01
-2.7921265e-01
-2.2528422e-01
-1.1586228e-01
4.5746293e-02
2.5622838e-01
4.7594798e-01
6.2191303e-01
6.4004353e-01
5.2093904e-01
2.9309567e-01
1.8077685e-02
-2.3712407e-01
-4.1327297e-01
-4.9593018e-01
-5.1260740e-01
-4.8249868e-01
-3.9746427e-01
-2.3252100e-01
7.1529050e-03
2.4769689e-01
4.0252287e-01
4.8541220e-01
5.7226454e-01
6.3653735e-01
5.7975206e-01
3.6543387e-01
5.3884365e-02
-2.4710761e-01
-4.5982432e-01
-5.7598114e-01
-6.3583063e-01
-6.5625520e-01
-6.3252252e-01
-5.6718729e-01
-4.4790079e-01
-2.6198768e-01
-1.4521754e-02
2.8512090e-01
5.9443457e-01
8.2405426e-01
9.1210942e-01
8.5445910e-01
6.8441539e-01
4.5463456e-01
1.9011710e-01
-9.4284507e-02
-3.4124753e-01
-4.9133700e-01
-5.3442489e-01
-4.9000090e-01
-3.7374697e-01
-2.3636296e-01
-1.3789146e-01
-6.2931700e-02
1.8546384e-02
1.0840425e-01
1.5794572e-01
1.1312253e-01
2.8405567e-02
-1.8895526e-02
-2.6674605e-02
-4.0667441e-02
-7.8776710e-02
-1.0744595e-01
-1.2631765e-01
-1.7542788e-01
-2.3928763e-01
-2.3340391e-01
-9.3907839e-02
1.5857163e-01
3.9936736e-01
4.7366674e-01
3.9480120e-01
3.0732121e-01
2.3535347e-01
1.1307903e-01
-6.1891799e-02
-2.2435983e-01
-3.0255072e-01
-2.7193575e-01
-1.5718271e-01
-6.4632423e-02
-8.0231676e-02
-1.3860312e-01
-1.5735457e-01
-1.2337675e-01
-3.8340672e-02
1.0002192e-01
2.8206993e-01
4.5387551e-01
5.1106228e-01
3.7488634e-01
1.1201276e-01
-1.2155007e-01
-2.6066251e-01
-3.2307961e-01
-3.2952925e-01
-2.9003398e-01
-2.0487341e-01
-6.5891536e-02
1.1579392e-01
2.5456564e-01
2.9481477e-01
2.8011913e-01
2.2442622e-01
1.0785904e-01
-4.4149661e-02
-1.7843228e-01
-2.5860160e-01
-2.8032779e-01
-2.5563293e-01
-2.1992039e-01
-2.0367216e-01
-1.8626896e-01
-1.4362380e-01
-7.0689517e-02
4.2913842e-02
1.8745050e-01
3.3510228e-01
4.4821783e-01
4.6475692e-01
3.4813015e-01
1.5114601e-01
-2.1543703e-02
-1.2736378e-01
-1.8475223e-01
-2.1376773e-01
-2.4636319e-01
-2.9520573e-01
-3.2520299e-01
-3.0714270e-01
-2.4923820e-01
-1.5744789e-01
-4.2528980e-03
2.2646667e-01
4.7748335e-01
6.2561478e-01
5.7570721e-01
3.5280871e-01
7.9890906e-02
-1.3032516e-01
-2.4184340e-01
-2.7128683e-01
-2.4703405e-01
-1.8725489e-01
-1.0245409e-01
-8.8602583e-03
6.1142341e-02
8.3345150e-02
6.9342629e-02
3.2212440e-02
-1.6287766e-02
-5.5503336e-02
-8.6351107e-02
-1.1522086e-01
-1.2837794e-01
-1.1239957e-01
-1.0194215e-01
-1.4431092e-01
-2.1237782e-01
-2.5547785e-01
-2.5383104e-01
-1.9616939e-01
-7.1456392e-02
1.3201681e-01
3.9986897e-01
6.5084665e-01
7.6071214e-01
6.5998566e-01
4.0308794e-01
1.2296110e-01
-8.5379645e-02
-2.2597023e-01
-3.3693757e-01
-4.1869834e-01
-4.6271717e-01
-4.7390439e-01
-4.6277518e-01
-4.3590960e-01
-3.7638224e-01
-2.5504505e-01
-5.5572850e-02
2.0603796e-01
4.7589485e-01
6.9486173e-01
8.2177728e-01
8.2370232e-01
6.6703714e-01
3.6202666e-01
1.8959006e-02
-2.4485540e-01
-4.0916477e-01
-5.0025912e-01
-5.4054272e-01
-5.4564760e-01
-5.2003215e-01
-4.6105698e-01
-3.6552801e-01
-2.6570194e-01
-1.9026145e-01
-8.7228725e-02
1.1046149e-01
3.8307976e-01
6.2643620e-01
7.6189033e-01
7.8741097e-01
7.2870189e-01
5.7554861e-01
3.0810568e-01
-2.0997098e-03
-2.4880361e-01
-3.9703801e-01
-4.6486292e-01
-4.7440930e-01
-4.4411493e-01
-3.8979367e-01
-3.1682290e-01
-2.2718738e-01
-1.2463160e-01
-8.0804885e-03
1.3036819e-01
2.9765602e-01
4.2274712e-01
3.9603069e-01
2.5350308e-01
1.0836531e-01
5.6572782e-04
-7.2313322e-02
-1.3117435e-01
-2.0270563e-01
-2.8314463e-01
-3.5720167e-01
-4.0797500e-01
-4.1230069e-01
-3.6088230e-01
-2.5143769e-01
-6.9707315e-02
2.0321045e-01
5.2744634e-01
7.6409548e-01
8.0981197e-01
6.6502221e-01
3.9235301e-01
1.1111609e-01
-1.0649473e-01
-2.5687216e-01
-3.4756398e-01
-3.9195886e-01
-4.0309256e-01
-3.9544146e-01
-3.7700706e-01
-3.4445635e-01
-2.9185784e-01
-2.1105981e-01
-7.9694089e-02
1.2282402e-01
3.7835703e-01
6.1614921e-01
7.2704851e-01
6.1589658e-01
3.2295968e-01
1.3192726e-02
-2.0751486e-01
-3.3335693e-01
-3.8446687e-01
-3.7989798e-01
-3.2560628e-01
-2.2133674e-01
-9.3259496e-02
2.0262351e-02
1.3448741e-01
2.9830832e-01
4.4231199e-01
4.3080966e-01
2.7453054e-01
8.0144399e-02
-7.4364163e-02
-1.6987027e-01
-2.2939770e-01
-2.8404632e-01
-3.5308076e-01
-4.2318169e-01
-4.6651768e-01
-4.6275128e-01
-4.0249042e-01
-2.7554906e-01
-6.4174410e-02
2.2642815e-01
5.4726360e-01
8.0559178e-01
9.1251676e-01
8.5341430e-01
6.4310221e-01
3.2335074e-01
2.2840865e-03
-2.3437017e-01
-3.6940471e-01
-4.2191500e-01
-4.1797771e-01
-3.8380001e-01
-3.3815351e-01
-2.6861354e-01
-1.6827610e-01
-5.0838539e-02
7.5764195e-02
1.8893070e-01
2.2775991e-01
1.7265127e-01
9.8577101e-02
4.7379527e-02
-1.0382209e-02
-8.0838296e-02
-1.5289134e-01
-2.2536573e-01
-2.8931581e-01
-3.3699278e-01
-3.5941525e-01
-3.3530204e-01
-2.3568698e-01
-3.8684291e-02
2.3924881e-01
5.2931956e-01
7.4501679e-01
8.2241689e-01
7.2987702e-01
4.7708133e-01
1.4604331e-01
-1.3864991e-01
-3.1234354e-01
-3.8355094e-01
-4.0767707e-01
-4.3490829e-01
-4.4798390e-01
-4.2699052e-01
-3.7747535e-01
-2.8807153e-01
-1.4070380e-01
6.9284019e-02
3.2618299e-01
5.7194427e-01
6.9082086e-01
5.8368959e-01
3.1189829e-01
3.0487940e-02
-2.0515273e-01
-3.9874650e-01
-5.3602393e-01
-5.9822718e-01
-5.7065715e-01
-4.4960643e-01
-2.4780557e-01
3.1416331e-02
3.8135356e-01
7.0840900e-01
8.8377193e-01
8.4074180e-01
5.8720378e-01
2.3235398e-01
-6.6509754e-02
-2.3244330e-01
-2.9471987e-01
-3.3893922e-01
-3.9938746e-01
-4.3236629e-01
-4.1363142e-01
-3.4223911e-01
-2.1650931e-01
-3.6931574e-02
1.9337919e-01
4.2384452e-01
5.3723830e-01
4.4545206e-01
2.1758068e-01
-4.6098386e-03
-1.6845850e-01
-2.7137437e-01
-3.2025332e-01
-3.3092141e-01
-2.9446183e-01
-1.9584602e-01
-7.2038667e-02
-3.2477472e-02
-9.5071896e-02
-1.2998858e-01
-7.1789827e-02
5.4225426e-02
2.3103095e-01
3.9488459e-01
4.6248549e-01
4.5108088e-01
3.9277822e-01
2.2635073e-01
-3.5643429e-02
-2.4027386e-01
-3.0920467e-01
-2.6043574e-01
-1.3354311e-01
2.5696410e-03
1.0696016e-01
1.6023998e-01
1.4872959e-01
9.4778608e-02
3.2129643e-02
-8.1237637e-03
-5.2996473e-03
2.9094850e-02
4.5281578e-02
2.6715310e-03
-7.2672338e-02
-1.3695445e-01
-1.7432469e-01
-1.8267259e-01
-1.6900535e-01
-1.4310266e-01
-1.0447219e-01
-5.0402505e-02
8.0534290e-03
5.6003052e-02
9.3661676e-02
1.3220365e-01
1.7494495e-01
1.7545756e-01
9.6702703e-02
-4.6443257e-03
-8.0937721e-02
-1.3816651e-01
-1.7854339e-01
-1.9863638e-01
-1.9969738e-01
-1.8445352e-01
-1.4982971e-01
-9.9132292e-02
-3.0163226e-02
7.8067134e-02
2.1803949e-01
3.4981991e-01
4.1894517e-01
3.5906536e-01
1.8854007e-01
1.6995618e-02
-9.1479199e-02
-1.4321739e-01
-1.5564822e-01
-1.3952359e-01
-1.0652293e-01
-6.5456192e-02
-1.8916151e-02
1.6367207e-02
2.5861962e-02
2.4101461e-02
2.6036641e-02
2.8263210e-02
1.5622007e-02
-1.4748886e-02
-4.6927586e-02
-7.2702879e-02
-9.1382981e-02
-1.0563745e-01
-1.1735791e-01
-1.1973522e-01
-1.0543569e-01
-7.6213537e-02
-3.9187468e-02
1.5118905e-02
1.0946078e-01
2.3964016e-01
3.4945899e-01
3.4931767e-01
2.1059092e-01
1.6126646e-02
-1.4341252e-01
-2.4240294e-01
-2.8905073e-01
-2.9438036e-01
-2.6047118e-01
-1.8282144e-01
-6.0618466e-02
7.8281717e-02
1.6086144e-01
1.6627982e-01
1.7810146e-01
2.6285097e-01
3.6110352e-01
3.4530186e-01
2.0214881e-01
2.5820327e-02
-1.2077356e-01
-2.2472218e-01
-2.9826726e-01
-3.5480952e-01
-3.9360654e-01
-4.0919281e-01
-3.9411105e-01
-3.3274804e-01
-2.0799999e-01
-8.3739656e-03
2.6440510e-01
5.5721846e-01
7.4574666e-01
7.1450947e-01
5.1144169e-01
3.0804488e-01
1.4416665e-01
-4.0870889e-02
-2.1387474e-01
-3.1448759e-01
-3.3856505e-01
-3.0677469e-01
-2.4484802e-01
-1.6862787e-01
-7.1294100e-02
5.9219989e-02
1.6439453e-01
1.6336946e-01
8.7950018e-02
1.4502243e-02
-2.4229892e-02
-2.2803899e-02
-2.0359619e-02
-6.0669950e-02
-1.2151506e-01
-1.6604376e-01
-1.8635778e-01
-1.8518655e-01
-1.6535240e-01
-1.2593719e-01
-7.7541401e-02
-2.8377390e-02
2.5941917e-02
7.2223401e-02
1.2930335e-01
2.6774518e-01
4.3054066e-01
4.3981216e-01
2.6804069e-01
5.0523259e-02
-9.9983721e-02
-1.4711757e-01
-1.1060228e-01
-7.2098685e-02
-1.0580982e-01
-1.8240362e-01
-2.3321581e-01
-2.3328878e-01
-1.8029895e-01
-6.6228416e-02
1.0412232e-01
2.9359882e-01
4.2361171e-01
4.0104872e-01
2.3701907e-01
4.7391190e-02
-1.0587182e-01
-2.2678795e-01
-3.0938651e-01
-3.4638365e-01
-3.4367501e-01
-3.0407682e-01
-2.1947783e-01
-9.9395098e-02
4.0552570e-02
2.2429679e-01
4.4020798e-01
5.8743747e-01
5.7794225e-01
4.0841741e-01
1.6509461e-01
-4.2838346e-02
-1.7766809e-01
-2.5500870e-01
-3.0769229e-01
-3.6163895e-01
-4.0110046e-01
-4.0448916e-01
-3.7394540e-01
-3.1248269e-01
-2.0889554e-01
-4.9515283e-02
1.5325107e-01
3.5561615e-01
4.9132350e-01
4.7965451e-01
3.0966040e-01
5.6467715e-02
-2.0833236e-01
-4.1134176e-01
-4.8682620e-01
-4.2840033e-01
-2.4427173e-01
2.6332173e-02
2.6396733e-01
4.3351931e-01
5.7456254e-01
6.4243289e-01
5.9292082e-01
4.2229519e-01
1.5431025e-01
-1.1208402e-01
-2.5829562e-01
-2.4624399e-01
-1.2893148e-01
-2.6979115e-02
-3.6926779e-02
-1.3506096e-01
-2.5540738e-01
-3.6100633e-01
-4.1567171e-01
-3.8558927e-01
-2.5937583e-01
-4.2932370e-02
2.2213894e-01
4.4033344e-01
5.3488748e-01
5.1610338e-01
4.1639958e-01
2.3756141e-01
1.4127301e-02
-1.7390497e-01
-2.7713641e-01
-2.9677902e-01
-2.5791078e-01
-2.0478610e-01
-1.7953375e-01
-1.7733234e-01
-1.5607396e-01
-1.0331566e-01
-4.3968310e-02
2.3811123e-02
1.1950824e-01
2.2055745e-01
2.8304849e-01
2.6673050e-01
1.6578075e-01
2.8337142e-02
-1.0874317e-01
-2.2946303e-01
-3.0949623e-01
-3.3504006e-01
-3.0451180e-01
-2.1504619e-01
-5.7019220e-02
1.2027551e-01
2.3162504e-01
2.8217395e-01
3.0078442e-01
2.7279078e-01
1.8593957e-01
7.0811521e-02
-1.2143319e-03
1.1682822e-03
5.4759168e-02
8.6388394e-02
3.3691108e-02
-6.2426792e-02
-1.5551586e-01
-2.4941911e-01
-3.3962177e-01
-3.9282331e-01
-3.7726035e-01
-2.9278997e-01
-1.4416429e-01
3.2682569e-02
1.9197611e-01
3.5288369e-01
5.0822650e-01
5.7242528e-01
4.6606567e-01
2.0586029e-01
-8.5772115e-02
-2.9926623e-01
-4.0451054e-01
-4.1599508e-01
-3.4849690e-01
-2.0468332e-01
-2.3008078e-03
2.2912305e-01
4.3801491e-01
5.3660172e-01
4.5901278e-01
2.4427406e-01
2.3989287e-02
-1.1854587e-01
-1.8807622e-01
-2.0347962e-01
-1.8953849e-01
-1.8712100e-01
-2.2620676e-01
-3.0125296e-01
-3.6565014e-01
-3.7168903e-01
-3.0009157e-01
-1.5538088e-01
4.4350043e-02
2.8574266e-01
5.2729121e-01
6.7636523e-01
6.5591630e-01
4.6016448e-01
1.8311426e-01
-3.1169782e-02
-1.2679046e-01
-1.6995131e-01
-2.3266733e-01
-2.8823019e-01
-2.9487956e-01
-2.6505255e-01
-2.1444142e-01
-1.4717005e-01
-6.1964303e-02
4.9567167e-02
1.8123194e-01
2.8098535e-01
2.8788162e-01
2.0424358e-01
8.7747599e-02
-1.1751450e-02
-7.7783925e-02
-1.1475413e-01
-1.3292806e-01
-1.3859515e-01
-1.3636743e-01
-1.3963481e-01
-1.5311656e-01
-1.6675174e-01
-1.7928624e-01
-1.9297832e-01
-1.9915002e-01
-1.9791560e-01
-1.8667198e-01
-1.2622119e-01
2.1073195e-02
2.5397832e-01
5.1558473e-01
7.1269005e-01
7.6998867e-01
6.3670801e-01
3.5303789e-01
5.5922177e-02
-1.6285917e-01
-2.9425782e-01
-3.5402216e-01
-3.6064110e-01
-3.2999831e-01
-2.7484428e-01
-2.0747424e-01
-1.3622523e-01
-6.2406991e-02
1.6842744e-02
9.3316157e-02
1.4617766e-01
1.6280904e-01
1.3423970e-01
6.5656357e-02
-2.9854645e-03
-4.5123311e-02
-6.5454249e-02
-6.7309041e-02
-7.1846219e-02
-1.0627495e-01
-1.5307211e-01
-1.8097892e-01
-1.8915275e-01
-1.7875638e-01
-1.2751398e-01
-1.7898094e-02
1.5653540e-01
3.7228440e-01
5.1977525e-01
4.9085349e-01
3.2526059e-01
1.4031837e-01
-1.1663266e-02
-1.2805186e-01
-2.0733057e-01
-2.5505480e-01
-2.7690618e-01
-2.7065238e-01
-2.3905279e-01
-2.0171028e-01
-1.7624738e-01
-1.5006601e-01
-1.0121197e-01
-2.0768975e-02
9.9919023e-02
2.6345737e-01
4.4223866e-01
5.5277543e-01
5.0122167e-01
3.0564587e-01
8.0442517e-02
-9.1718080e-02
-1.9396067e-01
-2.4225057e-01
-2.5301431e-01
-2.3163734e-01
-1.8384525e-01
-1.1722941e-01
-4.6735809e-02
4.1473239e-03
2.1666212e-02
2.2302570e-02
3.6560596e-02
5.3416574e-02
3.7569064e-02
-4.7965434e-03
-4.4314984e-02
-6.9839310e-02
-8.9283463e-02
-1.2118945e-01
-1.6861635e-01
-2.1436510e-01
-2.3919883e-01
-2.2317403e-01
-1.5220807e-01
-1.2405058e-02
1.9846114e-01
4.4114276e-01
6.4415100e-01
7.1132803e-01
5.6499871e-01
2.7017916e-01
-8.0429185e-03
-2.0108989e-01
-3.2151309e-01
-3.7239219e-01
-3.6888052e-01
-3.3100274e-01
-2.6644736e-01
-1.8535562e-01
-1.0594935e-01
-3.3206521e-02
4.6045095e-02
1.1124587e-01
1.2304135e-01
8.5103348e-02
2.9464967e-02
-2.2955216e-04
2.8803547e-02
1.1454211e-01
2.1859532e-01
2.4804768e-01
1.6828588e-01
6.1448935e-02
-4.7694040e-02
-1.8333574e-01
-3.0753995e-01
-3.7968613e-01
-3.9179963e-01
-3.4458237e-01
-2.3124311e-01
-4.2160425e-02
2.3009837e-01
5.3397398e-01
7.2483565e-01
6.9964359e-01
4.8401521e-01
1.9750851e-01
-3.9844783e-02
-1.9196034e-01
-2.8499197e-01
-3.4702279e-01
-3.7701976e-01
-3.6588752e-01
-3.1801354e-01
-2.4228300e-01
-1.4199723e-01
-2.7349742e-02
8.3002312e-02
1.7749762e-01
2.3258915e-01
2.3411256e-01
2.2676235e-01
2.3556230e-01
2.1398079e-01
1.2998994e-01
5.1942041e-03
-1.1194938e-01
-1.8767130e-01
-2.1805515e-01
-2.2896928e-01
-2.6001331e-01
-3.1529741e-01
-3.6211717e-01
-3.6625233e-01
-3.0605539e-01
-1.6864816e-01
5.6378690e-02
3.5348570e-01
6.2742509e-01
7.5813292e-01
7.2446153e-01
5.5249242e-01
2.8738407e-01
3.2561302e-02
-1.6187738e-01
-3.0273894e-01
-3.8365383e-01
-3.9640312e-01
-3.4120495e-01
-2.5544045e-01
-2.0393283e-01
-2.0028214e-01
-1.9067835e-01
-1.3172376e-01
-1.9446172e-02
1.3932258e-01
3.1839434e-01
4.5517432e-01
4.8432776e-01
3.8220625e-01
1.8235053e-01
-4.7351768e-02
-2.4195793e-01
-3.7512048e-01
-4.5090504e-01
-4.6760441e-01
-4.1902803e-01
-2.9672916e-01
-9.4302004e-02
1.5856284e-01
3.5631040e-01
3.9184327e-01
3.3324721e-01
3.4418725e-01
4.3396659e-01
4.7972653e-01
3.7120313e-01
1.2946977e-01
-9.4551812e-02
-2.0617490e-01
-2.2250808e-01
-2.2684791e-01
-2.7460529e-01
-3.2176020e-01
-3.3167600e-01
-3.0918491e-01
-2.5522861e-01
-1.7138934e-01
-6.0332282e-02
6.8086950e-02
1.7310776e-01
1.9640683e-01
1.5972453e-01
1.5712132e-01
1.9488061e-01
1.9501532e-01
1.2251968e-01
1.9735136e-02
-3.6994054e-02
-1.1288862e-02
7.6889102e-02
1.1778564e-01
3.5250464e-02
-7.2411134e-02
-1.3115259e-01
-1.5724823e-01
-1.6788771e-01
-1.6465680e-01
-1.2339035e-01
-2.7541694e-02
1.0109108e-01
1.6600297e-01
1.1894906e-01
4.8170487e-02
-6.1387549e-03
-7.7911648e-02
-1.6002518e-01
-2.0879297e-01
-1.9332816e-01
-1.1998933e-01
-3.7862420e-02
-3.3329419e-02
-1.1037314e-01
-1.5580421e-01
-1.0510540e-01
2.4075402e-02
1.6332974e-01
2.6748566e-01
3.9074815e-01
5.3136133e-01
5.8624965e-01
4.7062023e-01
2.3068457e-01
2.1409929e-02
-9.9976728e-02
-1.8211810e-01
-2.5353995e-01
-3.0963717e-01
-3.3289660e-01
-3.1707203e-01
-2.7388179e-01
-2.4053055e-01
-2.5308697e-01
-2.8902967e-01
-3.0131733e-01
-2.6397308e-01
-1.6626429e-01
-1.0813522e-02
1.7126774e-01
3.5539443e-01
5.2308896e-01
5.9168788e-01
5.1311407e-01
3.4230433e-01
1.4836585e-01
-1.6273708e-02
-1.2657828e-01
-2.0184498e-01
-2.5338413e-01
-2.4756379e-01
-1.6690861e-01
-1.3937895e-02
1.6734170e-01
2.7938081e-01
2.7405635e-01
1.7059960e-01
2.6346771e-02
-1.0993299e-01
-2.2194634e-01
-2.8667482e-01
-2.9244328e-01
-2.4851851e-01
-1.7056827e-01
-7.5178944e-02
3.4240280e-02
1.3206049e-01
1.4404189e-01
4.8124183e-02
-6.5097622e-02
-1.1114548e-01
-7.2669045e-02
4.0063342e-02
1.3982106e-01
1.1341998e-01
1.9775886e-03
-7.4660489e-02
-6.4785392e-02
2.5704766e-02
1.3670673e-01
1.8876229e-01
1.1410792e-01
-5.6254872e-02
-1.7535713e-01
-1.7147383e-01
-6.3455167e-02
1.2370735e-01
3.2267247e-01
4.1373984e-01
3.2196110e-01
1.1636365e-01
-7.5469517e-02
-2.0661597e-01
-2.8100274e-01
-2.9708625e-01
-2.5718617e-01
-1.7005022e-01
-5.7495997e-02
1.9557053e-02
1.2064661e-02
-3.6438311e-02
-6.0887725e-02
-4.4678253e-02
9.7496853e-03
1.0482915e-01
2.1342827e-01
2.6667639e-01
2.3470712e-01
1.4670541e-01
3.9605839e-02
-5.6812119e-02
-1.2393883e-01
-1.6198737e-01
-1.7375017e-01
-1.5188997e-01
-9.1361203e-02
6.9451857e-03
1.1921566e-01
1.8488657e-01
1.6507805e-01
8.8972352e-02
9.4697120e-03
-5.4370232e-02
-9.8713241e-02
-1.0680453e-01
-9.5400127e-02
-9.6366422e-02
-1.0066055e-01
-1.0181064e-01
-1.1222396e-01
-1.2793768e-01
-1.3567501e-01
-1.2854841e-01
-9.6582153e-02
-2.1187987e-02
1.1681017e-01
3.0466266e-01
4.6602435e-01
4.9806441e-01
3.6233812e-01
1.3629321e-01
-6.6365204e-02
-2.0127049e-01
-2.7844353e-01
-3.1160408e-01
-3.0965264e-01
-2.7951625e-01
-2.2245269e-01
-1.3398240e-01
-1.8422646e-02
9.9919468e-02
2.1395693e-01
3.5147372e-01
4.4593786e-01
3.7617473e-01
1.9079889e-01
1.6800537e-02
-1.0230633e-01
-1.6693723e-01
-2.1227212e-01
-2.7800968e-01
-3.4706100e-01
-3.8861391e-01
-3.9038873e-01
-3.4205879e-01
-2.3495415e-01
-5.9169884e-02
1.9440794e-01
4.8433608e-01
6.8457642e-01
6.8819655e-01
5.3716699e-01
3.5227099e-01
1.7624965e-01
-2.3965212e-03
-1.6153301e-01
-2.6499499e-01
-3.0428322e-01
-2.9112341e-01
-2.4183466e-01
-1.7356116e-01
-1.0485963e-01
-4.6361340e-02
3.8934543e-03
4.3478997e-02
6.9244709e-02
7.7636043e-02
5.9131223e-02
1.6979604e-02
-3.6344063e-02
-9.9466902e-02
-1.6587621e-01
-2.1748826e-01
-2.4519507e-01
-2.4665647e-01
-2.1945464e-01
-1.5977100e-01
-6.0897531e-02
8.3033013e-02
2.7653560e-01
4.8661293e-01
6.0305952e-01
5.6990967e-01
4.2198335e-01
1.9150950e-01
-4.0591886e-02
-2.0346270e-01
-2.9254480e-01
-3.1705174e-01
-2.9496178e-01
-2.6367716e-01
-2.5462619e-01
-2.5085820e-01
-2.1838182e-01
-1.4201694e-01
-2.4876852e-02
1.2958804e-01
2.9495208e-01
4.1955093e-01
4.6530812e-01
3.8767016e-01
1.9425459e-01
-1.9578735e-02
-1.8327718e-01
-2.8964781e-01
-3.5276481e-01
-3.8804125e-01
-3.9614557e-01
-3.6274955e-01
-2.7896374e-01
-1.4613616e-01
4.2974052e-02
2.9388064e-01
5.6049958e-01
7.3994902e-01
7.3278185e-01
5.2857760e-01
2.3087897e-01
-4.1368413e-02
-2.3126050e-01
-3.3180522e-01
-3.7124605e-01
-3.8494037e-01
-3.8478771e-01
-3.7411004e-01
-3.5385532e-01
-3.0939585e-01
-2.2025596e-01
-6.9297865e-02
1.5674436e-01
4.3629163e-01
6.5645612e-01
6.7134687e-01
4.8266390e-01
2.2082879e-01
-1.8175641e-02
-1.8931332e-01
-2.8262089e-01
-3.1665698e-01
-3.0382547e-01
-2.4258254e-01
-1.5057825e-01
-9.0504256e-02
-8.7685538e-02
-9.2176035e-02
-6.8841226e-02
-3.8979681e-03
9.1185771e-02
1.7963413e-01
2.6557032e-01
3.2187867e-01
2.7518544e-01
1.3504627e-01
-1.5689088e-02
-1.1836247e-01
-1.7551840e-01
-2.1408225e-01
-2.4915830e-01
-2.6787328e-01
-2.2873735e-01
-1.1000947e-01
8.8944366e-02
2.7864597e-01
3.4962956e-01
3.3989306e-01
2.7137372e-01
1.1598207e-01
-7.5203936e-02
-2.2393724e-01
-2.9058407e-01
-2.8068822e-01
-2.2671630e-01
-1.9232976e-01
-2.0016302e-01
-1.7507803e-01
-7.3284243e-02
8.5175877e-02
2.4910846e-01
3.5699699e-01
4.1030725e-01
4.5156831e-01
4.6572108e-01
3.4786021e-01
1.0177324e-01
-1.2269555e-01
-2.6137542e-01
-3.3766897e-01
-3.7760584e-01
-3.9603381e-01
-3.8001474e-01
-3.1180066e-01
-1.8928886e-01
-3.7415577e-02
1.2758522e-01
3.0059280e-01
4.4346595e-01
4.9372546e-01
3.8668504e-01
1.5873350e-01
-5.5703928e-02
-1.8528635e-01
-2.3462507e-01
-2.4285910e-01
-2.3972728e-01
-2.0334219e-01
-1.2782723e-01
-3.7039897e-02
6.3011631e-02
1.3758613e-01
1.4457600e-01
1.3323792e-01
1.7688761e-01
2.0749795e-01
1.2978256e-01
1.0404892e-02
-8.3498735e-02
-1.5695555e-01
-2.1852151e-01
-2.7482003e-01
-3.0293054e-01
-2.8283121e-01
-2.2566783e-01
-1.7480485e-01
-1.4067990e-01
-5.7480558e-02
1.2071999e-01
3.7630473e-01
6.2249811e-01
7.2063721e-01
6.0049732e-01
3.2823142e-01
4.5177586e-02
-1.5091418e-01
-2.4752835e-01
-2.6676889e-01
-2.3627230e-01
-1.8103522e-01
-1.1608766e-01
-6.6793304e-02
-4.7580374e-02
-3.2698061e-02
-4.7760916e-03
1.9556790e-02
1.7537369e-02
-1.0925660e-02
-4.6764902e-02
-7.4097353e-02
-8.4638402e-02
-8.3554890e-02
-8.4711428e-02
-9.2000697e-02
-9.9027388e-02
-1.1381629e-01
-1.4226681e-01
-1.5270415e-01
-1.1770458e-01
-3.4432705e-02
9.9349228e-02
2.5201654e-01
3.5825768e-01
3.9829147e-01
3.8550125e-01
2.8741391e-01
1.0990457e-01
-5.2326177e-02
-1.5026026e-01
-1.9602293e-01
-2.0201413e-01
-1.7693467e-01
-1.2213607e-01
-4.7387463e-02
2.6769362e-02
7.7358698e-02
8.8572422e-02
6.8279838e-02
3.1227751e-02
-1.1473140e-02
-4.5103321e-02
-6.9722027e-02
-9.6132233e-02
-1.1759514e-01
-1.2585022e-01
-1.2432828e-01
-1.1644580e-01
-1.0075663e-01
-6.7479799e-02
-1.2613055e-02
6.0671128e-02
1.4643134e-01
2.1871644e-01
2.4669403e-01
2.3817257e-01
2.1008968e-01
1.4365055e-01
3.8785661e-02
-6.4235190e-02
-1.3777550e-01
-1.7739810e-01
-1.9126872e-01
-1.9996205e-01
-2.1696982e-01
-2.3185756e-01
-2.2927260e-01
-2.0373218e-01
-1.4376018e-01
-3.0848914e-02
1.4379968e-01
3.5907940e-01
5.3847066e-01
5.7386963e-01
4.2781238e-01
1.9211298e-01
-1.3250613e-02
-1.4520615e-01
-2.1607170e-01
-2.4533797e-01
-2.4253412e-01
-2.1654849e-01
-1.7813257e-01
-1.2535335e-01
-6.0245643e-02
1.2952610e-02
1.0411455e-01
1.9750321e-01
2.4083382e-01
2.0430379e-01
1.1181564e-01
6.1222500e-03
-9.4374571e-02
-1.8875837e-01
-2.6690558e-01
-3.1386163e-01
-3.2014048e-01
-2.9660217e-01
-2.6332453e-01
-2.0736642e-01
-9.4973012e-02
9.4605040e-02
3.4842312e-01
5.8888948e-01
6.9425362e-01
5.8404714e-01
3.1323044e-01
3.5101160e-02
-1.5774342e-01
-2.5704148e-01
-2.7131298e-01
-2.1376569e-01
-1.0238107e-01
-5.6836790e-03
-1.1959435e-02
-9.0476512e-02
-1.4406739e-01
-1.3784349e-01
-7.7607301e-02
2.2970699e-02
1.3365156e-01
2.2700183e-01
2.5824403e-01
1.6863557e-01
-8.5985057e-03
-1.7635284e-01
-2.8541681e-01
-3.3483767e-01
-3.3692541e-01
-3.0283474e-01
-2.3664805e-01
-1.3250197e-01
-7.2340836e-04
9.8251160e-02
1.1899419e-01
1.3105935e-01
2.5536790e-01
4.9311407e-01
6.9904085e-01
7.2968364e-01
5.4702692e-01
2.3341149e-01
-6.7408487e-02
-2.6702433e-01
-3.7807316e-01
-4.5316444e-01
-5.0043364e-01
-5.2181245e-01
-5.2709520e-01
-4.8508348e-01
-3.6874186e-01
-1.7113502e-01
1.1792375e-01
4.7083286e-01
7.6190589e-01
8.3802542e-01
6.7085910e-01
3.7678811e-01
8.9939620e-02
-1.3265830e-01
-2.8315284e-01
-3.6324387e-01
-3.7553950e-01
-3.2914394e-01
-2.4667439e-01
-1.5764178e-01
-6.9316698e-02
3.7969204e-02
1.6182452e-01
2.4660887e-01
2.1967373e-01
9.6811802e-02
-3.3316463e-02
-1.2256927e-01
-1.6394803e-01
-1.6064539e-01
-1.1551211e-01
-7.5730437e-02
-1.0369719e-01
-1.5774880e-01
-1.6209459e-01
-9.1833063e-02
5.5740320e-02
2.6490225e-01
4.7694839e-01
5.6607956e-01
4.3817400e-01
1.7892947e-01
-5.3026275e-02
-2.0372856e-01
-2.8468810e-01
-3.1196468e-01
-3.0488895e-01
-2.7180859e-01
-2.1067686e-01
-1.4221289e-01
-9.3177517e-02
-4.3321993e-02
3.4450200e-02
1.4405869e-01
2.6892532e-01
3.3090674e-01
2.8423797e-01
1.7397538e-01
2.1274856e-02
-1.6497587e-01
-3.3355895e-01
-4.3403640e-01
-4.5350149e-01
-3.9776940e-01
-2.6960341e-01
-1.0180081e-01
5.4930022e-02
1.9875945e-01
3.6243964e-01
5.2573409e-01
6.0542476e-01
5.9273250e-01
5.6564794e-01
5.0822444e-01
3.1960734e-01
2.8886936e-02
-2.1652509e-01
-3.5052546e-01
-3.9093812e-01
-3.6850347e-01
-3.4055896e-01
-3.4684527e-01
-3.6575488e-01
-3.7218468e-01
-3.5908828e-01
-3.1747308e-01
-2.3944162e-01
-1.1974466e-01
4.6761178e-02
2.3126330e-01
3.4911231e-01
3.8707588e-01
4.0710535e-01
4.0266765e-01
3.2571963e-01
1.6401866e-01
-2.4051902e-02
-1.5054823e-01
-1.9011961e-01
-1.8000964e-01
-1.3962435e-01
-6.4860790e-02
2.6908952e-02
1.1048307e-01
1.5388785e-01
1.2695065e-01
5.8409718e-02
2.8052310e-02
7.2395734e-02
1.1081615e-01
1.3090061e-02
-2.1128696e-01
-4.2981062e-01
-5.4508479e-01
-5.1750696e-01
-3.4564303e-01
-5.9013910e-02
2.6165702e-01
4.9178024e-01
5.5889553e-01
4.9979237e-01
3.7937180e-01
1.9549453e-01
-2.7460353e-02
-1.8123087e-01
-1.9134736e-01
-5.9648573e-02
1.4821818e-01
3.1368296e-01
3.2946652e-01
1.8683721e-01
-7.4485229e-03
-1.4593587e-01
-2.1164065e-01
-2.2636688e-01
-2.0711336e-01
-1.7890513e-01
-1.5006168e-01
-1.0028226e-01
-3.2690640e-02
2.0294120e-02
3.3787648e-02
-1.3909046e-03
-6.6176125e-02
-1.2904315e-01
-1.7106286e-01
-1.8598883e-01
-1.7463995e-01
-1.3798133e-01
-8.9215758e-02
-5.4578588e-02
-3.3983891e-02
3.9032608e-03
7.9214666e-02
1.8877008e-01
2.9648678e-01
3.3057146e-01
2.7276160e-01
2.0147302e-01
1.7176183e-01
1.2958448e-01
2.6077364e-02
-9.0494367e-02
-1.7619556e-01
-2.3177326e-01
-2.6231578e-01
-2.7452869e-01
-2.7069722e-01
-2.4489606e-01
-1.9096395e-01
-1.1474835e-01
-1.3077491e-02
1.2884537e-01
2.9949686e-01
4.6095618e-01
5.3139292e-01
4.3768898e-01
2.3238598e-01
2.6888270e-02
-1.1879946e-01
-1.9959740e-01
-2.4064112e-01
-2.5945001e-01
-2.5326787e-01
-2.2033328e-01
-1.6328022e-01
-8.6825590e-02
3.3337731e-04
8.9975721e-02
1.7828109e-01
2.4045208e-01
2.2700665e-01
1.3731144e-01
2.8091878e-02
-5.7510221e-02
-1.1040086e-01
-1.4008276e-01
-1.5509562e-01
-1.5408687e-01
-1.3879633e-01
-1.2263587e-01
-1.0634450e-01
-6.2154453e-02
2.6288721e-02
1.4870373e-01
2.8009743e-01
3.5218734e-01
2.9890997e-01
1.5877759e-01
1.5415175e-02
-9.7504223e-02
-1.7423697e-01
-2.1053748e-01
-2.0890609e-01
-1.7885392e-01
-1.2724982e-01
-6.9801181e-02
-2.6139234e-02
1.1930533e-02
6.8862169e-02
1.5697568e-01
2.3129068e-01
2.2524907e-01
1.4523943e-01
3.6570494e-02
-6.1313049e-02
-1.2626746e-01
-1.6235288e-01
-1.8069040e-01
-1.9335797e-01
-2.0762218e-01
-2.0511126e-01
-1.5498230e-01
-4.6907273e-02
1.0721516e-01
2.8746680e-01
4.4067766e-01
4.6233982e-01
3.2364151e-01
1.3234459e-01
-1.3646942e-02
-1.0763265e-01
-1.7255498e-01
-2.1086602e-01
-2.1633808e-01
-1.8727983e-01
-1.4246545e-01
-1.0916951e-01
-8.4254056e-02
-5.4197713e-02
-1.4103388e-02
3.8985919e-02
1.0264992e-01
1.6837851e-01
2.2166309e-01
2.4082410e-01
1.9029150e-01
7.3823999e-02
-4.1674094e-02
-1.1565179e-01
-1.5341555e-01
-1.6833498e-01
-1.7669212e-01
-1.8499046e-01
-1.8509202e-01
-1.6973139e-01
-1.3004479e-01
-5.6131911e-02
4.7713295e-02
1.7603272e-01
3.3359925e-01
4.4400745e-01
3.8518394e-01
1.9514731e-01
1.0591309e-02
-1.0033383e-01
-1.3705440e-01
-1.3544489e-01
-1.3092031e-01
-1.2270378e-01
-1.0632191e-01
-9.9888785e-02
-1.0638135e-01
-1.0148652e-01
-7.0939707e-02
-1.5072608e-02
6.2668009e-02
1.2959341e-01
1.3423727e-01
6.7411446e-02
-2.8976885e-02
-1.1166279e-01
-1.6523168e-01
-1.8898955e-01
-1.7389029e-01
-1.0726011e-01
1.2712831e-02
1.5391715e-01
2.4185109e-01
2.5546514e-01
2.7106319e-01
2.8815653e-01
2.2323446e-01
9.6851472e-02
-1.8992766e-02
-9.8200447e-02
-1.3440486e-01
-1.5113350e-01
-1.8623711e-01
-2.3279941e-01
-2.6263818e-01
-2.7445555e-01
-2.7008342e-01
-2.2826841e-01
-1.3101836e-01
2.2650933e-02
2.3216407e-01
4.5636337e-01
5.7451977e-01
4.9940435e-01
3.0515043e-01
1.1230942e-01
-4.9022837e-02
-1.7619732e-01
-2.5419979e-01
-2.7890683e-01
-2.5952454e-01
-2.1942780e-01
-1.8042451e-01
-1.4103878e-01
-7.9063205e-02
-1.0454033e-02
3.0831799e-02
6.0416143e-02
1.1154632e-01
1.9705573e-01
2.9199658e-01
3.2230480e-01
2.2910660e-01
7.0704643e-02
-4.7163828e-02
-1.0708360e-01
-1.3928274e-01
-1.4937643e-01
-1.3484140e-01
-9.8990138e-02
-4.5945118e-02
9.9307382e-03
1.8956878e-02
-6.2530351e-02
-1.9592090e-01
-3.1123113e-01
-3.7427485e-01
-3.7764469e-01
-3.1836692e-01
-1.8957351e-01
1.3659941e-02
2.6549106e-01
4.9668021e-01
6.5998871e-01
7.4231129e-01
7.2287021e-01
5.7190792e-01
2.9615694e-01
-9.8135902e-03
-2.4327518e-01
-3.8214606e-01
-4.4641024e-01
-4.6603790e-01
-4.7605020e-01
-4.8172937e-01
-4.5722954e-01
-3.8279926e-01
-2.5054402e-01
-4.8988043e-02
2.1667530e-01
4.9552163e-01
7.0758292e-01
7.6507345e-01
6.3037344e-01
3.6598493e-01
7.7901240e-02
-1.5203874e-01
-2.9491850e-01
-3.6201588e-01
-3.7031901e-01
-3.3479255e-01
-2.7367224e-01
-2.2401816e-01
-2.0968264e-01
-1.9733359e-01
-1.5503099e-01
-7.6562633e-02
5.0483499e-02
2.2225913e-01
3.9801329e-01
5.1503409e-01
5.2379703e-01
3.7644605e-01
1.0345920e-01
-1.4308784e-01
-2.8915547e-01
-3.6862805e-01
-4.0170958e-01
-3.8328951e-01
-3.0028132e-01
-1.5069769e-01
4.8025562e-02
2.5441081e-01
3.8099871e-01
3.8772859e-01
3.2487956e-01
2.2018825e-01
7.9581453e-02
-7.1838201e-02
-1.8140226e-01
-2.1199054e-01
-1.7578568e-01
-1.3522722e-01
-1.6665842e-01
-2.5760610e-01
-3.3286989e-01
-3.4632302e-01
-2.8220578e-01
-1.2580846e-01
1.2462449e-01
4.1909331e-01
6.7326280e-01
8.0178221e-01
7.3679951e-01
4.7899134e-01
1.3053452e-01
-1.7475575e-01
-3.8660164e-01
-5.1604483e-01
-5.6931939e-01
-5.5206119e-01
-4.7478451e-01
-3.4641119e-01
-1.8248180e-01
-1.3704148e-02
1.6962624e-01
3.9972473e-01
6.2749895e-01
7.3517943e-01
6.1597910e-01
3.1390117e-01
1.2331463e-02
-1.8841710e-01
-2.8768308e-01
-3.1288202e-01
-3.0983801e-01
-2.9844312e-01
-2.7392919e-01
-2.2945116e-01
-1.5995487e-01
-6.0932766e-02
6.5720516e-02
2.0276338e-01
2.9322060e-01
2.6660786e-01
1.4834307e-01
2.2796768e-02
-7.9507826e-02
-1.5575519e-01
-1.9460337e-01
-1.8577253e-01
-1.2776923e-01
-3.9436223e-02
3.2146684e-02
5.6010045e-02
5.3045705e-02
5.3833725e-02
6.9727048e-02
9.8889517e-02
1.2884683e-01
1.3444623e-01
1.2713231e-01
1.1412985e-01
5.6857083e-02
-3.9674614e-02
-1.4227408e-01
-2.2822750e-01
-2.8588209e-01
-3.1365140e-01
-3.0478199e-01
-2.4939968e-01
-1.4039523e-01
2.8568879e-03
1.6214546e-01
3.6096646e-01
5.5236812e-01
6.0596393e-01
4.8875186e-01
2.7757234e-01
6.1219137e-02
-1.0402035e-01
-2.0739008e-01
-2.5986089e-01
-2.8201699e-01
-2.9115276e-01
-2.8706374e-01
-2.7159404e-01
-2.5506471e-01
-2.4536157e-01
-2.4245144e-01
-2.2954142e-01
-1.9362582e-01
-1.4168509e-01
-8.4122743e-02
-5.3176648e-02
-3.6461479e-02
5.6907312e-02
2.4799300e-01
4.6047867e-01
6.1574303e-01
6.7369928e-01
6.6672554e-01
6.3310395e-01
5.2359481e-01
2.8642355e-01
-2.7407398e-02
-3.0171978e-01
-4.7088622e-01
-5.3196871e-01
-4.9522300e-01
-3.7615443e-01
-1.9193259e-01
1.2550289e-02
1.2953260e-01
9.2249941e-02
-2.2826219e-02
-1.1756994e-01
-1.6214175e-01
-1.5147426e-01
-1.0051211e-01
-3.5732319e-02
5.6692814e-02
1.9308304e-01
3.1786130e-01
3.3400081e-01
2.3019808e-01
9.5356654e-02
-1.5533418e-02
-9.4844828e-02
-1.3906601e-01
-1.5873015e-01
-1.6474903e-01
-1.5236526e-01
-1.2254029e-01
-1.0720918e-01
-1.2862865e-01
-1.6636960e-01
-1.9329225e-01
-1.8766504e-01
-1.2772029e-01
-1.1998677e-02
1.3353338e-01
2.8446529e-01
4.0456421e-01
4.0575234e-01
2.8167853e-01
1.6272689e-01
1.1114521e-01
8.8029030e-02
4.5829029e-02
-4.2510495e-02
-1.5124815e-01
-2.3661098e-01
-2.8136049e-01
-2.9502172e-01
-2.8835771e-01
-2.5896356e-01
-2.0350088e-01
-1.2272581e-01
-2.8917173e-02
7.4966597e-02
2.0520655e-01
3.4735588e-01
4.2606484e-01
3.7190360e-01
2.2511206e-01
8.6982134e-02
-4.9904958e-03
-6.2928541e-02
-1.0120391e-01
-1.3070780e-01
-1.4356833e-01
-1.2973791e-01
-9.2638213e-02
-7.2434946e-02
-1.0264563e-01
-1.4527200e-01
-1.6315458e-01
-1.5266226e-01
-1.1008195e-01
-3.6311310e-02
5.8139869e-02
1.6624207e-01
2.6849364e-01
2.9195647e-01
2.0411385e-01
7.7975867e-02
-2.9948583e-02
-1.1064993e-01
-1.5184639e-01
-1.5743926e-01
-1.3920246e-01
-7.9462076e-02
1.7642940e-02
7.6009640e-02
6.3911589e-02
5.2859089e-02
8.7016553e-02
1.4398561e-01
1.8354610e-01
1.5465979e-01
5.6433974e-02
-3.6688721e-02
-8.6620270e-02
-1.3176239e-01
-1.9774321e-01
-2.5543496e-01
-2.8225683e-01
-2.8571247e-01
-2.7190452e-01
-2.3454895e-01
-1.5376860e-01
-1.1896912e-02
1.8448686e-01
3.7726592e-01
5.1690293e-01
6.0047471e-01
5.9539178e-01
4.4760562e-01
1.8302072e-01
-8.0007556e-02
-2.5689905e-01
-3.3992392e-01
-3.5293652e-01
-3.4061215e-01
-3.2405645e-01
-2.8269030e-01
-2.0637209e-01
-1.0597991e-01
6.6134875e-03
1.1535667e-01
2.0866143e-01
2.9103275e-01
3.6842411e-01
3.5763051e-01
1.9876785e-01
1.1248450e-02
-1.1619590e-01
-2.0330439e-01
-2.7407867e-01
-3.3468627e-01
-3.6110010e-01
-3.3602936e-01
-2.7004814e-01
-1.7988465e-01
-5.3857146e-02
1.4085659e-01
3.9926335e-01
6.3564876e-01
7.0858983e-01
5.4020378e-01
2.3029327e-01
-3.9216973e-02
-1.9486896e-01
-2.5080723e-01
-2.3006092e-01
-1.6869052e-01
-1.1297026e-01
-9.7402415e-02
-1.1298939e-01
-1.1971924e-01
-8.6860115e-02
-9.1928015e-03
9.7086958e-02
1.7265598e-01
1.6157794e-01
8.6845272e-02
-7.2138420e-03
-9.6826048e-02
-1.6825733e-01
-2.1620434e-01
-2.3852981e-01
-2.3736790e-01
-2.1642471e-01
-1.8639646e-01
-1.4340791e-01
-5.2124805e-02
1.0756845e-01
3.1679916e-01
5.1208761e-01
5.9552328e-01
4.8943768e-01
2.3646213e-01
-6.8102455e-03
-1.5550218e-01
-2.2247143e-01
-2.2931393e-01
-1.9241462e-01
-1.2880031e-01
-6.7491586e-02
-2.6954054e-02
-5.8836112e-03
1.7379980e-03
9.8251967e-03
1.9338284e-02
1.8921534e-02
9.2917050e-03
-6.0613539e-03
-2.1438525e-02
-4.0965890e-02
-7.6115318e-02
-1.1807208e-01
-1.5360340e-01
-1.8160749e-01
-2.0637675e-01
-2.1824371e-01
-1.8901416e-01
-9.6612325e-02
6.8379502e-02
2.9805956e-01
5.2302740e-01
6.1282366e-01
5.0911215e-01
2.9310668e-01
7.3603518e-02
-9.7399910e-02
-2.1027127e-01
-2.7001145e-01
-2.8466302e-01
-2.6542417e-01
-2.3171706e-01
-2.0778404e-01
-1.9856708e-01
-1.8524749e-01
-1.5575896e-01
-9.8651862e-02
9.0750916e-03
1.7152914e-01
3.6073273e-01
5.1775652e-01
5.4811088e-01
3.9509064e-01
1.4456893e-01
-6.7106645e-02
-1.9941334e-01
-2.6869321e-01
-2.8692129e-01
-2.6386831e-01
-2.1002602e-01
-1.3513233e-01
-5.4161683e-02
1.0637244e-02
6.1230423e-02
1.2024644e-01
1.9621666e-01
2.4599427e-01
2.0007732e-01
8.1828296e-02
-3.1374496e-02
-1.1362848e-01
-1.7357584e-01
-2.2128778e-01
-2.5503337e-01
-2.7298615e-01
-2.7328973e-01
-2.4093311e-01
-1.5668383e-01
-5.8953173e-03
2.0897853e-01
4.4002639e-01
5.9264819e-01
5.5795225e-01
3.3948262e-01
8.9247920e-02
-8.6515333e-02
-1.8813375e-01
-2.3788651e-01
-2.4819599e-01
-2.2302406e-01
-1.6693161e-01
-9.9195419e-02
-4.3092644e-02
7.2472764e-03
7.0941661e-02
1.5792751e-01
2.1833081e-01
1.8303643e-01
8.4072638e-02
-1.0397448e-02
-8.0230321e-02
-1.3252255e-01
-1.8301272e-01
-2.4260706e-01
-2.9935546e-01
-3.3064552e-01
-3.3544799e-01
-3.1505767e-01
-2.4572709e-01
-1.0079734e-01
1.3487429e-01
4.3363836e-01
6.9421686e-01
8.1192284e-01
7.4721157e-01
5.1627684e-01
1.8860637e-01
-1.2347925e-01
-3.4079463e-01
-4.5462731e-01
-4.8083388e-01
-4.4116198e-01
-3.8604827e-01
-3.5036101e-01
-2.9651251e-01
-1.7013778e-01
-7.1900546e-03
1.0208716e-01
1.7055429e-01
2.6389254e-01
3.6421021e-01
4.2397284e-01
4.0657361e-01
2.9427774e-01
1.6299862e-01
1.3272902e-01
1.7431343e-01
1.2018238e-01
-6.4732555e-02
-2.6012587e-01
-3.8210357e-01
-4.1219521e-01
-3.6260410e-01
-2.5131454e-01
-8.0595664e-02
1.5444936e-01
3.6866179e-01
4.0679505e-01
2.6615820e-01
7.7741394e-02
-7.4123416e-02
-1.7102100e-01
-2.2801147e-01
-2.8060263e-01
-3.4021345e-01
-3.7662846e-01
-3.7002458e-01
-3.2157370e-01
-2.1832280e-01
-3.8757980e-02
2.0540548e-01
4.5632610e-01
6.2444884e-01
6.0838263e-01
4.0592778e-01
1.6799297e-01
5.6315162e-04
-1.3558040e-01
-2.5931305e-01
-3.1584026e-01
-2.6436630e-01
-1.1732385e-01
3.1310977e-02
6.3332233e-02
5.6812980e-03
5.9425128e-03
6.6804618e-02
3.8409189e-02
-1.0122058e-01
-2.1652307e-01
-1.9706867e-01
-4.0062308e-02
1.5933166e-01
2.8456333e-01
2.7001479e-01
1.8248192e-01
1.3362254e-01
9.7175397e-02
2.0795088e-02
-8.8743492e-02
-1.6991085e-01
-1.2812492e-01
4.7721227e-02
2.6241328e-01
3.7253330e-01
3.2864147e-01
1.8897241e-01
3.9658735e-03
-1.6783954e-01
-2.7307263e-01
-3.0309207e-01
-2.7016318e-01
-1.9821567e-01
-1.2277206e-01
-6.3103118e-02
-1.6121719e-02
1.2421661e-02
2.3934015e-02
3.5736802e-02
4.5301230e-02
3.7528179e-02
1.7659389e-02
-2.0277504e-02
-9.8443034e-02
-2.0260530e-01
-3.0918594e-01
-4.0798306e-01
-4.7882379e-01
-4.9202676e-01
-4.1678081e-01
-2.3409165e-01
5.0762818e-02
3.7994554e-01
6.6074698e-01
8.3770494e-01
8.9529975e-01
8.2546508e-01
6.3932372e-01
3.5631885e-01
3.5949519e-02
-1.9414334e-01
-2.6184635e-01
-2.1596464e-01
-1.5117937e-01
-1.3146245e-01
-1.8696890e-01
-3.0170993e-01
-4.1164814e-01
-4.7560664e-01
-4.8600596e-01
-4.4308045e-01
-3.4336869e-01
-1.7782388e-01
4.5493104e-02
2.7833534e-01
4.7485905e-01
6.2007012e-01
6.8479949e-01
6.2687504e-01
4.4514786e-01
2.0384479e-01
-2.5647046e-02
-2.1539831e-01
-3.6347839e-01
-4.7077016e-01
-5.3816422e-01
-5.8427003e-01
-6.2206627e-01
-6.2148618e-01
-5.4129286e-01
-3.6237307e-01
-9.9246136e-02
2.0912708e-01
4.9199664e-01
6.5717443e-01
6.7968913e-01
6.0579283e-01
4.9170337e-01
3.7479165e-01
2.6694548e-01
1.7711418e-01
1.2199817e-01
8.6606012e-02
1.7563639e-02
-1.0226026e-01
-2.3274265e-01
-3.5182533e-01
-4.4778447e-01
-4.6467516e-01
-3.5877636e-01
-1.2259586e-01
1.9976005e-01
4.7143455e-01
5.5425971e-01
3.9623903e-01
8.5489342e-02
-2.0480615e-01
-4.0091677e-01
-5.0892827e-01
-5.4119483e-01
-5.1666076e-01
-4.1999347e-01
-2.1314935e-01
7.6578123e-02
3.4173921e-01
5.1436960e-01
5.9498504e-01
5.8278782e-01
4.7050433e-01
2.6058563e-01
-5.5789577e-03
-2.5428063e-01
-4.2190121e-01
-4.6244977e-01
-3.6172503e-01
-1.2529307e-01
1.7825421e-01
4.0231117e-01
4.5618471e-01
3.3402391e-01
9.9613075e-02
-1.1776458e-01
-2.2493422e-01
-2.0365741e-01
-1.0180721e-01
-1.6871054e-02
1.0546763e-04
-2.0784325e-02
-5.6348790e-02
-1.1009466e-01
-1.6340561e-01
-1.7494910e-01
-1.0344882e-01
6.1019423e-02
2.1410387e-01
1.7977992e-01
-3.3439200e-02
-2.4517210e-01
-3.5549562e-01
-3.6091546e-01
-2.6947049e-01
-9.8571368e-02
1.1808212e-01
3.1521088e-01
3.9491625e-01
2.8602258e-01
6.9999906e-02
-6.0293546e-02
-3.2118810e-02
1.1752451e-01
3.0021444e-01
3.8284421e-01
3.5505551e-01
3.0944561e-01
2.3933427e-01
6.9624770e-02
-1.6169277e-01
-3.5021983e-01
-4.6477974e-01
-5.1221451e-01
-4.8927637e-01
-4.0562397e-01
-2.7973612e-01
-1.1782268e-01
4.7714254e-02
1.7414313e-01
2.8690709e-01
4.2175988e-01
5.3923921e-01
5.5463080e-01
4.1615291e-01
1.6116469e-01
-1.0570354e-01
-3.0127943e-01
-4.0745620e-01
-4.4707079e-01
-4.4251609e-01
-3.9392203e-01
-3.0588201e-01
-1.9856968e-01
-9.1027837e-02
2.4056605e-02
1.7888710e-01
3.8631224e-01
5.7970744e-01
6.1913208e-01
4.7164716e-01
2.4428826e-01
1.2914326e-02
-1.9249337e-01
-3.4053254e-01
-4.1025163e-01
-4.0322071e-01
-3.3667305e-01
-2.4443101e-01
-1.4914528e-01
-2.5278806e-02
1.4136700e-01
3.1636289e-01
4.4842702e-01
4.6651779e-01
3.3174059e-01
1.1952925e-01
-6.1368073e-02
-1.6810412e-01
-2.0430153e-01
-1.9744777e-01
-1.9085082e-01
-2.1242475e-01
-2.5701950e-01
-2.9742476e-01
-3.0129031e-01
-2.4297660e-01
-1.2027678e-01
1.9643155e-02
9.4158597e-02
1.0553045e-01
1.6156304e-01
3.0316974e-01
4.6065217e-01
5.3463950e-01
4.5605689e-01
2.4211571e-01
-1.1874581e-02
-2.1679798e-01
-3.4084904e-01
-3.7193304e-01
-2.9248287e-01
-1.0718458e-01
1.4840672e-01
3.7202545e-01
4.1105505e-01
2.3669358e-01
-1.4673972e-02
-2.0808875e-01
-3.0371053e-01
-3.1297046e-01
-2.4747083e-01
-1.2475916e-01
2.3286799e-02
1.2138720e-01
8.7174929e-02
-3.7367801e-02
-1.3348784e-01
-1.4683525e-01
-9.6772246e-02
-9.7348673e-03
1.0762850e-01
2.3536131e-01
3.2049260e-01
2.9824839e-01
1.6288053e-01
-9.1458627e-03
-1.3080498e-01
-1.6932771e-01
-1.6823777e-01
-1.9176614e-01
-2.3577279e-01
-2.5860267e-01
-2.3851612e-01
-1.6716638e-01
-3.7617956e-02
1.5434274e-01
3.9523155e-01
5.8706172e-01
5.6259551e-01
3.2125837e-01
3.4517227e-02
-1.9773295e-01
-3.6366017e-01
-4.6104012e-01
-4.9169985e-01
-4.5740406e-01
-3.5445580e-01
-1.9426725e-01
-3.6729652e-02
1.0064993e-01
2.9093359e-01
5.4728389e-01
7.6200529e-01
7.9653055e-01
5.9624468e-01
2.6555129e-01
-2.5061054e-02
-2.1518047e-01
-3.4549174e-01
-4.4559379e-01
-5.1290307e-01
-5.5184598e-01
-5.7275141e-01
-5.7672673e-01
-5.8162828e-01
-5.8243369e-01
-5.1732816e-01
-3.2602088e-01
-2.2125339e-02
