-2.2534607e-02
-1.5467879e-02
4.3441992e-03
2.7148665e-02
4.2153846e-02
4.4588816e-02
3.8690992e-02
5.6796205e-02
1.3732700e-01
2.6527979e-01
3.5086034e-01
3.1940594e-01
1.8486982e-01
1.0231543e-02
-1.2458942e-01
-1.6641624e-01
-1.4102402e-01
-1.0886653e-01
-9.9921921e-02
-1.2318873e-01
-1.7966250e-01
-2.3653710e-01
-2.4351632e-01
-1.9170600e-01
-1.1638041e-01
-5.8720056e-02
-3.8382166e-02
-4.1000949e-02
-4.3280967e-02
-2.0160343e-02
6.2788278e-02
2.0436917e-01
3.5096289e-01
4.4593005e-01
4.4911873e-01
3.5920848e-01
2.3881237e-01
1.4336504e-01
6.8346923e-02
-1.7721418e-02
-1.2118812e-01
-2.0886994e-01
-2.5307063e-01
-2.5173908e-01
-2.1186229e-01
-1.4485498e-01
-6.7528685e-02
1.7583387e-03
3.8288277e-02
3.3648385e-02
1.9184003e-02
1.6355684e-02
1.1852301e-02
-8.1137679e-03
-4.9614894e-02
-1.0535444e-01
-1.4733846e-01
-1.5407719e-01
-1.2597856e-01
-8.7838026e-02
-6.3550878e-02
-2.5784914e-02
6.6707515e-02
1.9707128e-01
3.0658986e-01
3.4076446e-01
2.8782622e-01
1.8562313e-01
7.1745635e-02
-3.1663180e-02
-1.1124563e-01
-1.6400385e-01
-1.9103751e-01
-1.9588415e-01
-1.8657072e-01
-1.7735604e-01
-1.7152542e-01
-1.5852667e-01
-1.3187952e-01
-1.0042804e-01
-7.7785503e-02
-5.2932969e-02
-4.6328063e-03
6.0230442e-02
1.1203064e-01
1.2868198e-01
1.1559826e-01
9.6759882e-02
9.7639583e-02
1.1392484e-01
1.3221062e-01
1.8825801e-01
3.0040780e-01
4.0673411e-01
4.1259361e-01
2.8487551e-01
8.7192745e-02
-9.5113876e-02
-2.0851439e-01
-2.4142996e-01
-2.2406330e-01
-1.9862431e-01
-1.8236748e-01
-1.7545448e-01
-1.9943442e-01
-2.7212120e-01
-3.5490877e-01
-3.9018613e-01
-3.6261889e-01
-3.0241210e-01
-2.4795163e-01
-1.9968071e-01
-1.2330691e-01
4.5654327e-03
1.7554604e-01
3.5832850e-01
5.0158018e-01
5.5039785e-01
4.9766242e-01
4.1737981e-01
3.8709382e-01
4.0821394e-01
4.2916364e-01
3.7772766e-01
2.1740502e-01
-1.4898889e-02
-2.3447016e-01
-3.7507653e-01
-4.2922214e-01
-4.0511049e-01
-3.2978735e-01
-2.4863875e-01
-1.7328564e-01
-1.0485473e-01
-6.1778804e-02
-4.7776069e-02
-4.7022270e-02
-4.4295437e-02
-3.8915629e-02
-5.0391019e-02
-8.3669894e-02
-1.0288725e-01
-7.0265838e-02
2.0056072e-02
1.4770984e-01
2.7360880e-01
3.4613853e-01
3.2856672e-01
2.5034220e-01
1.6760377e-01
7.8517999e-02
-2.2130012e-02
-9.9968383e-02
-1.4172897e-01
-1.5844139e-01
-1.6664597e-01
-1.9035186e-01
-2.2430748e-01
-2.3313638e-01
-1.8381704e-01
-7.2483021e-02
6.6302759e-02
1.9577930e-01
2.8009764e-01
2.8666252e-01
1.9556930e-01
1.9355795e-02
-1.6659340e-01
-2.8291126e-01
-2.9621071e-01
-2.2048051e-01
-9.9995301e-02
2.9692749e-02
1.2949004e-01
1.4322325e-01
6.7276214e-02
-1.7781748e-02
-2.3532103e-02
9.0714148e-02
2.7490025e-01
4.0984125e-01
4.0790309e-01
2.7611724e-01
9.5076202e-02
-7.3009171e-02
-2.1649843e-01
-3.3163533e-01
-3.9344117e-01
-3.7858223e-01
-2.8683236e-01
-1.5690989e-01
-3.7551236e-02
6.0140008e-02
1.3622792e-01
1.8010813e-01
1.8090337e-01
1.4126314e-01
7.2464251e-02
-2.0488150e-03
-3.8141389e-02
-3.6602092e-02
-4.0570049e-02
-4.9520351e-02
-6.2618602e-02
-9.7222446e-02
-1.3086238e-01
-1.1743297e-01
-3.3717635e-02
9.7061548e-02
2.2070516e-01
2.7442448e-01
2.1694157e-01
8.1838287e-02
-4.9152108e-02
-1.3784713e-01
-1.8443069e-01
-1.7718747e-01
-1.0841021e-01
-2.6062264e-02
-1.4321652e-02
-8.9297444e-02
-1.7942643e-01
-2.1510973e-01
-1.6056274e-01
9.7769271e-03
2.7456255e-01
5.1140816e-01
5.9313575e-01
4.8999425e-01
2.5246335e-01
-5.6370707e-03
-1.9268919e-01
-2.9979759e-01
-3.4795971e-01
-3.3912894e-01
-2.7765622e-01
-2.0720968e-01
-1.7112159e-01
-1.5066280e-01
-1.0620909e-01
-3.0099998e-02
9.3642810e-02
2.7254655e-01
4.5548787e-01
5.4681531e-01
4.5875559e-01
1.9965288e-01
-9.5094325e-02
-2.9846809e-01
-3.8681929e-01
-3.6730406e-01
-2.5519987e-01
-8.9184234e-02
8.7846398e-02
2.0402429e-01
1.8874675e-01
6.6307740e-02
-6.7989495e-02
-1.3535389e-01
-1.0532329e-01
-4.9975810e-03
1.0222347e-01
1.7172205e-01
1.8369789e-01
1.1944124e-01
-2.0611621e-02
-1.8145249e-01
-3.0535787e-01
-3.7927645e-01
-3.7103542e-01
-2.6077621e-01
-8.8216445e-02
1.0103405e-01
2.5851142e-01
3.2979730e-01
2.9666785e-01
2.2719203e-01
2.1137089e-01
2.3883811e-01
2.5009191e-01
2.2537434e-01
1.7314553e-01
9.6163570e-02
-1.1823734e-02
-1.4910289e-01
-2.8561251e-01
-3.6064306e-01
-3.4604527e-01
-2.7566397e-01
-2.1093254e-01
-1.7388627e-01
-1.2654038e-01
-4.8440715e-02
3.9581823e-02
9.9817529e-02
1.1461194e-01
1.0582552e-01
1.0715597e-01
1.2837376e-01
1.2770524e-01
7.3523915e-02
-8.4782940e-04
-6.8391844e-02
-1.3706038e-01
-2.0915138e-01
-2.5063621e-01
-1.9547421e-01
-2.3367722e-02
2.1155390e-01
3.9835281e-01
4.5743144e-01
4.1957653e-01
3.1616268e-01
1.5309123e-01
-2.7725212e-02
-1.7573717e-01
-2.4961332e-01
-2.2470613e-01
-1.3660305e-01
-9.6866698e-02
-1.6294661e-01
-2.5547524e-01
-2.8018494e-01
-2.1404331e-01
-6.4122951e-02
1.4335297e-01
3.3318116e-01
4.1951370e-01
3.5152040e-01
1.7086123e-01
-8.0848203e-03
-1.2788295e-01
-1.8119386e-01
-1.6149882e-01
-8.9749640e-02
-4.7019267e-03
6.5815697e-02
9.4980475e-02
7.8137558e-02
3.5962717e-02
-2.0424882e-02
-7.5828561e-02
-1.1345674e-01
-1.3002057e-01
-1.2101828e-01
-8.9017482e-02
-5.0417130e-02
-1.5579142e-02
2.1457949e-02
4.3863682e-02
2.6287387e-02
-4.2013379e-03
-2.1174351e-02
-1.1989801e-02
4.6808156e-02
1.4910865e-01
2.4438918e-01
2.6882216e-01
2.0276236e-01
8.8906869e-02
-2.2046010e-02
-1.0582566e-01
-1.5472044e-01
-1.7263600e-01
-1.7709587e-01
-1.9034537e-01
-2.1350205e-01
-2.1741118e-01
-1.7386831e-01
-9.6530277e-02
-1.0961694e-02
9.2389556e-02
2.1735406e-01
3.2413728e-01
3.4856667e-01
2.6622895e-01
1.2718551e-01
-9.3647639e-03
-1.1265679e-01
-1.6742978e-01
-1.8163571e-01
-1.6658732e-01
-1.1353123e-01
-2.3517277e-02
7.4894512e-02
1.4141631e-01
1.5310762e-01
1.1784606e-01
5.6443015e-02
-7.4676409e-03
-5.5148496e-02
-8.0412010e-02
-7.7946810e-02
-6.2504226e-02
-4.7654090e-02
-3.4358793e-02
-5.8491150e-02
-1.2150638e-01
-1.7362939e-01
-1.8937662e-01
-1.6237920e-01
-9.3114718e-02
7.6292419e-03
1.3024557e-01
2.5359421e-01
3.4117532e-01
3.5673166e-01
2.7462165e-01
1.2429730e-01
-1.1063326e-02
-8.7613894e-02
-1.2769254e-01
-1.5251964e-01
-1.6753724e-01
-1.8388095e-01
-2.0985588e-01
-2.3407913e-01
-2.2821921e-01
-1.7756123e-01
-1.0179062e-01
-5.0137620e-04
1.5248705e-01
3.2631339e-01
4.5082147e-01
4.6407022e-01
3.4813979e-01
1.6775596e-01
8.7221378e-03
-8.7814997e-02
-1.3111498e-01
-1.6062724e-01
-1.9007416e-01
-2.0699892e-01
-2.0522302e-01
-1.8387100e-01
-1.5489563e-01
-1.3971923e-01
-1.3285355e-01
-9.9768687e-02
-2.2732700e-02
1.0165045e-01
2.5330647e-01
3.7336118e-01
4.0615430e-01
3.3238460e-01
2.0141397e-01
7.4681753e-02
-4.3165200e-02
-1.4228911e-01
-1.8885919e-01
-1.8338484e-01
-1.5890175e-01
-1.3467663e-01
-1.1344856e-01
-9.1741443e-02
-6.5237839e-02
-4.1363885e-02
-2.2845062e-02
-4.7243091e-04
3.5189403e-02
7.0709155e-02
7.4873970e-02
5.0133598e-02
1.8186514e-02
-9.9519233e-04
5.1396589e-03
1.2315545e-02
-4.6604935e-03
-3.5442289e-02
-5.2283885e-02
-4.9050062e-02
-4.4010039e-02
-4.4496329e-02
-4.9845298e-02
-5.3023058e-02
-3.4542944e-02
2.5389706e-02
1.1798714e-01
2.0227732e-01
2.1643873e-01
1.5010019e-01
7.3557034e-02
1.7252917e-02
-3.2813486e-02
-8.5373263e-02
-1.3153032e-01
-1.4808057e-01
-1.4395399e-01
-1.4284388e-01
-1.3731500e-01
-1.0985535e-01
-6.7188267e-02
-1.6533701e-02
4.9144944e-02
1.2514263e-01
1.7933471e-01
1.8068088e-01
1.2798664e-01
3.5816161e-02
-5.7883096e-02
-1.1740299e-01
-1.3528256e-01
-9.8486626e-02
-1.2905387e-02
7.9052987e-02
1.3395952e-01
1.3159969e-01
9.3183306e-02
6.2462465e-02
4.3679742e-02
1.5922549e-02
-6.1587340e-03
-1.8039011e-03
6.1233187e-03
-7.9710860e-03
-3.1855153e-02
-6.3197671e-02
-1.2202318e-01
-2.0219943e-01
-2.7792615e-01
-3.2655809e-01
-3.2523299e-01
-2.7046207e-01
-1.7617013e-01
-4.8133898e-02
1.1993059e-01
3.1570080e-01
4.9738704e-01
6.2509501e-01
6.3735547e-01
5.0784981e-01
3.0745088e-01
1.0408087e-01
-6.0716982e-02
-1.4556280e-01
-1.6733408e-01
-1.9831382e-01
-2.7943336e-01
-3.7487193e-01
-4.1473206e-01
-3.7749644e-01
-2.8340836e-01
-1.4529579e-01
1.2376168e-03
8.4542103e-02
8.6093814e-02
8.2713309e-02
1.3328950e-01
2.0578884e-01
2.1723356e-01
1.5690579e-01
9.6104604e-02
4.9879596e-02
-1.4555990e-02
-1.0521442e-01
-1.8135557e-01
-1.8955091e-01
-1.1411977e-01
2.2166941e-02
1.8549697e-01
3.3378743e-01
3.9735261e-01
3.3485972e-01
1.6754723e-01
-4.1431460e-02
-2.1302835e-01
-2.9837622e-01
-3.0913253e-01
-2.9110253e-01
-2.6490954e-01
-2.3125076e-01
-1.8592325e-01
-1.1366774e-01
-1.6709155e-02
8.3142063e-02
1.7283614e-01
2.5143623e-01
3.1775914e-01
3.4000480e-01
2.7545982e-01
1.5651041e-01
5.0788586e-02
-2.5392908e-02
-8.5256461e-02
-1.3971948e-01
-1.8101524e-01
-2.0380030e-01
-2.1365644e-01
-1.9960799e-01
-1.4846858e-01
-7.5139123e-02
-6.6179988e-03
5.2817201e-02
9.2020888e-02
1.0790099e-01
1.0972642e-01
9.5515944e-02
8.5293005e-02
9.0379378e-02
7.6328415e-02
3.0633149e-02
-4.8293985e-03
-1.8105214e-02
-2.9892401e-02
-3.5552968e-02
-8.7700571e-03
5.2827481e-02
1.0018272e-01
7.5363090e-02
-1.9346510e-02
-1.2039656e-01
-1.7959755e-01
-1.9268882e-01
-1.8242887e-01
-1.7975631e-01
-1.8652772e-01
-1.7000786e-01
-1.0642052e-01
-1.4657598e-02
6.6512518e-02
1.3508002e-01
2.2171080e-01
3.2333103e-01
3.9807883e-01
4.0028409e-01
2.7437821e-01
3.3591631e-02
-1.9542466e-01
-3.2060452e-01
-3.3987131e-01
-2.9932776e-01
-2.4809992e-01
-1.7549712e-01
-4.7718678e-02
1.3352957e-01
3.1199940e-01
4.1702572e-01
4.2071716e-01
3.2665489e-01
1.9003774e-01
1.0118624e-01
7.8882193e-02
6.7241057e-02
1.5955587e-02
-7.7228172e-02
-1.8783869e-01
-2.9663538e-01
-3.7153001e-01
-3.7788068e-01
-2.9450324e-01
-1.6337124e-01
-7.4003412e-02
-3.0994804e-02
1.2356391e-02
8.0068953e-02
1.6762633e-01
2.2042799e-01
2.0302490e-01
1.4853623e-01
6.3346301e-02
-5.0814259e-02
-1.2637902e-01
-1.2994437e-01
-9.9820300e-02
-9.2871549e-02
-1.3073155e-01
-1.8893513e-01
-2.2545365e-01
-2.0064037e-01
-1.1565083e-01
1.0777816e-02
1.7835776e-01
3.6906048e-01
5.2633477e-01
5.7065856e-01
4.4555749e-01
1.9442670e-01
-6.1293105e-02
-2.3854871e-01
-3.1877492e-01
-3.1493233e-01
-2.5355188e-01
-1.5739723e-01
-5.3405807e-02
2.5157086e-02
6.2972738e-02
6.6417030e-02
4.9035132e-02
1.9090740e-02
-1.6938367e-02
-4.2193685e-02
-5.6579645e-02
-7.6967032e-02
-1.0561524e-01
-1.2542071e-01
-1.1201276e-01
-5.0727487e-02
5.2041439e-02
1.5905423e-01
2.1844714e-01
2.2656046e-01
2.1409900e-01
1.7153237e-01
8.8922970e-02
8.7425463e-04
-6.2194403e-02
-9.9958509e-02
-1.2319623e-01
-1.3607151e-01
-1.2892708e-01
-1.0528080e-01
-7.3579251e-02
-2.2084387e-02
4.5500786e-02
1.0282417e-01
1.2973788e-01
1.0677455e-01
2.7502825e-02
-7.1044055e-02
-1.4072229e-01
-1.6663413e-01
-1.6223312e-01
-1.4267049e-01
-1.1356129e-01
-6.2474205e-02
2.9089133e-02
1.2917309e-01
1.7753789e-01
1.4975535e-01
5.3619614e-02
-5.3816742e-02
-9.6329847e-02
-5.1986071e-02
5.6655609e-02
1.8425184e-01
2.7222789e-01
2.6586660e-01
1.5311990e-01
-1.1021888e-02
-1.5204000e-01
-2.4067189e-01
-2.9367432e-01
-3.1390390e-01
-2.9019775e-01
-2.2139454e-01
-1.0491940e-01
5.7306756e-02
2.3832521e-01
3.9061029e-01
4.5368533e-01
3.8856702e-01
2.3394648e-01
6.4821788e-02
-5.9516606e-02
-1.2180004e-01
-1.4911785e-01
-1.6931184e-01
-1.9650469e-01
-2.1961578e-01
-2.0118991e-01
-1.3299803e-01
-4.8360138e-02
3.8236737e-02
1.0437507e-01
1.0374283e-01
4.5697815e-02
-1.8951177e-02
-5.3027149e-02
-3.1922395e-02
4.8207158e-02
1.4169771e-01
1.5124289e-01
4.3500271e-02
-9.7821979e-02
-1.8785738e-01
-1.7568392e-01
-7.2568266e-02
3.4895732e-02
8.5899772e-02
7.3071904e-02
2.3149507e-02
-1.9076804e-02
-2.3396796e-02
1.5128894e-02
8.0152795e-02
1.4961190e-01
1.9944222e-01
2.0090594e-01
1.4386792e-01
4.8173892e-02
-4.7635405e-02
-1.1523507e-01
-1.5594792e-01
-1.7397790e-01
-1.6446260e-01
-1.2953369e-01
-7.9302457e-02
-2.2109214e-02
4.3597845e-02
1.2241692e-01
1.9812604e-01
2.3325769e-01
2.0570802e-01
1.2227460e-01
5.4838727e-03
-9.8396413e-02
-1.5395964e-01
-1.8525661e-01
-2.2405261e-01
-2.6146891e-01
-2.7513396e-01
-2.5755677e-01
-2.1521455e-01
-1.4317878e-01
-3.4240745e-02
1.0031881e-01
2.3286332e-01
3.2694057e-01
3.7079194e-01
3.6855027e-01
3.2504919e-01
2.3363784e-01
6.3811071e-02
-1.4364802e-01
-2.8135599e-01
-2.9861844e-01
-2.1554520e-01
-9.2505465e-02
-1.9527088e-04
3.4460525e-02
1.2530884e-02
-5.9930525e-02
-1.4052962e-01
-1.8491439e-01
-1.7028774e-01
-8.7401597e-02
5.5496723e-02
2.1718078e-01
3.2642317e-01
3.2682599e-01
2.2653716e-01
9.2841376e-02
-3.3465930e-02
-1.2381460e-01
-1.4164838e-01
-9.8359623e-02
-2.6901850e-02
5.2466752e-02
1.2590766e-01
1.9189539e-01
2.2283086e-01
1.6700211e-01
4.6108170e-02
-6.6443533e-02
-1.3952992e-01
-1.8448299e-01
-2.1552714e-01
-2.1858059e-01
-1.7067070e-01
-8.4273233e-02
5.7597347e-03
8.3750861e-02
1.3003797e-01
1.0309143e-01
2.8500514e-04
-1.2593741e-01
-2.1840701e-01
-2.6386598e-01
-2.7094126e-01
-2.1542740e-01
-6.5188089e-02
1.6095522e-01
3.8409497e-01
4.9813005e-01
4.1790843e-01
1.6002854e-01
-1.1385248e-01
-2.2054181e-01
-1.2289679e-01
3.0024334e-02
9.9185222e-02
1.1904865e-01
1.2984876e-01
9.0306108e-02
-2.6068247e-02
-1.8006199e-01
-2.9057506e-01
-2.9476472e-01
-1.8103869e-01
-4.3758522e-03
1.4052416e-01
1.8150389e-01
1.0523965e-01
-5.4689295e-02
-2.2317535e-01
-2.8631648e-01
-1.6185321e-01
9.3699778e-02
3.0187371e-01
3.1560543e-01
1.6849649e-01
3.2295515e-02
-4.2842153e-03
4.9792823e-03
-1.4638982e-02
-6.6363083e-02
-1.0181933e-01
-9.3055741e-02
-5.5773967e-02
-1.7396694e-02
1.5893546e-02
4.3433011e-02
4.8124916e-02
2.4421321e-02
6.5459487e-04
-3.7246271e-03
-8.1269909e-04
8.2452113e-03
3.6412782e-02
7.8873195e-02
1.1725234e-01
1.4085191e-01
1.5796874e-01
1.6434436e-01
1.1108225e-01
-3.4385556e-02
-2.1329240e-01
-3.3758157e-01
-3.6175020e-01
-2.7558111e-01
-1.0018159e-01
1.1719349e-01
3.2483011e-01
4.6761404e-01
4.7225964e-01
3.0485757e-01
4.6640356e-02
-1.7856077e-01
-3.2183986e-01
-3.8778171e-01
-3.9370262e-01
-3.6482614e-01
-3.1426048e-01
-2.4252408e-01
-1.4588645e-01
-1.5602989e-02
1.4710927e-01
3.0504172e-01
4.1411965e-01
4.4853368e-01
4.0945076e-01
3.2465810e-01
2.0540519e-01
5.3587785e-02
-1.0338588e-01
-2.2308518e-01
-2.8126701e-01
-2.7118084e-01
-2.1401050e-01
-1.5796509e-01
-1.2193305e-01
-9.1257695e-02
-5.3839526e-02
-2.1946308e-02
-1.4203320e-02
-3.0493288e-02
-4.7198498e-02
-2.4649819e-02
5.2521888e-02
1.6255320e-01
2.5943450e-01
2.9520781e-01
2.4293931e-01
1.1083753e-01
-3.9940762e-02
-1.4078101e-01
-1.7033689e-01
-1.4781488e-01
-1.0265925e-01
-5.0046227e-02
-4.0920980e-03
7.9336184e-03
-2.1410056e-02
-6.2035881e-02
-7.7457548e-02
-6.0290922e-02
-2.0841794e-02
3.8919340e-02
9.6792538e-02
1.1752208e-01
9.1220612e-02
3.3513050e-02
-1.9423877e-02
-3.6212356e-02
-1.6748705e-02
7.7430461e-03
1.0011468e-02
-7.9304563e-03
-2.8301951e-02
-4.8057150e-02
-7.3000608e-02
-8.7420428e-02
-7.1038950e-02
-1.4460326e-02
7.8051207e-02
1.5916934e-01
1.6935722e-01
1.2429258e-01
7.4001135e-02
3.8523220e-02
-4.5397836e-04
-7.1990284e-02
-1.5267016e-01
-1.9761944e-01
-1.9248509e-01
-1.5325325e-01
-1.0962815e-01
-7.8480285e-02
-5.1108023e-02
-8.6514426e-03
6.9875024e-02
1.9494700e-01
3.2256677e-01
3.8019207e-01
3.3011135e-01
1.8919835e-01
2.8442453e-02
-9.3991836e-02
-1.6207196e-01
-1.5142492e-01
-8.8346658e-02
-5.7409034e-02
-7.8963137e-02
-1.1529244e-01
-1.2614910e-01
-8.9813163e-02
-2.1343607e-02
4.2683336e-02
5.4435328e-02
1.0855492e-02
-4.8100649e-02
-1.1023663e-01
-1.5315833e-01
-1.4731611e-01
-1.0191716e-01
-4.8093578e-02
-1.2371417e-02
1.2156330e-02
6.0069834e-02
1.4423597e-01
2.4567305e-01
3.3576560e-01
3.6160368e-01
2.8247687e-01
1.1626938e-01
-6.1549914e-02
-1.7450326e-01
-2.1354176e-01
-2.0060309e-01
-1.3583682e-01
-4.7411900e-02
-4.8165366e-03
-3.1818730e-02
-9.7159488e-02
-1.4469128e-01
-1.3800335e-01
-9.7694588e-02
-5.5724734e-02
-1.3549905e-02
2.6955270e-02
2.9856948e-02
-2.5217609e-02
-9.3221925e-02
-1.1517169e-01
-6.6534600e-02
5.4344988e-02
1.9488148e-01
2.8607075e-01
3.1532009e-01
2.9353421e-01
2.4049717e-01
1.8033510e-01
1.1874194e-01
3.9123321e-02
-7.0283839e-02
-1.8974920e-01
-2.7590541e-01
-2.8743578e-01
-2.1909251e-01
-9.8963620e-02
3.5737818e-02
1.5071311e-01
2.1809421e-01
2.0498599e-01
1.0500327e-01
-1.8005054e-02
-9.8643358e-02
-1.3307445e-01
-1.5249987e-01
-1.8264354e-01
-2.1642959e-01
-2.2258810e-01
-1.8098601e-01
-1.0098380e-01
3.0112180e-04
1.0652218e-01
1.9130571e-01
2.2784869e-01
2.1483175e-01
1.7868493e-01
1.2106945e-01
2.9015205e-02
-7.1224893e-02
-1.4728754e-01
-1.8375909e-01
-1.7697624e-01
-1.4776951e-01
-1.1528103e-01
-6.9581871e-02
1.0744260e-03
9.6075673e-02
2.0951549e-01
3.1303617e-01
3.4399115e-01
2.6851711e-01
1.2307563e-01
-3.2595788e-02
-1.3970205e-01
-1.7816741e-01
-1.7355531e-01
-1.5110138e-01
-1.2543464e-01
-1.0280854e-01
-7.7652855e-02
-4.4255591e-02
-2.5406744e-03
4.6002764e-02
9.5377490e-02
1.2012774e-01
8.7461813e-02
2.7621847e-02
2.5143142e-03
1.0797326e-02
9.8581959e-03
-2.4456718e-02
-7.8521219e-02
-1.2967490e-01
-1.6281658e-01
-1.5812606e-01
-1.1603068e-01
-4.8809464e-02
2.9465684e-02
8.3091851e-02
7.6571585e-02
9.2696061e-03
-7.5515159e-02
-1.1906555e-01
-8.6310458e-02
5.5503655e-03
1.1066137e-01
2.1760447e-01
3.3404358e-01
4.1885259e-01
4.1209688e-01
3.0399934e-01
1.2546962e-01
-7.5512842e-02
-2.4099079e-01
-3.2837316e-01
-3.4488116e-01
-3.1622815e-01
-2.4471543e-01
-1.5641930e-01
-8.5674222e-02
-2.8180583e-02
2.6272565e-02
5.2391928e-02
3.1680917e-02
1.4566073e-02
5.0489237e-02
1.4402672e-01
2.6981302e-01
3.6627661e-01
3.7784136e-01
2.7151042e-01
5.6806268e-02
-1.6642099e-01
-2.9466517e-01
-3.0938004e-01
-2.6204257e-01
-1.9740881e-01
-1.0023283e-01
2.6723253e-02
1.3213065e-01
1.7446231e-01
1.4576855e-01
7.9268933e-02
2.9794341e-02
7.8892847e-03
-2.3951565e-02
-6.9446164e-02
-9.6122194e-02
-1.0856855e-01
-1.4266372e-01
-2.0166997e-01
-2.4047472e-01
-2.1494056e-01
-1.2711945e-01
-1.3211081e-02
7.1854373e-02
7.4492191e-02
1.2150121e-02
-4.6789060e-02
-6.4944587e-02
-3.4700183e-02
4.2192019e-02
1.5165604e-01
2.7937760e-01
3.9124753e-01
4.2353490e-01
3.8260692e-01
3.2796486e-01
2.5259532e-01
1.2024696e-01
-4.8826106e-02
-2.0455563e-01
-3.2106140e-01
-3.7968442e-01
-3.5844190e-01
-2.6855031e-01
-1.7028277e-01
-1.2426202e-01
-1.3350630e-01
-1.4749542e-01
-1.1308023e-01
-8.6850358e-03
1.3354151e-01
2.3922077e-01
2.6607670e-01
2.1304231e-01
9.7739716e-02
-3.0045727e-02
-1.2636094e-01
-1.8234687e-01
-1.9741657e-01
-1.7958091e-01
-1.5996906e-01
-1.4435111e-01
-8.6147831e-02
5.1749667e-02
2.2755624e-01
3.4244288e-01
3.5255842e-01
2.9540751e-01
2.1555976e-01
1.2936954e-01
3.3859819e-02
-6.6159939e-02
-1.4589563e-01
-1.8766730e-01
-1.9795619e-01
-1.9411750e-01
-1.8466126e-01
-1.6085357e-01
-1.0493370e-01
-2.3605628e-02
4.7367772e-02
9.2885235e-02
1.2324451e-01
1.4774618e-01
1.4728697e-01
1.0496503e-01
5.7533118e-02
2.4000592e-02
-2.7539418e-03
-1.3769079e-04
3.2766290e-02
6.0584765e-02
3.6086890e-02
-2.6644782e-02
-5.1139605e-02
-3.2452021e-02
6.2090404e-03
5.9042944e-02
9.9193823e-02
9.3099380e-02
1.8514481e-02
-9.0535223e-02
-1.6014015e-01
-1.6130867e-01
-1.2392461e-01
-8.5647835e-02
-5.5798060e-02
-3.8090170e-02
-3.5161615e-02
-3.6228624e-02
-3.7680438e-02
-2.5030987e-02
2.0050739e-02
8.1685173e-02
1.4026023e-01
2.0299279e-01
2.4570042e-01
2.0885202e-01
8.3143685e-02
-6.6988031e-02
-1.7210641e-01
-2.2504837e-01
-2.5809321e-01
-2.9672540e-01
-3.4392201e-01
-3.7320204e-01
-3.4806079e-01
-2.3470824e-01
-3.2064691e-02
1.9459504e-01
3.7639301e-01
4.9959119e-01
5.5782882e-01
5.2622061e-01
4.4218644e-01
3.8354924e-01
3.3167766e-01
2.0439716e-01
-1.6374175e-02
-2.4388211e-01
-3.6821805e-01
-3.7209244e-01
-3.0351375e-01
-2.1809172e-01
-1.3673151e-01
-3.7454817e-02
6.3410734e-02
1.1895961e-01
1.1151724e-01
6.0875919e-02
-1.5763819e-02
-1.1821974e-01
-2.1299702e-01
-2.4817700e-01
-2.2772447e-01
-1.9207992e-01
-1.4903099e-01
-9.6989414e-02
-3.6444332e-02
4.2066747e-02
1.2689024e-01
1.9771676e-01
2.5691622e-01
3.0856135e-01
3.2010146e-01
2.5088008e-01
1.1642351e-01
-1.7790386e-02
-9.0910334e-02
-1.0265485e-01
-1.0765090e-01
-1.4663194e-01
-1.9924935e-01
-2.1299140e-01
-1.8068066e-01
-1.3093742e-01
-6.5739349e-02
2.4783262e-02
1.1271429e-01
1.5494464e-01
1.4359637e-01
9.7869280e-02
5.6242312e-02
4.6052148e-02
4.8178135e-02
2.6344817e-02
-2.5354158e-02
-8.5269172e-02
-1.4079372e-01
-1.8190485e-01
-1.8683106e-01
-1.3832285e-01
-3.6981832e-02
1.1889041e-01
2.9429117e-01
3.9126437e-01
3.5343974e-01
2.1844063e-01
6.1238107e-02
-6.1448560e-02
-1.3659422e-01
-1.8588744e-01
-2.2930756e-01
-2.6444156e-01
-2.7307573e-01
-2.3923887e-01
-1.6532359e-01
-6.7522251e-02
3.5322950e-02
1.3346421e-01
2.2451128e-01
2.9778293e-01
3.3095498e-01
2.7063214e-01
1.1665999e-01
-3.0387964e-02
-1.1500819e-01
-1.5416974e-01
-1.6698966e-01
-1.6545129e-01
-1.5739627e-01
-1.5119805e-01
-1.5371636e-01
-1.5008254e-01
-1.1018246e-01
-2.2466384e-02
9.6633640e-02
2.1079594e-01
2.7781462e-01
2.6707209e-01
1.8770880e-01
8.2009440e-02
-5.7015993e-03
-3.4825284e-02
-2.5415877e-02
-4.4168827e-02
-9.6189527e-02
-1.4869735e-01
-1.8179951e-01
-1.9613076e-01
-2.0316082e-01
-1.8255469e-01
-9.9998335e-02
4.2534218e-02
2.0114202e-01
3.3009119e-01
3.9936755e-01
3.8736912e-01
2.9278709e-01
1.4209307e-01
-1.0895130e-02
-1.2097684e-01
-1.8339901e-01
-2.1721611e-01
-2.2415179e-01
-1.9204719e-01
-1.4101679e-01
-9.7821527e-02
-6.9139194e-02
-4.2796573e-02
1.2018817e-02
9.7321054e-02
1.5989166e-01
1.6160972e-01
1.2352930e-01
7.4459982e-02
3.0278699e-02
-9.9630933e-03
-5.1823424e-02
-8.2212432e-02
-8.9818962e-02
-7.1358887e-02
-4.1498705e-02
-3.2904889e-02
-4.8279968e-02
-5.9734542e-02
-6.2898812e-02
-7.3541422e-02
-8.4899954e-02
-8.1499271e-02
-6.6591970e-02
-5.2318706e-02
-4.3923468e-02
-2.3870150e-02
3.0533692e-02
1.0885843e-01
1.8320992e-01
2.2748875e-01
2.1172293e-01
1.4027739e-01
4.9172866e-02
-1.8425305e-02
-1.4333442e-02
4.0007971e-02
6.7333780e-02
3.7761883e-02
-2.3073401e-02
-8.2222939e-02
-1.2324889e-01
-1.3236011e-01
-1.0401046e-01
-5.9085475e-02
-2.6231172e-02
-2.7211318e-02
-4.5227470e-02
-2.9550850e-02
2.0426575e-02
7.3527595e-02
1.0719070e-01
1.0388515e-01
8.2487453e-02
7.3797354e-02
7.9040423e-02
7.1167639e-02
3.1207482e-02
-2.3775578e-02
-6.7445188e-02
-9.7652861e-02
-1.2782238e-01
-1.5492336e-01
-1.6589400e-01
-1.5421446e-01
-1.2160423e-01
-7.3719509e-02
-7.9609935e-03
6.8163047e-02
1.1671814e-01
1.0883991e-01
5.9310847e-02
2.2167534e-03
-3.6550508e-02
-4.6934554e-02
-3.6667977e-02
-2.4260120e-02
-5.0394103e-03
4.9705404e-02
1.3735571e-01
2.1073681e-01
2.3122029e-01
1.8017011e-01
8.0984714e-02
7.6418377e-03
-5.7512073e-03
1.4064381e-02
2.1814608e-02
-4.9268219e-03
-4.8328662e-02
-9.1062732e-02
-1.3408542e-01
-1.6660919e-01
-1.6493923e-01
-1.2353190e-01
-7.0977044e-02
-4.5989370e-02
-4.3384468e-02
-1.8774464e-02
4.9603406e-02
1.4417255e-01
2.2110672e-01
2.2191612e-01
1.2357451e-01
-2.3823619e-02
-1.3690555e-01
-1.6550326e-01
-1.2890196e-01
-8.1278370e-02
-3.3401424e-02
2.0037753e-02
5.3317737e-02
5.8481875e-02
5.4357436e-02
5.5129942e-02
6.8764263e-02
7.2652573e-02
4.1603686e-02
4.8700248e-03
-1.6320228e-02
-3.6599164e-02
-5.9365852e-02
-8.1237330e-02
-1.0226741e-01
-1.1897420e-01
-1.2927935e-01
-1.3769277e-01
-1.4807620e-01
-1.5019078e-01
-1.1995984e-01
-3.7147354e-02
8.7129021e-02
2.0529271e-01
2.7609870e-01
2.9926206e-01
2.8426783e-01
2.3276453e-01
1.5087937e-01
5.0125520e-02
-3.8818369e-02
-9.6597931e-02
-1.2842769e-01
-1.3482136e-01
-1.1491201e-01
-7.5576454e-02
-3.4697866e-02
-1.8378429e-02
-3.2847763e-02
-5.2791834e-02
-6.5621313e-02
-7.7318552e-02
-7.7460730e-02
-5.0932344e-02
1.2752534e-03
7.3681328e-02
1.5043142e-01
1.6370698e-01
7.2654875e-02
-5.1888119e-02
-1.3541284e-01
-1.5998824e-01
-1.2750139e-01
-4.8101828e-02
5.9041179e-02
1.6383631e-01
2.3290065e-01
2.3964289e-01
1.7540165e-01
7.0092105e-02
-2.4844601e-02
-8.3348599e-02
-9.8344270e-02
-8.7841852e-02
-8.6309059e-02
-9.4826393e-02
-9.9606972e-02
-1.0545833e-01
-1.1210128e-01
-9.5124041e-02
-4.5725479e-02
1.5845470e-02
8.1417551e-02
1.3700680e-01
1.4627798e-01
1.0368460e-01
3.5040805e-02
-3.3689822e-02
-7.9434595e-02
-1.0023368e-01
-1.0075062e-01
-8.4901089e-02
-7.2300717e-02
-6.4581382e-02
-3.9847855e-02
1.2313738e-02
8.1977500e-02
1.5195282e-01
1.8957146e-01
1.5528636e-01
6.4566178e-02
-2.3807918e-02
-7.5700227e-02
-1.0667031e-01
-1.3860815e-01
-1.5184160e-01
-1.3228147e-01
-1.0847188e-01
-1.1020925e-01
-1.2312680e-01
-9.7959140e-02
1.0700271e-02
1.9619987e-01
3.9368693e-01
5.2384830e-01
5.0789024e-01
3.1719638e-01
4.0891139e-02
-1.9216513e-01
-3.4074588e-01
-4.0714430e-01
-3.8072106e-01
-2.7984918e-01
-1.5635838e-01
-5.7309551e-02
4.5078203e-03
2.2753430e-02
-5.4493858e-04
-1.3105472e-02
3.3528593e-02
1.3451290e-01
2.4588892e-01
3.0158385e-01
2.4706590e-01
1.0261679e-01
-4.3279244e-02
-1.3227965e-01
-1.5059540e-01
-1.2228280e-01
-8.1921564e-02
-1.6071362e-02
7.6581180e-02
1.5187254e-01
1.7302965e-01
1.2306248e-01
1.6702163e-02
-8.9705318e-02
-1.3713394e-01
-1.0342738e-01
-1.8066589e-02
7.2867603e-02
1.3696619e-01
1.4454831e-01
7.8549683e-02
-2.6273543e-02
-1.0430821e-01
-1.2997870e-01
-1.1566338e-01
-8.1665282e-02
-5.7666297e-02
-5.6279269e-02
-5.5883224e-02
-3.9273429e-02
-7.9246551e-03
2.8589131e-02
5.3890434e-02
4.0030439e-02
-1.9889359e-02
-8.0084323e-02
-9.6282149e-02
-6.9616330e-02
-3.2378984e-02
-8.3813705e-03
1.6129324e-03
7.5666516e-03
3.2320572e-02
7.8943682e-02
1.1245203e-01
1.2237736e-01
1.4470303e-01
1.7567520e-01
1.6071883e-01
9.0249355e-02
-8.0950680e-03
-1.0967254e-01
-1.7628581e-01
-1.8285356e-01
-1.4823635e-01
-1.0950963e-01
-8.3035738e-02
-7.7085823e-02
-1.0022327e-01
-1.3297101e-01
-1.3431886e-01
-8.3835401e-02
6.7986227e-03
1.0838781e-01
1.7734026e-01
2.0651686e-01
2.3110686e-01
2.5533228e-01
2.4439685e-01
1.6609283e-01
3.1616253e-02
-9.2177589e-02
-1.3748987e-01
-1.1133723e-01
-8.1160315e-02
-7.7475650e-02
-7.6495426e-02
-6.6440692e-02
-4.5019172e-02
-1.4003812e-02
1.1959268e-02
9.0191040e-03
-3.8158443e-02
-1.0101073e-01
-1.3483851e-01
-1.3161218e-01
-1.1431316e-01
-7.9624831e-02
-1.8868961e-02
4.3131864e-02
7.5486251e-02
7.6873878e-02
8.3040055e-02
1.3172456e-01
2.2229752e-01
2.8755014e-01
2.6164867e-01
1.6183661e-01
4.1141900e-02
-5.7770108e-02
-1.1003094e-01
-1.1763772e-01
-1.0558769e-01
-9.2552268e-02
-7.7222669e-02
-5.4556654e-02
-3.2545534e-02
-3.8501095e-02
-7.9192791e-02
-1.2453057e-01
-1.4035211e-01
-1.1951185e-01
-7.0770200e-02
1.7131174e-03
8.2421663e-02
1.4178125e-01
1.5437346e-01
1.1332079e-01
4.7299792e-02
5.9055863e-03
5.0395522e-03
2.6136114e-02
4.6131392e-02
5.8543085e-02
9.8491373e-02
1.6223551e-01
1.6486281e-01
6.3898656e-02
-9.5640338e-02
-2.4075148e-01
-3.1827021e-01
-3.1443265e-01
-2.4692715e-01
-1.4766819e-01
-3.6704127e-02
4.0780769e-02
1.7021505e-02
-7.7848560e-02
-1.3480971e-01
-9.2355452e-02
2.0281305e-02
1.2466547e-01
1.7299226e-01
1.6861186e-01
1.3823826e-01
1.0882231e-01
7.4001466e-02
1.9393688e-03
-7.4009594e-02
-6.1579151e-02
7.3336319e-02
2.6499950e-01
3.9246635e-01
3.6407056e-01
2.0630054e-01
1.7672171e-02
-1.4696984e-01
-2.6367917e-01
-3.2953008e-01
-3.4898696e-01
-3.0849193e-01
-2.1507751e-01
-8.6206368e-02
6.9683261e-02
2.4209913e-01
3.7740874e-01
3.8961527e-01
2.5917908e-01
4.8606634e-02
-1.3771648e-01
-1.9679629e-01
-1.1848348e-01
5.1138736e-03
7.0894667e-02
2.2385019e-02
-1.0243090e-01
-1.9316478e-01
-1.8244498e-01
-8.9490881e-02
1.9423887e-02
8.2705971e-02
7.5163696e-02
2.5683967e-02
-5.7851562e-03
1.1352390e-02
6.1488531e-02
9.9868740e-02
8.4638740e-02
8.0874804e-03
-9.7407007e-02
-1.9125964e-01
-2.5943530e-01
-2.9397107e-01
-2.7919975e-01
-2.0609147e-01
-7.0790064e-02
1.2440910e-01
3.4050041e-01
4.9367254e-01
5.2030723e-01
4.2178948e-01
2.5015232e-01
7.3789909e-02
-5.9085893e-02
-1.4283585e-01
-1.9484376e-01
-2.2001005e-01
-2.3604716e-01
-2.5929933e-01
-2.6620344e-01
-2.2765365e-01
-1.4107952e-01
-2.0115518e-02
1.1380873e-01
2.1804395e-01
2.5509781e-01
2.1980385e-01
1.3287659e-01
3.4176329e-02
-4.6279299e-02
-8.8750586e-02
-8.4586377e-02
-5.1951125e-02
-5.7030847e-03
1.8090533e-02
-1.0882257e-02
-4.5697544e-02
-5.2357791e-02
-4.7482965e-02
-2.7970420e-02
1.4798002e-02
5.5289308e-02
6.8533206e-02
7.0049154e-02
6.9577395e-02
5.6017241e-02
2.6109007e-02
-2.3346642e-02
-7.4108943e-02
-1.0323985e-01
-1.1634169e-01
-1.2161484e-01
-1.0260463e-01
-4.4320730e-02
2.2209705e-02
6.6493840e-02
8.1954411e-02
5.8189483e-02
3.0533313e-03
-5.2572056e-02
-7.1136663e-02
-2.8520192e-02
5.6374633e-02
1.3106610e-01
1.4893661e-01
9.9212644e-02
1.4121393e-02
-5.0066477e-02
-4.8761529e-02
1.8352049e-02
9.7416922e-02
1.2799828e-01
9.9578082e-02
4.0558931e-02
-1.4050816e-02
-6.3780691e-02
-1.1986569e-01
-1.5034036e-01
-1.2604311e-01
-5.3558468e-02
2.8500864e-02
7.0804616e-02
7.4205449e-02
7.2922537e-02
6.9964289e-02
4.6408515e-02
1.5209330e-03
-5.2405464e-02
-1.1114990e-01
-1.8348887e-01
-2.5781210e-01
-2.7884274e-01
-2.1684386e-01
-9.2940922e-02
5.3591115e-02
1.8521654e-01
2.8399999e-01
3.2708136e-01
2.8411548e-01
1.6550388e-01
3.9351937e-02
-2.7586429e-02
-2.7049111e-02
-1.6819671e-03
2.0278274e-02
1.8919586e-02
-3.0183246e-02
-9.7217020e-02
-1.3941994e-01
-1.4032217e-01
-1.2376118e-01
-1.2610706e-01
-1.1658673e-01
-5.7178473e-02
1.1481316e-02
5.1460933e-02
8.4725385e-02
1.0678662e-01
8.7205651e-02
2.4597503e-02
-5.2159408e-02
-9.5738036e-02
-8.1802865e-02
-3.9507718e-02
-1.9765553e-02
-3.6487555e-02
-6.5566948e-02
-8.1768520e-02
-5.3457442e-02
3.4709946e-02
1.6225159e-01
3.0072414e-01
4.0160730e-01
4.1594535e-01
3.1321294e-01
1.2419735e-01
-5.2377710e-02
-1.6699997e-01
-2.1637101e-01
-2.0409456e-01
-1.5876390e-01
-1.1985758e-01
-1.1479622e-01
-1.3537100e-01
-1.6265899e-01
-1.8388203e-01
-1.8599986e-01
-1.6808884e-01
-1.2967956e-01
-6.8235099e-02
2.3951588e-02
1.4428092e-01
2.5826111e-01
3.2659215e-01
3.1439218e-01
2.2241833e-01
1.1382671e-01
4.4266071e-02
7.7239816e-03
-2.2041097e-02
-5.8692215e-02
-1.0874917e-01
-1.5385178e-01
-1.6243454e-01
-1.3236932e-01
-8.0718711e-02
-1.8995939e-02
4.0353548e-02
8.1964401e-02
9.5511844e-02
8.2973026e-02
5.1696273e-02
6.7425635e-05
-6.7369638e-02
-1.2412977e-01
-1.5441171e-01
-1.6193882e-01
-1.4112689e-01
-9.2832087e-02
-3.0623114e-02
3.9738660e-02
1.1031930e-01
1.5719545e-01
1.6238668e-01
1.2088564e-01
5.0353157e-02
-1.4430201e-02
-6.2600919e-02
-8.7359874e-02
-7.7882365e-02
-3.7773041e-02
1.5842104e-02
6.8833825e-02
1.2356087e-01
1.6070208e-01
1.4708823e-01
8.9742362e-02
2.3433567e-02
-3.0875308e-02
-6.9255800e-02
-9.4880142e-02
-1.0940246e-01
-1.1046239e-01
-1.0567860e-01
-9.5099228e-02
-7.4326699e-02
-4.1061364e-02
1.5891254e-02
9.0167713e-02
1.5908838e-01
1.9592437e-01
1.8623220e-01
1.4112111e-01
8.2123995e-02
2.5898453e-02
-2.6401022e-02
-7.3527095e-02
-1.0933477e-01
-1.2485926e-01
-1.2056661e-01
-1.1564857e-01
-1.2596071e-01
-1.5126554e-01
-1.7131936e-01
-1.7072683e-01
-1.5337039e-01
-1.1730271e-01
-4.6466520e-02
6.8934972e-02
2.2199650e-01
3.6557490e-01
4.2809766e-01
3.7662732e-01
2.4049501e-01
9.4961431e-02
-7.7607636e-03
-6.5825458e-02
-1.0341422e-01
-1.3766976e-01
-1.6441957e-01
-1.7723459e-01
-1.6502529e-01
-1.2312247e-01
-6.3184917e-02
-2.5077036e-02
-2.8323090e-02
-3.5645766e-02
-3.0657489e-02
-2.3465885e-02
-7.0410110e-03
2.9309500e-02
6.9450238e-02
8.1223802e-02
4.6589589e-02
-3.0320154e-02
-1.1274938e-01
-1.5452383e-01
-1.4529972e-01
-9.3682149e-02
4.4266624e-03
1.5328096e-01
3.1397113e-01
4.0453134e-01
3.6665044e-01
2.0853574e-01
5.4633362e-03
-1.6042931e-01
-2.5773124e-01
-2.9752268e-01
-3.0561481e-01
-2.9454333e-01
-2.4017284e-01
-1.1714432e-01
3.8684109e-02
1.6270526e-01
2.4258332e-01
3.1079126e-01
3.6508725e-01
3.6759180e-01
2.8855031e-01
1.3922883e-01
-2.2818608e-02
-1.4643811e-01
-2.1208757e-01
-2.3271194e-01
-2.3532612e-01
-2.2465038e-01
-1.9338663e-01
-1.4426024e-01
-8.0897569e-02
-5.3637928e-03
6.4772324e-02
1.0422165e-01
1.0436980e-01
6.6953014e-02
1.3405478e-02
-2.7629809e-02
-5.5418817e-02
-8.4561017e-02
-1.2763533e-01
-1.6682321e-01
-1.5974410e-01
-9.1942283e-02
1.4054844e-02
1.3573958e-01
2.5549386e-01
3.2902899e-01
3.2448818e-01
2.7332415e-01
2.1002737e-01
1.1550303e-01
-1.1446950e-02
-1.3323540e-01
-2.2167093e-01
-2.5138714e-01
-2.1871941e-01
-1.5399595e-01
-9.5240703e-02
-5.8971199e-02
-3.3733808e-02
-1.4585234e-02
-1.3862930e-02
-3.0082403e-02
-3.4236335e-02
1.9249511e-02
1.0666817e-01
1.3641009e-01
9.9534772e-02
5.7964289e-02
4.4344043e-02
5.2724061e-02
5.2311218e-02
1.5075772e-02
-4.2964642e-02
-7.0427907e-02
-4.9336414e-02
-1.7886722e-02
-9.1802363e-03
-2.0790749e-02
-4.3084741e-02
-7.9238454e-02
-1.3205438e-01
-1.8073354e-01
-1.9951722e-01
-1.6968511e-01
-7.3973668e-02
6.5038449e-02
1.8573464e-01
2.3431857e-01
2.1243172e-01
1.8764193e-01
2.0146527e-01
2.1049939e-01
1.5009010e-01
-2.5363298e-03
-1.9332769e-01
-3.0303327e-01
-2.6523606e-01
-1.1284667e-01
6.6737886e-02
2.0217896e-01
2.7848140e-01
2.8848854e-01
2.2139464e-01
1.0144596e-01
-1.6480051e-02
-1.1040911e-01
-1.7678350e-01
-2.1129147e-01
-2.3293007e-01
-2.6023463e-01
-2.8822186e-01
-2.8312540e-01
-2.2246298e-01
-1.3567883e-01
-4.4255885e-02
5.7532977e-02
1.4149113e-01
1.6682020e-01
1.4166467e-01
1.1813703e-01
1.3495527e-01
1.8958234e-01
2.4654117e-01
2.7642424e-01
2.7222700e-01
2.1684025e-01
9.1303700e-02
-6.6832123e-02
-1.7265550e-01
-1.8579806e-01
-1.3296361e-01
-6.5612924e-02
-2.7105679e-02
-4.5485076e-02
-1.0012931e-01
-1.0443457e-01
-1.0702380e-02
1.3752281e-01
2.5319653e-01
2.3987909e-01
7.1010719e-02
-1.5171565e-01
-3.0318041e-01
-3.4635897e-01
-3.0202339e-01
-1.9729903e-01
-6.6608103e-02
4.9404696e-02
1.3024527e-01
1.8734905e-01
2.2388930e-01
2.2260138e-01
1.7608612e-01
1.0106386e-01
4.0212220e-02
8.6679493e-03
-1.5406941e-02
-4.8250996e-02
-9.8352884e-02
-1.5211351e-01
-1.9345103e-01
-2.1917148e-01
-2.1986633e-01
-1.8000427e-01
-1.0289305e-01
-2.7441256e-02
2.8121207e-02
7.3402187e-02
1.0251602e-01
1.1108621e-01
1.2214965e-01
1.7104913e-01
2.4653419e-01
2.7087806e-01
2.1356186e-01
1.3898803e-01
8.1156366e-02
1.6804454e-02
-5.2839660e-02
-1.0512375e-01
-1.3428605e-01
-1.3118584e-01
-1.0438140e-01
-9.2933769e-02
-9.1677050e-02
-5.8375583e-02
5.5472612e-03
5.8919951e-02
6.9247003e-02
2.6690982e-02
-4.4984537e-02
-1.0463978e-01
-1.3953271e-01
-1.6739725e-01
-1.8093557e-01
-1.4703354e-01
-6.6043490e-02
3.8471811e-02
1.3146303e-01
1.7855245e-01
1.8837946e-01
1.8690091e-01
1.8374671e-01
1.7603925e-01
1.7394395e-01
1.8131635e-01
1.5005976e-01
4.9667036e-02
-8.6094951e-02
-2.1013317e-01
-2.8649466e-01
-2.9552402e-01
-2.4922764e-01
-1.8064656e-01
-1.1757435e-01
-6.9203586e-02
-2.6646925e-02
1.5290437e-02
5.8553245e-02
1.1121644e-01
1.6492943e-01
1.8891155e-01
1.6116071e-01
7.5525644e-02
-4.3225716e-02
-1.3357484e-01
-1.6480039e-01
-1.5117224e-01
-1.1527741e-01
-8.0507781e-02
-4.5629038e-02
-2.3800094e-03
2.8671645e-02
4.2018231e-02
6.0433355e-02
9.2700644e-02
1.2814521e-01
1.4640644e-01
1.0796690e-01
-1.2253598e-02
-1.6568232e-01
-2.6487069e-01
-2.5212742e-01
-1.1939249e-01
8.0626213e-02
2.4772165e-01
3.0729058e-01
2.6222467e-01
1.6867864e-01
8.6514251e-02
4.3676936e-02
4.7092647e-02
8.3782879e-02
1.0012592e-01
6.9066895e-02
1.8035042e-02
-4.3609833e-02
-1.1647896e-01
-1.7949708e-01
-2.1498566e-01
-2.2174585e-01
-1.9634619e-01
-1.3543628e-01
-5.8274521e-02
1.1486052e-02
6.8259921e-02
1.0778394e-01
1.2552216e-01
1.2889517e-01
1.1534564e-01
7.2573777e-02
1.0294624e-02
-3.5311391e-02
-2.7471839e-02
1.6870344e-02
4.0533635e-02
2.3195185e-02
-1.0313751e-02
-2.8841162e-02
-2.8464493e-02
-3.3430528e-02
-5.4387258e-02
-7.3517533e-02
-8.7038892e-02
-9.6194676e-02
-8.3797571e-02
-5.6111778e-02
-3.7553094e-02
-3.6097564e-02
-4.5121594e-02
-4.7034827e-02
-3.5827481e-02
-2.9029327e-02
-4.0913060e-02
-5.5922516e-02
-3.9713977e-02
2.1881622e-02
1.2443266e-01
2.4152427e-01
3.0576695e-01
2.7000203e-01
1.6154022e-01
4.0133271e-02
-4.4300674e-02
-7.1779623e-02
-6.3161905e-02
-5.3411115e-02
-6.3089336e-02
-8.2915418e-02
-8.7087663e-02
-7.2282427e-02
-5.2796205e-02
-3.7047650e-02
-2.7431708e-02
-1.3584506e-02
9.0491902e-03
2.3618730e-02
2.6505611e-02
3.8046712e-02
5.5252291e-02
5.4338240e-02
4.2874940e-02
4.0941887e-02
4.1448316e-02
2.1715880e-02
-2.2535039e-02
-6.7420134e-02
-8.5430891e-02
-6.9745225e-02
-3.4611375e-02
2.5636039e-04
1.6190375e-02
2.7916434e-03
-1.8314953e-02
-1.3781229e-02
1.2015140e-02
2.6004769e-02
4.3136577e-03
-3.4779481e-02
-4.9690702e-02
-3.3556595e-02
-9.1264343e-03
-7.5002078e-03
-3.1404040e-02
-4.9165357e-02
-4.2396676e-02
-2.4062737e-03
5.3180766e-02
8.9975554e-02
9.1417088e-02
4.7804315e-02
-1.1182564e-02
-3.2687611e-02
-1.1105077e-02
1.5863168e-02
2.1795535e-02
2.0039988e-02
2.8822320e-02
4.4140435e-02
5.2011330e-02
5.4586455e-02
6.5509959e-02
7.8813203e-02
8.0445607e-02
6.2692755e-02
2.2652987e-02
-3.5087050e-02
-9.7043954e-02
-1.4015059e-01
-1.5576987e-01
-1.5786479e-01
-1.5335237e-01
-1.4039005e-01
-1.2706709e-01
-1.1601294e-01
-9.2296815e-02
-4.7842904e-02
9.3367933e-03
6.3451758e-02
1.1115314e-01
1.6432580e-01
2.1359224e-01
2.3463806e-01
2.1279479e-01
1.5878775e-01
9.9492105e-02
3.9996308e-02
-2.7557636e-02
-1.0175998e-01
-1.6529052e-01
-2.1016354e-01
-2.4434654e-01
-2.6083634e-01
-2.2832647e-01
-1.3413497e-01
-1.2497342e-02
1.0513205e-01
2.0290302e-01
2.6079453e-01
2.5561858e-01
1.8213561e-01
6.7809616e-02
-3.5328553e-02
-6.1274515e-02
-1.8055084e-02
1.2480514e-02
1.7907412e-02
3.3432385e-02
6.5097088e-02
7.6636023e-02
1.4104254e-02
-9.3434422e-02
-1.5043362e-01
-9.0689273e-02
5.3563004e-02
1.6685518e-01
1.7930223e-01
1.0604276e-01
-3.3245097e-03
-1.0097895e-01
-1.5483856e-01
-1.5681652e-01
-1.3094342e-01
-1.0750356e-01
-8.7258187e-02
-5.0682129e-02
3.5711080e-03
5.7943489e-02
1.0102411e-01
1.2824324e-01
1.2695029e-01
8.4779759e-02
1.6836878e-02
-4.3739014e-02
-8.6124505e-02
-1.2621939e-01
-1.7205669e-01
-2.2382948e-01
-2.6997490e-01
-2.7211945e-01
-2.0836925e-01
-8.4321319e-02
9.0699852e-02
2.8041931e-01
4.2311895e-01
4.5486379e-01
3.2536881e-01
8.4479146e-02
-1.2325731e-01
-2.0180438e-01
-1.5005396e-01
-3.2705656e-02
6.1776752e-02
8.5915357e-02
4.9805403e-02
-1.6547638e-02
-7.9307777e-02
-9.2353521e-02
-4.4181679e-02
2.0140035e-02
6.3326811e-02
9.3288633e-02
1.2771531e-01
1.5853793e-01
1.5997580e-01
1.0514567e-01
7.6176896e-03
-9.0189779e-02
-1.6053145e-01
-1.6921918e-01
-1.1048560e-01
-3.8820932e-02
-1.7309734e-02
-5.5397089e-02
-9.6557865e-02
-9.4784206e-02
-6.2890432e-02
-3.8272160e-02
-4.3431221e-02
-6.4311958e-02
-7.9227932e-02
-7.6374785e-02
-4.9010393e-02
-8.3452878e-03
2.9693358e-02
6.5296126e-02
1.1602644e-01
1.6717332e-01
1.8717639e-01
1.9209034e-01
2.2640325e-01
2.9654331e-01
3.4487399e-01
2.8750016e-01
1.0709119e-01
-8.7905494e-02
-2.1211156e-01
-2.8574218e-01
-3.1446972e-01
-2.7377828e-01
-1.9533382e-01
-1.3690649e-01
-9.5835653e-02
-6.5771375e-02
-6.3597278e-02
-6.6347575e-02
-4.9177565e-02
-1.7069212e-02
1.3649106e-02
3.6004334e-02
7.7734089e-02
1.5130442e-01
2.2472013e-01
2.7624784e-01
2.9538536e-01
2.5753823e-01
1.5104318e-01
1.9790037e-03
-1.4275519e-01
-2.3805158e-01
-2.3778625e-01
-1.3208335e-01
1.2439000e-02
8.7678609e-02
3.0698282e-02
-1.0651410e-01
-2.1859357e-01
-2.4650967e-01
-1.8019860e-01
-5.3026478e-02
6.5877716e-02
1.4313258e-01
1.7900756e-01
1.4468554e-01
3.1641851e-02
-1.0437394e-01
-2.0769485e-01
-2.5374933e-01
-2.3093232e-01
-1.3338555e-01
3.7470708e-02
2.4362863e-01
4.0308944e-01
4.4627980e-01
3.6127379e-01
1.7926135e-01
-3.5759174e-02
-2.1090027e-01
-3.0074198e-01
-2.7980950e-01
-1.6742356e-01
-3.9647845e-02
3.8185026e-02
6.2286288e-02
6.8524817e-02
5.5253800e-02
-4.5782324e-03
-8.6176711e-02
-1.4039990e-01
-1.4335142e-01
-9.7361308e-02
-2.4858279e-02
5.2917733e-02
1.2157214e-01
1.4238531e-01
7.9733026e-02
-3.6697610e-02
-1.3563509e-01
-1.6659623e-01
-1.1472395e-01
-1.0875377e-02
7.6910178e-02
1.1008873e-01
1.0767189e-01
9.5826539e-02
7.2128733e-02
3.6945706e-02
1.1398245e-02
1.8826672e-02
5.6680155e-02
9.5729482e-02
1.0858541e-01
8.8477465e-02
4.4559062e-02
-6.0125685e-03
-6.1404467e-02
-1.4897901e-01
-2.4210440e-01
-2.6088824e-01
-1.7699467e-01
-2.3937625e-02
1.4378677e-01
2.6257225e-01
3.1383477e-01
2.9920788e-01
1.8152263e-01
-2.1094810e-02
-2.1320140e-01
-2.8976214e-01
-2.1225092e-01
-5.9525285e-02
4.9322189e-02
6.3563315e-02
1.8447018e-02
-3.6580677e-02
-8.3274269e-02
-1.0422446e-01
-7.8450773e-02
-1.5594566e-02
4.9625157e-02
9.1553844e-02
9.9424422e-02
7.5194325e-02
4.3654032e-02
4.1076879e-03
-5.8030879e-02
-1.0772840e-01
-1.1227394e-01
-6.6716203e-02
9.8580267e-03
8.3331990e-02
1.1495737e-01
7.4875377e-02
6.5822991e-03
-6.5463959e-03
5.2893731e-02
1.3129556e-01
1.8180174e-01
1.7900682e-01
1.2540828e-01
5.7665487e-02
-7.4574906e-03
-8.0548640e-02
-1.5896275e-01
-2.2060962e-01
-2.4710369e-01
-2.3496920e-01
-1.8538878e-01
-1.1332352e-01
-5.3653728e-02
-1.2816813e-02
4.3589797e-02
1.3648031e-01
2.3165501e-01
2.9654036e-01
3.1988940e-01
2.4944670e-01
7.6412158e-02
-1.2889922e-01
-2.8636247e-01
-3.4288083e-01
-3.1809832e-01
-2.5945810e-01
-1.8157244e-01
-7.0493221e-02
7.0606249e-02
2.0889251e-01
3.1155810e-01
3.4253632e-01
2.8851084e-01
1.7329212e-01
2.3304434e-02
-1.1370680e-01
-1.7390121e-01
-1.5872822e-01
-1.0902395e-01
-5.1646044e-02
-2.3447352e-02
-3.4687637e-02
-6.1784634e-02
-8.8543271e-02
-1.0479406e-01
-1.1077703e-01
-1.0029339e-01
-6.1293632e-02
-6.9041356e-04
7.3282547e-02
1.5251903e-01
2.1255821e-01
2.1795971e-01
1.5474634e-01
4.8936109e-02
-5.7980941e-02
-1.4258032e-01
-1.8934183e-01
-1.6687154e-01
-6.5042463e-02
8.9949909e-02
2.4184130e-01
3.1199418e-01
2.6097859e-01
1.3413005e-01
7.4900993e-03
-7.7607307e-02
-1.0977278e-01
-9.4118642e-02
-5.4484376e-02
-3.0863849e-02
-4.2083569e-02
-8.1463362e-02
-1.3852958e-01
-1.8689254e-01
-1.9406920e-01
-1.4018566e-01
-3.3985187e-02
8.6968638e-02
1.8600808e-01
2.3212642e-01
2.0673152e-01
1.2230270e-01
1.0672342e-02
-8.9075556e-02
-1.4742570e-01
-1.4625701e-01
-1.0291466e-01
-6.7841040e-02
-6.2403451e-02
-8.0911568e-02
-8.3217378e-02
-2.4358593e-02
7.8878768e-02
1.6977982e-01
2.0280442e-01
1.9114383e-01
1.6575953e-01
1.1939441e-01
4.3614191e-02
-5.0543756e-02
-1.3152146e-01
-1.6745200e-01
-1.6199013e-01
-1.3604146e-01
-9.6051678e-02
-3.7446565e-02
2.8262069e-02
8.0400534e-02
1.1746771e-01
1.3182392e-01
1.0145373e-01
1.7777024e-02
-9.2864964e-02
-1.8083580e-01
-2.2459463e-01
-2.3781342e-01
-2.1412705e-01
-1.2341218e-01
3.0632283e-02
1.8779636e-01
2.4903613e-01
1.8634015e-01
8.6684638e-02
1.9936096e-02
-1.4355662e-05
2.0494696e-02
