-2.5558928e-02
-7.0860761e-02
-1.0150087e-01
-1.1769463e-01
-1.0073600e-01
-1.3490809e-02
1.5011391e-01
3.2196170e-01
4.1266247e-01
4.2170303e-01
3.7800423e-01
2.5807360e-01
9.1541153e-02
-4.1057750e-02
-1.1321994e-01
-1.4064228e-01
-1.4092238e-01
-1.2546395e-01
-1.0211774e-01
-7.9012193e-02
-6.7686689e-02
-7.4942315e-02
-8.6199855e-02
-8.3484179e-02
-8.0141224e-02
-1.0339855e-01
-1.5791989e-01
-2.2588183e-01
-2.8063889e-01
-2.8969434e-01
-2.2071449e-01
-5.6029132e-02
1.5958682e-01
3.3254322e-01
4.2198809e-01
4.3350583e-01
3.6369786e-01
2.4756723e-01
1.5730648e-01
8.8542971e-02
6.7393365e-03
-5.8654724e-02
-8.7761400e-02
-9.7200661e-02
-9.6610740e-02
-9.1120088e-02
-8.9610078e-02
-9.0396472e-02
-8.6851739e-02
-7.5850532e-02
-6.1209540e-02
-5.0190562e-02
-3.7359974e-02
-2.0839746e-02
-1.9040424e-02
-4.3170280e-02
-7.3146220e-02
-8.5174985e-02
-8.2498104e-02
-7.7852509e-02
-8.9241753e-02
-1.1695742e-01
-1.1529008e-01
-5.0262178e-02
6.1487472e-02
1.7853367e-01
2.8051234e-01
3.5439189e-01
3.4916880e-01
2.4965004e-01
1.2607930e-01
3.6727008e-02
-1.7961000e-02
-5.0330075e-02
-7.1691025e-02
-8.9127207e-02
-9.8792302e-02
-1.0471004e-01
-1.1514596e-01
-1.3633105e-01
-1.7831774e-01
-2.4020223e-01
-3.1288375e-01
-3.8901662e-01
-4.5123271e-01
-4.7193430e-01
-4.1419110e-01
-2.2930478e-01
5.9847531e-02
3.3151451e-01
5.5000354e-01
7.6199348e-01
9.2092944e-01
9.6014154e-01
8.6407293e-01
6.2505022e-01
2.7817739e-01
-7.3495466e-02
-3.4145758e-01
-5.0764902e-01
-5.7876625e-01
-5.6224044e-01
-4.7104522e-01
-3.2917317e-01
-1.9988906e-01
-1.3104993e-01
-9.9037100e-02
-6.9018088e-02
-7.3097096e-02
-1.7766071e-01
-3.4449456e-01
-4.5153055e-01
-4.3356722e-01
-3.0358368e-01
-8.9046858e-02
1.5520627e-01
3.4703605e-01
4.6485797e-01
5.3459649e-01
5.7931122e-01
6.1529295e-01
6.4905618e-01
6.6276809e-01
6.0649460e-01
4.3486092e-01
1.6685860e-01
-1.0967672e-01
-3.1498842e-01
-4.2573346e-01
-4.5633966e-01
-4.3085795e-01
-3.7273557e-01
-3.0368385e-01
-2.4115347e-01
-1.9500172e-01
-1.6757878e-01
-1.5770122e-01
-1.6420223e-01
-1.8340391e-01
-2.0141618e-01
-2.0443797e-01
-1.8286694e-01
-1.1884899e-01
1.0112002e-02
1.8931099e-01
3.4298623e-01
4.1319078e-01
4.3812833e-01
4.5922466e-01
4.1019063e-01
2.3337797e-01
8.2964014e-03
-1.4846594e-01
-2.2332428e-01
-2.5618365e-01
-2.4454986e-01
-2.1523087e-01
-2.2540970e-01
-2.4339452e-01
-1.9895779e-01
-7.1574815e-02
1.2353129e-01
3.4691443e-01
5.3147163e-01
5.8571303e-01
4.3979440e-01
1.5873102e-01
-1.0363084e-01
-2.8622231e-01
-4.0631390e-01
-4.7132935e-01
-4.7436340e-01
-4.1911487e-01
-3.1901794e-01
-2.4754176e-01
-2.6377597e-01
-2.5903462e-01
-1.3344301e-01
1.1211493e-01
4.1250044e-01
6.3765346e-01
7.2500732e-01
6.9672074e-01
5.6965224e-01
3.5708357e-01
7.3524120e-02
-2.3414892e-01
-4.4578148e-01
-4.9868134e-01
-4.3238352e-01
-3.0104764e-01
-1.6751544e-01
-6.1550623e-02
7.8799928e-02
2.5826466e-01
3.5949109e-01
2.9617921e-01
1.1511131e-01
-2.6523527e-02
-3.4520754e-02
1.3069076e-02
2.8751327e-03
-7.9459917e-02
-2.1711510e-01
-3.6082081e-01
-4.2195186e-01
-3.4846303e-01
-1.3451706e-01
1.6643874e-01
4.4040155e-01
5.8373355e-01
5.6099107e-01
3.6555801e-01
5.9912024e-02
-2.0338915e-01
-3.3639743e-01
-3.4014692e-01
-2.6958592e-01
-1.8612628e-01
-1.0566990e-01
-8.5193222e-02
-1.5288089e-01
-2.2270474e-01
-1.9771973e-01
-3.1273387e-02
2.2863601e-01
4.4807013e-01
5.2453488e-01
4.3179754e-01
2.1811549e-01
-7.3985135e-03
-1.8069050e-01
-2.8532083e-01
-2.7051508e-01
-1.7152180e-01
-8.1755082e-02
-1.9303571e-03
2.8456873e-02
-7.1775532e-02
-2.4576437e-01
-3.4935987e-01
-2.9571730e-01
-7.0482941e-02
2.3355914e-01
4.7098891e-01
5.8432274e-01
5.5933166e-01
3.8354742e-01
8.1129471e-02
-2.5132565e-01
-4.7662032e-01
-5.3602151e-01
-4.4455946e-01
-2.1521029e-01
6.6952131e-02
2.5143771e-01
2.9476689e-01
2.4115264e-01
9.9015669e-02
-8.8047036e-02
-1.8685649e-01
-1.1233633e-01
5.8067413e-02
1.7635267e-01
1.9589067e-01
1.4276307e-01
1.4156744e-02
-2.0282307e-01
-4.3144039e-01
-5.3843845e-01
-4.5893297e-01
-2.3154870e-01
8.8776381e-03
1.9769773e-01
3.6925573e-01
4.8703174e-01
5.2735732e-01
5.2954647e-01
4.8761889e-01
3.6687210e-01
2.2388308e-01
1.7390850e-01
1.7175995e-01
7.4294053e-02
-1.0890976e-01
-2.6318071e-01
-3.4037957e-01
-3.6565867e-01
-3.7073522e-01
-3.6015346e-01
-3.3735115e-01
-3.2692664e-01
-3.3717458e-01
-3.6010420e-01
-3.7943376e-01
-3.5943331e-01
-2.7408951e-01
-1.2231971e-01
9.2852115e-02
3.2221975e-01
4.6218536e-01
4.8736400e-01
4.3274617e-01
2.9883999e-01
1.0419470e-01
-5.1111141e-02
-4.9985859e-02
7.2361594e-02
1.7707775e-01
1.9963846e-01
2.0214001e-01
2.4474417e-01
2.4001760e-01
9.7586824e-02
-1.3288379e-01
-3.1517723e-01
-3.5873728e-01
-2.4482406e-01
-4.1873303e-02
7.4847971e-02
1.3559572e-02
-1.3508183e-01
-2.3736178e-01
-2.4533816e-01
-1.4509030e-01
8.1603596e-02
3.6067012e-01
5.3509254e-01
5.1442458e-01
3.0961585e-01
8.6163004e-03
-2.5435116e-01
-4.1960101e-01
-4.9059261e-01
-4.6176631e-01
-3.3360610e-01
-1.1433092e-01
1.2627364e-01
2.7224286e-01
2.7814766e-01
1.8991513e-01
1.0275926e-01
7.4060833e-02
8.3688857e-02
5.3027150e-02
-4.6792852e-02
-1.2484179e-01
-1.4628451e-01
-1.2934479e-01
-1.1375533e-01
-1.6727929e-01
-2.2222532e-01
-2.0576398e-01
-1.2395675e-01
5.3629598e-02
2.7567767e-01
4.4356978e-01
5.4833148e-01
5.4766476e-01
3.8285383e-01
1.3109044e-01
-6.5320850e-02
-1.7724844e-01
-2.4460164e-01
-2.9025204e-01
-3.3476233e-01
-3.5144787e-01
-3.1297427e-01
-2.1338874e-01
-1.0523505e-01
-5.0331755e-02
1.1143722e-03
9.5255023e-02
2.4635376e-01
3.8881593e-01
4.0159287e-01
3.0156073e-01
1.6603683e-01
2.1397132e-02
-1.2588196e-01
-2.5176157e-01
-3.2777241e-01
-3.4803372e-01
-3.0827237e-01
-2.1325799e-01
-9.9318800e-02
-1.2325425e-03
8.9338834e-02
2.0697783e-01
2.9050069e-01
2.5502254e-01
1.8515713e-01
1.7976064e-01
1.8962195e-01
1.5544627e-01
6.6535433e-02
-8.6323812e-02
-2.4287878e-01
-3.4323435e-01
-3.8379381e-01
-3.5483695e-01
-2.5611073e-01
-9.5113801e-02
1.2481551e-01
3.6254943e-01
5.0423656e-01
4.6650054e-01
3.0379154e-01
1.2476523e-01
-1.5048693e-02
-1.1013410e-01
-1.7095497e-01
-2.0745302e-01
-2.4107937e-01
-2.8210258e-01
-3.0741261e-01
-3.0324785e-01
-2.6532349e-01
-1.7939025e-01
-7.5152338e-02
2.6785619e-02
1.8282946e-01
4.0555478e-01
5.8947547e-01
6.0611222e-01
4.4611513e-01
2.1783685e-01
2.1062967e-02
-1.1497418e-01
-1.9147304e-01
-2.2578560e-01
-2.5504960e-01
-2.8515314e-01
-3.0159765e-01
-3.0974207e-01
-3.1463769e-01
-3.1073513e-01
-2.8554036e-01
-2.1038480e-01
-6.2502848e-02
1.4733760e-01
3.7183616e-01
5.7059378e-01
6.9943966e-01
6.7382576e-01
4.7325136e-01
2.0643634e-01
-1.7055283e-02
-1.8309676e-01
-2.9732480e-01
-3.4227242e-01
-3.3560156e-01
-3.1749626e-01
-2.9485175e-01
-2.5772323e-01
-2.0457237e-01
-1.3637991e-01
-4.5190126e-02
8.5231313e-02
2.5065631e-01
3.9616457e-01
4.1537603e-01
2.8412847e-01
1.1202559e-01
-2.9259912e-02
-1.3845635e-01
-2.2051549e-01
-2.7731421e-01
-3.0272793e-01
-2.8623287e-01
-2.3559823e-01
-1.6836866e-01
-7.7981707e-02
5.7585870e-02
1.8985811e-01
2.5399142e-01
3.1986944e-01
4.1943746e-01
4.3855544e-01
3.1956133e-01
1.4733111e-01
1.1513272e-02
-8.8552214e-02
-1.6741256e-01
-2.0678733e-01
-2.2376032e-01
-2.5073435e-01
-2.7424026e-01
-2.7989380e-01
-2.7475912e-01
-2.6278661e-01
-2.2678682e-01
-1.4849586e-01
-1.3786046e-02
1.9749895e-01
4.2051189e-01
5.1980617e-01
4.7789321e-01
3.9863383e-01
2.8435221e-01
8.8458493e-02
-9.6927708e-02
-2.0027521e-01
-2.4231235e-01
-2.4599783e-01
-2.2979283e-01
-1.9480743e-01
-1.3043381e-01
-3.9991484e-02
6.5954908e-02
1.7554884e-01
2.3384044e-01
2.0418551e-01
1.3492845e-01
6.4187788e-02
-2.1216888e-02
-1.1532867e-01
-1.9287838e-01
-2.5552929e-01
-3.0962866e-01
-3.5554420e-01
-3.9052172e-01
-3.8607950e-01
-3.1379811e-01
-1.6019461e-01
9.5109881e-02
4.1537433e-01
6.6944092e-01
7.7673461e-01
7.4706856e-01
5.9536688e-01
3.4874263e-01
8.1214801e-02
-1.0953932e-01
-1.9310534e-01
-2.3722696e-01
-3.0801397e-01
-3.7897966e-01
-4.0260088e-01
-3.7955872e-01
-3.1787819e-01
-2.0864306e-01
-1.0037738e-01
-8.4515222e-02
-1.3266531e-01
-1.4565925e-01
-8.7165262e-02
4.3650406e-02
2.3036119e-01
3.8439402e-01
4.6044842e-01
4.8231051e-01
3.7691948e-01
1.2678776e-01
-1.4186035e-01
-3.2423660e-01
-3.9035371e-01
-3.5760662e-01
-2.3067458e-01
8.7145739e-03
2.9852230e-01
5.0486133e-01
5.3223106e-01
3.8318988e-01
1.5989929e-01
-4.5358742e-02
-2.0299518e-01
-3.1042997e-01
-3.7144714e-01
-3.8842926e-01
-3.6840940e-01
-3.1392277e-01
-2.2450529e-01
-1.4388918e-01
-8.7788178e-02
1.9744704e-02
2.1800881e-01
4.3008820e-01
5.3115372e-01
4.8383861e-01
3.6482219e-01
2.2376084e-01
6.4651201e-02
-8.3389555e-02
-2.1294647e-01
-3.2412476e-01
-4.1034294e-01
-4.6073280e-01
-4.3943969e-01
-3.3367887e-01
-1.7161820e-01
1.6322557e-02
2.1597313e-01
3.7088449e-01
4.0017103e-01
3.5491827e-01
3.3340439e-01
3.0582881e-01
2.5661271e-01
1.6957620e-01
1.0582318e-02
-1.3931923e-01
-2.2166128e-01
-2.3934582e-01
-1.9328800e-01
-1.0243570e-01
-2.0810912e-03
5.6299369e-02
5.7047927e-02
3.5244602e-02
1.5673271e-02
4.5275291e-03
-1.2113347e-02
-5.5032698e-02
-1.1291559e-01
-1.7168274e-01
-2.2531481e-01
-2.7383155e-01
-3.1574704e-01
-3.3204237e-01
-3.1049067e-01
-2.3789180e-01
-8.8757140e-02
1.4241094e-01
3.7332398e-01
5.1516479e-01
5.7456471e-01
5.2082257e-01
2.7916871e-01
-8.5699648e-02
-3.9404939e-01
-5.4712779e-01
-5.4080945e-01
-3.8437426e-01
-1.4146935e-01
7.3377378e-02
1.9688255e-01
2.2494666e-01
1.6951152e-01
9.2605961e-02
9.5582599e-02
2.0401900e-01
3.5214562e-01
4.8161037e-01
5.5767814e-01
5.5035650e-01
4.5492399e-01
2.9260145e-01
7.9312248e-02
-1.3694818e-01
-2.9347515e-01
-3.9424770e-01
-4.4602591e-01
-4.3456098e-01
-3.7341348e-01
-2.9349793e-01
-2.0773287e-01
-1.1187195e-01
-1.6994846e-02
6.6324447e-02
1.1345348e-01
1.0015776e-01
7.0533409e-02
5.4988559e-02
2.4747736e-02
-2.4074155e-02
-6.7474104e-02
-9.5756913e-02
-1.1200055e-01
-1.1534225e-01
-9.8479199e-02
-5.3398017e-02
3.0398127e-02
1.5817186e-01
2.4132931e-01
1.9474934e-01
9.7227521e-02
1.7002364e-02
-5.1481350e-02
-9.2929617e-02
-9.6908974e-02
-7.0144975e-02
-2.0174548e-02
3.3461773e-02
6.3079658e-02
6.5877524e-02
4.7208672e-02
1.5029450e-02
-1.2187948e-02
-3.1293337e-02
-6.1923419e-02
-1.2306801e-01
-2.0549639e-01
-2.8779825e-01
-3.5563320e-01
-3.8787416e-01
-3.6256031e-01
-2.6194711e-01
-5.9657057e-02
1.8888465e-01
3.3323127e-01
3.2805334e-01
2.6211558e-01
2.5129867e-01
3.2482405e-01
3.7694864e-01
3.4256481e-01
2.7550359e-01
2.1834934e-01
1.0899485e-01
-7.1101314e-02
-2.0086776e-01
-2.0195356e-01
-9.4299822e-02
4.1136342e-02
9.6306558e-02
3.9363987e-02
-7.3392933e-02
-1.5534898e-01
-1.5007139e-01
-6.7833647e-02
2.7767442e-02
7.9142071e-02
4.4253367e-02
-6.9771240e-02
-1.6958776e-01
-2.0367392e-01
-1.8409240e-01
-1.4349647e-01
-1.4884743e-01
-2.0063876e-01
-2.1410013e-01
-1.3586910e-01
4.5121359e-02
2.7467505e-01
4.3346697e-01
4.7249397e-01
4.3616943e-01
3.6104310e-01
2.5559757e-01
1.0693822e-01
-8.7081400e-02
-2.5345889e-01
-3.3912118e-01
-3.5894681e-01
-3.3704692e-01
-2.7819460e-01
-1.6954079e-01
-7.2642619e-03
1.3728993e-01
1.7874080e-01
1.5759100e-01
1.3994760e-01
1.4765014e-01
1.9048290e-01
1.9997494e-01
1.0157787e-01
-4.4734745e-02
-1.6732858e-01
-2.5468240e-01
-3.0720906e-01
-3.3176898e-01
-3.2073703e-01
-2.8734893e-01
-2.5064398e-01
-1.9993340e-01
-1.0421128e-01
7.0946389e-02
3.1970258e-01
5.6845724e-01
7.1504680e-01
7.0588587e-01
5.2707854e-01
2.3684630e-01
-2.5226371e-02
-1.8616269e-01
-2.5859474e-01
-2.8949817e-01
-3.1747124e-01
-3.2968352e-01
-3.1411293e-01
-2.6843922e-01
-1.8713461e-01
-7.2701213e-02
7.3579736e-02
2.3010387e-01
3.3704257e-01
3.2768289e-01
1.9501818e-01
1.8565970e-02
-1.2672195e-01
-2.3321162e-01
-3.0772066e-01
-3.4150110e-01
-3.2266839e-01
-2.4938696e-01
-1.5214845e-01
-4.6551554e-02
1.1723874e-01
3.0195654e-01
4.2549184e-01
4.9813475e-01
4.5889084e-01
2.8712863e-01
1.2547572e-01
5.9254854e-02
4.2721128e-02
-2.1692091e-02
-1.5127549e-01
-2.6507191e-01
-3.3823647e-01
-4.0798344e-01
-4.6669674e-01
-4.7125293e-01
-4.0237248e-01
-2.7391108e-01
-1.0139049e-01
9.3428920e-02
2.2905664e-01
2.6959596e-01
2.7652331e-01
2.6507128e-01
2.1028762e-01
9.8325791e-02
-2.3821852e-03
-4.3869854e-04
4.8199384e-02
8.4881586e-02
1.2026730e-01
1.4918695e-01
1.6647321e-01
1.7008607e-01
1.5874157e-01
1.2786847e-01
6.5044557e-02
4.1047608e-03
2.9029769e-02
1.2769052e-01
1.8704987e-01
1.6034711e-01
6.6337815e-02
-7.6595709e-02
-2.3969484e-01
-3.8647607e-01
-4.6466017e-01
-4.2066167e-01
-2.4774746e-01
-3.5647529e-02
8.3334528e-02
1.3434960e-01
1.9509445e-01
2.3394332e-01
2.5817074e-01
2.6615413e-01
1.7805734e-01
-1.5576647e-02
-2.1208840e-01
-3.2830825e-01
-3.5295522e-01
-2.8982401e-01
-1.2795402e-01
8.5380433e-02
2.4700358e-01
3.4778118e-01
4.1003762e-01
3.8316641e-01
2.4212968e-01
6.1501431e-02
-1.0499852e-01
-2.7053264e-01
-4.0104690e-01
-4.3942934e-01
-3.6348493e-01
-2.1751985e-01
-1.5628315e-01
-2.3616562e-01
-2.8984777e-01
-2.0765995e-01
-3.8739609e-02
1.5866907e-01
3.5518205e-01
5.1920308e-01
5.9694337e-01
5.2564225e-01
3.0978770e-01
5.8929380e-02
-1.0831024e-01
-1.5612421e-01
-1.0137817e-01
4.5367785e-02
2.4987708e-01
3.8894900e-01
3.2076086e-01
6.9983614e-02
-1.9521762e-01
-3.6888561e-01
-4.4024185e-01
-4.2927000e-01
-3.6125613e-01
-2.5263319e-01
-1.3655458e-01
-3.8605559e-02
3.2958611e-02
4.8322752e-02
-2.9425806e-03
-9.6695791e-02
-2.0117809e-01
-2.8034488e-01
-3.1033247e-01
-2.8759801e-01
-2.1317275e-01
-7.4358295e-02
1.5113084e-01
4.1819009e-01
6.1613399e-01
6.9010084e-01
6.4171581e-01
5.0115216e-01
3.2114410e-01
1.2598463e-01
-6.4826639e-02
-2.0316291e-01
-2.5175189e-01
-2.0750311e-01
-1.6332420e-01
-2.2097828e-01
-3.2703110e-01
-4.0239937e-01
-4.2326924e-01
-3.6831074e-01
-2.3074202e-01
-1.3721222e-02
2.5462210e-01
4.6706482e-01
5.1117219e-01
4.1393484e-01
2.9424084e-01
1.9958756e-01
1.0094274e-01
4.7935262e-03
-9.0414630e-02
-2.0738168e-01
-3.1314690e-01
-3.7134074e-01
-3.7356798e-01
-3.1743932e-01
-1.9564157e-01
2.3335153e-03
2.5443825e-01
4.5771510e-01
5.0152075e-01
4.0736819e-01
2.9186468e-01
1.8647442e-01
4.8458243e-02
-8.6496390e-02
-1.7460059e-01
-2.2903615e-01
-2.5828811e-01
-2.6413783e-01
-2.5592903e-01
-2.3859971e-01
-2.1696610e-01
-2.0018562e-01
-1.8258568e-01
-1.5443638e-01
-1.0883180e-01
-1.3422485e-02
1.4094379e-01
3.0792680e-01
4.5372004e-01
5.4487174e-01
5.0235479e-01
3.1856335e-01
1.0368332e-01
-5.9205909e-02
-1.6031012e-01
-2.1713397e-01
-2.3995984e-01
-2.2683698e-01
-2.0437501e-01
-2.0414920e-01
-2.0460460e-01
-1.8144958e-01
-1.3149410e-01
-6.7157170e-02
2.8773007e-03
1.0749876e-01
2.6230391e-01
3.8663741e-01
3.6524915e-01
2.3150993e-01
9.4215726e-02
-4.5998818e-03
-7.9395320e-02
-1.4807622e-01
-1.9083050e-01
-1.9625936e-01
-1.7894827e-01
-1.5064256e-01
-1.1556509e-01
-7.1905530e-02
-2.6783814e-03
6.8940006e-02
1.0007982e-01
1.0744335e-01
1.1050082e-01
1.1918858e-01
1.3700158e-01
1.3238981e-01
7.6471410e-02
-2.1307282e-02
-1.2031409e-01
-1.8748710e-01
-2.2317976e-01
-2.4097785e-01
-2.5022849e-01
-2.5731553e-01
-2.5657846e-01
-2.2283692e-01
-1.3153831e-01
2.4150974e-02
2.3489890e-01
4.6535098e-01
6.3803391e-01
6.6007550e-01
4.9193719e-01
2.1522355e-01
-2.3226325e-02
-1.6536783e-01
-2.3492887e-01
-2.6031033e-01
-2.6049301e-01
-2.3267996e-01
-1.6381636e-01
-7.2098956e-02
1.1592110e-02
8.6975866e-02
1.5130636e-01
1.5909776e-01
9.1802688e-02
-8.2499058e-04
-8.4037510e-02
-1.5082440e-01
-1.9994887e-01
-2.3063429e-01
-2.2994214e-01
-1.9543656e-01
-1.3123558e-01
-8.3851442e-02
-9.3268114e-02
-1.0088068e-01
-5.6126333e-02
5.5564898e-02
2.3251963e-01
3.9679573e-01
4.4933771e-01
3.8580884e-01
2.9426591e-01
2.5278601e-01
2.3905449e-01
1.4395290e-01
-7.2438174e-02
-3.1323424e-01
-4.8766445e-01
-5.7870120e-01
-5.8368782e-01
-4.9723974e-01
-3.1846449e-01
-6.9003549e-02
1.7332220e-01
3.3543423e-01
3.8983629e-01
3.1823167e-01
2.1402669e-01
1.6096021e-01
1.3956673e-01
1.7400524e-01
2.4720493e-01
3.1682581e-01
3.3864071e-01
2.4444841e-01
7.7324670e-02
-6.9056858e-02
-1.8794504e-01
-2.8718555e-01
-3.4672503e-01
-3.5666474e-01
-3.0047221e-01
-1.6662259e-01
3.1263280e-02
2.3307611e-01
3.1815994e-01
2.4660984e-01
1.2547163e-01
1.4655679e-02
-9.8607005e-02
-1.9576414e-01
-2.6404801e-01
-3.0274954e-01
-3.0544163e-01
-2.6986627e-01
-1.9920493e-01
-1.0021856e-01
1.3605484e-02
1.0559789e-01
1.4381678e-01
1.4835052e-01
1.8164634e-01
2.6765030e-01
3.5052088e-01
3.3623216e-01
2.1097124e-01
7.3694977e-02
-2.8041996e-02
-1.0680376e-01
-1.5667145e-01
-1.9066890e-01
-2.3001122e-01
-2.5790277e-01
-2.4860676e-01
-2.0015079e-01
-1.0359022e-01
5.3154735e-02
1.9596336e-01
2.5379500e-01
3.0293427e-01
3.3158617e-01
2.3755370e-01
8.7708006e-02
-2.1348754e-02
-9.1919092e-02
-1.3199888e-01
-1.4000340e-01
-1.3278560e-01
-1.2120908e-01
-1.1418488e-01
-1.1937009e-01
-1.2335337e-01
-1.2835783e-01
-1.4924776e-01
-1.6849377e-01
-1.5323858e-01
-9.5050153e-02
4.1078337e-04
1.2174602e-01
2.1329552e-01
2.4237958e-01
2.6763671e-01
2.7174996e-01
1.9491569e-01
6.8465734e-02
-7.0411412e-02
-1.8286048e-01
-2.4518033e-01
-2.3748582e-01
-1.6553630e-01
-7.6604440e-02
-1.2200382e-03
5.5961289e-02
1.3531415e-01
2.4793158e-01
3.5123293e-01
3.8204183e-01
2.8745465e-01
1.1966598e-01
-2.3662549e-02
-1.1462862e-01
-1.5930583e-01
-1.7704254e-01
-1.7868689e-01
-1.6227139e-01
-1.5655044e-01
-1.6928759e-01
-1.6217873e-01
-1.2872366e-01
-1.0769657e-01
-1.1867488e-01
-1.3234350e-01
-1.0483351e-01
-1.8434872e-02
1.2038706e-01
2.8032410e-01
3.8577596e-01
3.7576772e-01
2.8069708e-01
1.7824703e-01
1.1776831e-01
6.8223769e-02
-2.1577129e-02
-1.1815140e-01
-1.7725876e-01
-1.9757618e-01
-1.9228118e-01
-1.8025526e-01
-1.6908432e-01
-1.5412479e-01
-1.2712824e-01
-8.1555300e-02
-1.5468841e-03
1.1488372e-01
2.2060698e-01
2.4274581e-01
1.7238030e-01
7.6248492e-02
-7.9848178e-03
-7.8177703e-02
-1.3412923e-01
-1.8770528e-01
-2.4241112e-01
-2.8216471e-01
-2.9402009e-01
-2.8096235e-01
-2.4338024e-01
-1.7079231e-01
-4.7155472e-02
1.4594647e-01
3.8745677e-01
5.8132856e-01
6.2011316e-01
4.9931615e-01
3.3328623e-01
2.2050722e-01
1.8029801e-01
1.3688936e-01
2.9046010e-03
-1.5195108e-01
-2.4777200e-01
-3.0352057e-01
-3.3418186e-01
-3.6431183e-01
-4.2536296e-01
-4.8822385e-01
-5.1133471e-01
-4.8085793e-01
-3.7358305e-01
-1.8372974e-01
3.6523200e-02
2.2167013e-01
3.5156100e-01
4.2631262e-01
4.4241464e-01
4.1330445e-01
3.7316374e-01
3.4950898e-01
3.3888338e-01
3.2080619e-01
2.6922528e-01
1.5477490e-01
4.5896926e-02
1.9719423e-02
-8.6418375e-04
-6.0304853e-02
-1.3508682e-01
-2.2745857e-01
-3.5117324e-01
-5.0463963e-01
-6.1806958e-01
-6.4575565e-01
-5.7362215e-01
-3.7168886e-01
-9.5494924e-02
1.3537345e-01
2.7723827e-01
3.5617218e-01
3.8706365e-01
3.8547537e-01
3.8673203e-01
4.0765048e-01
4.3418737e-01
4.3291449e-01
3.8759801e-01
2.9244992e-01
1.2599544e-01
-2.6281522e-02
-7.8729909e-02
-8.3031743e-02
-7.5503469e-02
-1.0377045e-01
-2.0046415e-01
-2.8662089e-01
-2.8815634e-01
-1.9994169e-01
-6.4591791e-02
2.5522986e-02
1.7072980e-02
-3.1018348e-02
-6.3178194e-02
-7.7727645e-02
-8.9698726e-02
-1.1556009e-01
-1.4453038e-01
-1.6029897e-01
-1.6256069e-01
-1.5410771e-01
-1.2714728e-01
-6.6726117e-02
3.1020000e-02
1.6740296e-01
2.7070767e-01
2.6687321e-01
2.2115914e-01
1.8142843e-01
1.2260770e-01
3.3676045e-02
-6.5701166e-02
-1.3572097e-01
-1.6488053e-01
-1.7021502e-01
-1.6461771e-01
-1.4666695e-01
-1.1980285e-01
-9.6129644e-02
-8.2188075e-02
-7.7548894e-02
-6.4172491e-02
-2.0879079e-02
5.2163987e-02
1.4767138e-01
2.4216265e-01
3.0213095e-01
2.8889964e-01
2.0579597e-01
1.3656830e-01
5.9901151e-02
-8.7875328e-02
-2.2479106e-01
-2.8671205e-01
-2.8540182e-01
-2.2245925e-01
-9.6297065e-02
6.8563993e-02
2.0612210e-01
2.7391112e-01
3.0117360e-01
2.8807050e-01
1.8993879e-01
3.1632500e-02
-1.0617424e-01
-1.9191524e-01
-2.3104279e-01
-2.3909492e-01
-2.5592816e-01
-2.7954419e-01
-2.7453918e-01
-2.2707020e-01
-1.3910046e-01
-4.5687768e-03
1.9558112e-01
4.0554149e-01
5.1127661e-01
4.5153653e-01
2.7543867e-01
1.2128440e-01
6.2888592e-02
3.0121267e-02
-5.0846231e-02
-1.3672103e-01
-1.7483959e-01
-1.7732238e-01
-1.6558632e-01
-1.4682946e-01
-1.2018795e-01
-7.6615199e-02
-1.7105799e-02
3.1519037e-02
5.8807813e-02
7.2808892e-02
7.0500378e-02
5.5848881e-02
3.4182749e-02
1.4024478e-02
-1.0904848e-03
-2.6095823e-02
-5.5640667e-02
-8.3351190e-02
-1.0884180e-01
-1.1633374e-01
-9.5548930e-02
-4.7315340e-02
2.1419855e-02
8.1516147e-02
1.0791900e-01
1.1188638e-01
1.0748851e-01
8.4852809e-02
3.1824544e-02
-2.9378065e-02
-6.8246244e-02
-9.4926025e-02
-1.2869576e-01
-1.5148255e-01
-1.4257434e-01
-1.1602622e-01
-7.9015885e-02
-1.6341008e-02
7.9509572e-02
1.8139274e-01
2.5055687e-01
2.6284262e-01
2.1354604e-01
1.5552301e-01
9.7020203e-02
8.1687452e-03
-6.7584596e-02
-1.0826532e-01
-1.4698904e-01
-1.9080855e-01
-2.2237306e-01
-2.3750887e-01
-2.2918877e-01
-1.8012522e-01
-8.8672512e-02
3.4535762e-02
1.8716636e-01
3.2965267e-01
3.4639808e-01
2.0951080e-01
5.1008229e-02
-4.2955062e-02
-8.3173578e-02
-8.9975543e-02
-7.0746512e-02
-1.4811215e-02
1.7263649e-02
-4.2757128e-02
-1.2211759e-01
-1.4486767e-01
-1.1319046e-01
-3.4858251e-02
8.3375910e-02
2.1286154e-01
2.9385887e-01
2.8566612e-01
2.0160229e-01
7.6673268e-02
-3.8176420e-02
-1.1451915e-01
-1.5687315e-01
-1.6638199e-01
-1.5312696e-01
-1.3186747e-01
-1.0802842e-01
-8.8017858e-02
-7.4788919e-02
-4.9937143e-02
-8.7931286e-03
4.3703155e-02
1.0079682e-01
1.5768656e-01
1.9166115e-01
1.5488726e-01
7.6665122e-02
6.7465605e-03
-4.7209910e-02
-7.3948160e-02
-8.1495609e-02
-8.5112227e-02
-8.3759573e-02
-7.4096800e-02
-5.1440290e-02
-2.8374527e-02
-2.6615236e-02
-3.1973677e-02
-1.3308414e-02
2.1158407e-02
3.1845623e-02
2.8133628e-03
-4.9285864e-02
-1.0363443e-01
-1.4180933e-01
-1.4457837e-01
-1.0335585e-01
-3.8475355e-03
8.8706784e-02
9.1014914e-02
7.6404669e-02
1.1717138e-01
1.6604094e-01
1.9123298e-01
2.4818375e-01
3.0609316e-01
2.5142156e-01
9.9832876e-02
-5.2731866e-02
-1.5043813e-01
-1.8367524e-01
-1.8829833e-01
-2.1165826e-01
-2.4612417e-01
-2.5260112e-01
-2.1451746e-01
-1.3712151e-01
-2.3365808e-02
1.0842679e-01
2.3673280e-01
3.5726674e-01
4.0166117e-01
3.0464943e-01
1.3640142e-01
-7.2845956e-03
-1.0827652e-01
-1.7224826e-01
-2.1252214e-01
-2.3740187e-01
-2.4382687e-01
-2.3463221e-01
-1.9817737e-01
-1.2997595e-01
-3.8287416e-02
8.6073211e-02
2.4902336e-01
3.9567867e-01
3.9978986e-01
2.3787557e-01
4.8691025e-02
-8.7745711e-02
-1.8130108e-01
-2.3971715e-01
-2.7306843e-01
-2.8077191e-01
-2.4459988e-01
-1.5539613e-01
-1.2649076e-02
1.1184530e-01
1.3428902e-01
1.3491568e-01
1.9473276e-01
2.8548374e-01
3.1857422e-01
2.4028771e-01
1.4627174e-01
9.4394919e-02
2.3018205e-02
-8.9606817e-02
-1.9174965e-01
-2.5086122e-01
-2.7106726e-01
-2.5840839e-01
-2.2383771e-01
-1.7404271e-01
-1.0250044e-01
1.0760578e-02
1.7824823e-01
3.4175836e-01
4.0423415e-01
3.3273655e-01
1.7768274e-01
1.8441435e-02
-1.0183181e-01
-1.6781804e-01
-1.8417402e-01
-1.7278836e-01
-1.4730621e-01
-1.2099297e-01
-9.7491237e-02
-6.6738695e-02
-2.6684572e-02
2.5638071e-02
8.8086581e-02
1.4283911e-01
1.7463138e-01
1.6383087e-01
1.1303414e-01
5.6945848e-02
5.1555193e-03
-4.5072078e-02
-9.0586169e-02
-1.2994565e-01
-1.5535507e-01
-1.6574478e-01
-1.6396272e-01
-1.4774449e-01
-1.1326317e-01
-5.6575756e-02
2.8585915e-02
1.4516094e-01
2.6894182e-01
3.1402440e-01
2.3403136e-01
1.1158719e-01
1.6833660e-02
-5.1321608e-02
-1.0227817e-01
-1.3761936e-01
-1.5360022e-01
-1.5050089e-01
-1.2513407e-01
-7.9213774e-02
-2.2033619e-02
3.2160102e-02
6.1643704e-02
6.8496797e-02
5.7289046e-02
1.3636011e-02
-3.3653395e-02
-3.0695408e-02
2.5197702e-02
1.1567524e-01
1.6250430e-01
8.8973782e-02
-3.1658322e-02
-1.1871971e-01
-1.6354098e-01
-1.6445540e-01
-1.1877183e-01
-3.0906722e-02
8.3822668e-02
2.0506713e-01
2.8194045e-01
2.5198921e-01
1.4225877e-01
3.2095035e-02
-5.5855087e-02
-1.2269418e-01
-1.6506198e-01
-1.8932188e-01
-2.0403116e-01
-2.0468377e-01
-1.8443657e-01
-1.4722872e-01
-9.5138369e-02
-2.3554355e-02
7.9337717e-02
2.3627019e-01
3.8897959e-01
4.0060927e-01
2.8126441e-01
1.5345824e-01
4.4182913e-02
-6.6958937e-02
-1.5676194e-01
-2.0744047e-01
-2.3278576e-01
-2.4844109e-01
-2.5233719e-01
-2.2577430e-01
-1.6166044e-01
-8.7705672e-02
-2.5458361e-02
3.3269945e-02
9.0573444e-02
1.3624844e-01
1.4560383e-01
1.0963986e-01
6.1925366e-02
5.8947686e-02
1.1334061e-01
1.5876176e-01
1.0724616e-01
-4.5640555e-02
-1.8909343e-01
-2.2604245e-01
-1.3024773e-01
9.8485241e-02
3.7683205e-01
5.4282983e-01
5.0187315e-01
3.0011540e-01
7.8651887e-02
-8.1689738e-02
-1.9313254e-01
-2.6696695e-01
-3.0900585e-01
-3.2961327e-01
-3.4000365e-01
-3.4163616e-01
-3.3190908e-01
-3.0751518e-01
-2.4946433e-01
-1.3578654e-01
4.6813000e-02
2.9460181e-01
5.2917616e-01
6.1229894e-01
4.7554978e-01
2.0075649e-01
-5.9532147e-02
-2.4306634e-01
-3.5862573e-01
-3.9768857e-01
-3.4485502e-01
-1.9376635e-01
3.3980969e-02
2.5129990e-01
3.4805716e-01
2.9209297e-01
1.2847598e-01
-4.5945257e-02
-1.2998771e-01
-9.5056891e-02
4.0592530e-02
2.0504382e-01
3.0983425e-01
3.3487375e-01
2.4606191e-01
5.3749433e-02
-1.2583653e-01
-2.2555137e-01
-2.4699261e-01
-2.0533435e-01
-1.5756648e-01
-1.4441839e-01
-1.3176921e-01
-9.3786748e-02
-2.9805590e-02
5.6612812e-02
1.3520349e-01
1.5590182e-01
1.1836657e-01
8.3033073e-02
4.9102231e-02
-1.2994159e-02
-8.1407187e-02
-1.3306511e-01
-1.6828159e-01
-1.9153330e-01
-1.9237403e-01
-1.5680087e-01
-7.7049788e-02
4.3897354e-02
1.6982930e-01
2.3971117e-01
2.5168458e-01
2.0903849e-01
8.9705434e-02
-3.5996925e-02
-1.0432557e-01
-1.1767278e-01
-7.0079711e-02
1.0340697e-02
2.8620792e-02
-5.7594094e-02
-1.6656507e-01
-2.2247589e-01
-2.1752462e-01
-1.5247206e-01
-3.1833200e-02
9.5902800e-02
1.7661672e-01
2.1787621e-01
2.4227687e-01
2.2729858e-01
1.4150317e-01
1.1472053e-02
-9.4531936e-02
-1.3060193e-01
-1.0265327e-01
-4.6130800e-02
-3.0338326e-02
-9.1098526e-02
-1.3088353e-01
-7.2137979e-02
3.8302944e-02
1.6340372e-01
2.8864859e-01
3.2967554e-01
2.3934799e-01
6.5141735e-02
-1.1155358e-01
-2.2404356e-01
-2.6172994e-01
-2.2308411e-01
-1.7408440e-01
-1.8801070e-01
-1.9668475e-01
-1.3489813e-01
-7.6696706e-03
1.5406213e-01
2.8166080e-01
3.6555623e-01
4.3834443e-01
4.4227144e-01
3.3959021e-01
1.9352885e-01
5.0589998e-02
-7.0594699e-02
-1.6285445e-01
-2.3109646e-01
-2.7584433e-01
-2.9921245e-01
-3.1003218e-01
-3.2660574e-01
-3.4973667e-01
-3.6600163e-01
-3.7380276e-01
-3.6353667e-01
-3.2683224e-01
-2.5220379e-01
-1.0848973e-01
1.0289786e-01
3.0928258e-01
4.2089369e-01
4.2891211e-01
3.8224494e-01
3.0388509e-01
1.9304938e-01
7.1065991e-02
-5.1227948e-02
-1.1415500e-01
-3.2566387e-02
1.2497898e-01
2.6089995e-01
3.5377776e-01
4.0288139e-01
4.1208286e-01
3.6861062e-01
2.5512089e-01
6.9311098e-02
-1.6487627e-01
-4.2732330e-01
-6.7863151e-01
-8.1306063e-01
-7.5093948e-01
-5.1275211e-01
-2.1252343e-01
2.2901474e-02
1.7172897e-01
2.6521907e-01
3.1259984e-01
3.3177743e-01
3.2572378e-01
2.6977895e-01
1.5149587e-01
5.7183092e-02
8.6842239e-02
1.6578237e-01
1.9323081e-01
1.5968957e-01
6.1272894e-02
-1.0109689e-01
-2.6846820e-01
-3.4949532e-01
-3.0646068e-01
-1.3964708e-01
1.0111205e-01
3.1490700e-01
4.5739995e-01
5.2861413e-01
5.0952891e-01
3.8363806e-01
1.8149413e-01
-5.0407306e-02
-2.7009414e-01
-4.2302752e-01
-4.9296761e-01
-5.0645709e-01
-4.8277887e-01
-4.2038805e-01
-3.2143120e-01
-2.0901762e-01
-1.0236412e-01
-4.2432270e-03
8.4455650e-02
1.5001258e-01
1.7128553e-01
1.6239467e-01
1.6312115e-01
1.8328099e-01
2.0716527e-01
2.0584392e-01
1.5909572e-01
7.8743716e-02
-1.4130629e-02
-9.5772433e-02
-1.6218972e-01
-2.1760914e-01
-2.4742329e-01
-2.4236351e-01
-1.9795407e-01
-1.0934927e-01
2.5041655e-02
1.9865757e-01
3.5312085e-01
3.6758467e-01
2.2813424e-01
6.8405458e-02
-3.0324370e-02
-6.5830105e-02
-4.4491856e-02
-1.0588774e-02
-3.3736906e-02
-1.0766986e-01
-1.7398676e-01
-2.0896941e-01
-1.9721400e-01
-1.2854178e-01
-9.8448283e-03
1.4364037e-01
2.6993590e-01
2.8147890e-01
1.8713857e-01
6.5572652e-02
-5.0557462e-02
-1.4524339e-01
-1.9342835e-01
-1.8836672e-01
-1.3210948e-01
-2.1925753e-02
6.6797231e-02
4.4214256e-02
-2.3566214e-02
-5.0833575e-02
-2.6472515e-02
3.3230745e-02
1.1093937e-01
2.0038145e-01
2.3463741e-01
1.8608900e-01
1.2217100e-01
5.2834094e-02
-3.9265734e-02
-1.2084958e-01
-1.6596620e-01
-1.7649855e-01
-1.6091652e-01
-1.2462424e-01
-6.7626018e-02
9.3685272e-03
6.7163838e-02
7.7129881e-02
6.3217356e-02
2.0055441e-02
-4.9725262e-02
-1.0044651e-01
-1.0162602e-01
-4.9248148e-02
4.5058643e-02
1.2008691e-01
1.0392627e-01
1.8773717e-02
-6.3413725e-02
-9.9654419e-02
-8.2985716e-02
-1.7924714e-02
5.6915657e-02
9.2365226e-02
1.2115828e-01
1.3949871e-01
1.0195312e-01
3.5014503e-02
-3.3555557e-02
-6.9100502e-02
-6.9843723e-02
-7.2253681e-02
-6.4834348e-02
-2.7300944e-02
4.1188491e-02
1.3500567e-01
1.8004405e-01
1.1074070e-01
2.8506850e-03
-7.9580297e-02
-1.4902568e-01
-2.0777945e-01
-2.4753639e-01
-2.6064988e-01
-2.3440023e-01
-1.5494482e-01
-2.6425046e-02
1.2029184e-01
2.4275855e-01
2.8601110e-01
2.0614809e-01
6.4224000e-02
-4.3321598e-02
-9.5662141e-02
-8.8888440e-02
-1.2808614e-02
1.1468651e-01
2.2630886e-01
2.3407824e-01
1.5939628e-01
1.2526890e-01
1.1060672e-01
2.5618174e-02
-6.3730091e-02
-9.3541002e-02
-8.8080425e-02
-6.8454027e-02
-4.7636063e-02
-3.8304243e-02
-4.1557304e-02
-5.2543992e-02
-6.1643917e-02
-5.8726769e-02
-4.6856876e-02
-3.9615929e-02
-4.5127777e-02
-5.9163414e-02
-7.8573143e-02
-1.0111338e-01
-1.1429045e-01
-1.0951839e-01
-8.9848823e-02
-6.3172538e-02
-2.5568567e-02
4.7413572e-02
1.6736064e-01
2.6640475e-01
2.8627393e-01
2.4150502e-01
1.4230900e-01
4.6211593e-02
-1.2310593e-02
-5.1944821e-02
-8.1130399e-02
-1.1281936e-01
-1.2884389e-01
-1.2747188e-01
-1.3469712e-01
-1.5654503e-01
-1.8179604e-01
-1.7834735e-01
-1.2676615e-01
-3.8874065e-02
6.5781125e-02
1.6785383e-01
2.4680198e-01
2.6713588e-01
2.0987776e-01
1.2457015e-01
7.7498805e-02
8.4579240e-02
6.8493494e-02
-3.7954502e-02
-1.6155072e-01
-2.3492411e-01
-2.5535107e-01
-2.1820646e-01
-1.2727504e-01
-2.4297653e-02
5.7949080e-02
1.5700020e-01
2.8231956e-01
3.4956764e-01
2.8547914e-01
1.4563771e-01
1.9413886e-02
-7.3926367e-02
-1.3575745e-01
-1.7294253e-01
-1.9433831e-01
-2.0241987e-01
-1.8975804e-01
-1.4634637e-01
-8.5939468e-02
-1.9082346e-02
7.1589377e-02
1.1958418e-01
4.8093066e-02
-6.4702592e-02
-1.3843281e-01
-1.6893212e-01
-1.7014212e-01
-1.4545723e-01
-6.3772281e-02
9.6849485e-02
3.1929476e-01
5.1745234e-01
5.5752756e-01
4.2513263e-01
2.3420983e-01
4.3979433e-02
-1.3014422e-01
-2.4706422e-01
-2.9651854e-01
-3.1909757e-01
-3.3841275e-01
-3.2985292e-01
-2.8047692e-01
-1.9221966e-01
-6.1121307e-02
1.1512634e-01
2.8921965e-01
3.9144501e-01
4.3732997e-01
4.1233322e-01
2.6805677e-01
7.2249131e-02
-7.9735410e-02
-1.6546276e-01
-2.0341439e-01
-2.1407351e-01
-2.1414182e-01
-2.0844251e-01
-2.0117027e-01
-2.0089589e-01
-1.9030658e-01
-1.5989681e-01
-1.2927051e-01
-9.4638525e-02
-2.8789827e-02
8.4689655e-02
2.4445523e-01
3.7652839e-01
4.0220123e-01
3.4971389e-01
2.8061496e-01
1.8774096e-01
4.5279879e-02
-7.8178445e-02
-1.3853523e-01
-1.7170946e-01
-1.9284825e-01
-1.8790372e-01
-1.4024141e-01
-6.4909914e-02
5.0470279e-03
6.1876947e-02
1.1871901e-01
1.3313979e-01
6.0776834e-02
-3.6908098e-02
-1.1227226e-01
-1.7821123e-01
-2.1974531e-01
-2.3484904e-01
-2.3918697e-01
-2.1839656e-01
-1.5200952e-01
-2.1098608e-02
1.2848586e-01
2.0404757e-01
2.4003205e-01
3.5105165e-01
4.9091798e-01
4.8857751e-01
3.1877320e-01
9.9875817e-02
-8.0944181e-02
-1.9272453e-01
-2.5325859e-01
-3.0238338e-01
-3.2927785e-01
-3.0427508e-01
-2.2353061e-01
-1.3254237e-01
-9.1648484e-02
-6.9942966e-02
3.5751339e-03
1.4873808e-01
3.2392157e-01
4.3249884e-01
3.9298995e-01
2.4277573e-01
8.5113158e-02
-3.7302571e-02
-1.2342606e-01
-1.7330884e-01
-1.9014636e-01
-1.8831490e-01
-1.8297323e-01
-1.6300337e-01
-1.1382773e-01
-4.4272417e-02
6.4905223e-03
2.0719656e-02
3.4369295e-02
7.7861545e-02
1.6270726e-01
2.3110261e-01
1.8040157e-01
3.3045628e-02
-1.1577975e-01
-2.2477273e-01
-2.8652537e-01
-3.0099652e-01
-2.6621786e-01
-1.7978779e-01
-5.6630692e-02
6.0257698e-02
1.5327841e-01
2.7021686e-01
4.1134835e-01
4.7623013e-01
3.7853251e-01
1.5874519e-01
-3.9163642e-02
-1.4684074e-01
-1.9835262e-01
-2.3579900e-01
-2.6550342e-01
-2.5094576e-01
-1.6356644e-01
-4.6030175e-02
5.3708717e-03
-3.2861260e-04
4.0721905e-02
1.7200892e-01
3.0986195e-01
3.1381917e-01
1.9315886e-01
7.8526115e-02
2.8664129e-02
-1.1738779e-02
-1.1338755e-01
-2.5553974e-01
-3.7079986e-01
-4.1655151e-01
-4.1007308e-01
-3.7847383e-01
-2.7832645e-01
-1.0932319e-01
4.5167999e-02
1.3520105e-01
1.7064562e-01
1.7534000e-01
1.7939949e-01
2.2529498e-01
3.1123473e-01
4.0115090e-01
4.6898047e-01
4.8820447e-01
4.4879513e-01
3.7339270e-01
2.7734206e-01
1.3526669e-01
-7.2844773e-02
-3.0161568e-01
-4.6154736e-01
-5.0537266e-01
-4.5694912e-01
-3.6157237e-01
-2.4473863e-01
-1.2099329e-01
-3.2368173e-02
-1.2558784e-02
-2.4081367e-02
-1.2523219e-02
1.3968774e-02
1.7079267e-02
-7.8879268e-03
-4.1649235e-02
-6.2355244e-02
-4.2532560e-02
4.3606740e-02
1.7756684e-01
2.7297004e-01
2.7757237e-01
2.1545290e-01
1.1172003e-01
-1.0815432e-02
-1.2037045e-01
-1.8369739e-01
-1.7938161e-01
-1.0756456e-01
-9.9682342e-04
1.1721609e-01
2.1229382e-01
2.1103443e-01
1.2993637e-01
1.8694382e-02
-1.0220045e-01
-1.9588285e-01
-2.4656613e-01
-2.5946531e-01
-2.4766420e-01
-2.2829378e-01
-2.0691161e-01
-1.5936065e-01
-4.2044297e-02
1.5512699e-01
3.4379283e-01
4.1316005e-01
3.8590741e-01
3.4879599e-01
3.0205394e-01
1.8945924e-01
3.9571386e-02
-6.5730981e-02
-1.3009856e-01
-2.0783615e-01
-3.0668213e-01
-3.7762094e-01
-3.8968996e-01
-3.5415571e-01
-2.8684171e-01
-1.8373372e-01
-4.9746482e-02
7.8926299e-02
1.8252890e-01
2.7995768e-01
3.9048284e-01
4.5529191e-01
3.8867865e-01
2.1762363e-01
5.7120281e-02
-3.6766180e-02
-8.5191930e-02
-1.2076013e-01
-1.6432886e-01
-1.9078063e-01
-1.9598080e-01
-2.0938117e-01
-2.0039429e-01
-1.2260843e-01
3.6037029e-02
2.3921751e-01
3.6229448e-01
3.1209734e-01
1.6374509e-01
3.2863977e-02
-7.0541185e-02
-1.6588477e-01
-2.2561386e-01
-2.2245028e-01
-1.6315973e-01
-9.4123900e-02
-6.8493660e-02
-6.9950627e-02
-3.1238183e-02
8.7557496e-02
2.2550158e-01
2.5324615e-01
1.6711026e-01
7.7594820e-02
4.5321474e-02
6.5127733e-02
6.3558038e-02
-1.1588084e-02
-9.6466563e-02
-1.3662005e-01
-1.5709316e-01
-1.7857736e-01
-1.8021855e-01
-1.4097634e-01
-4.8975024e-02
6.6536313e-02
1.5319452e-01
2.0315244e-01
2.1525869e-01
2.0890277e-01
1.8427770e-01
1.0972353e-01
1.9034969e-02
-5.6134683e-02
-1.1949449e-01
-1.6029463e-01
-1.7233006e-01
-1.6053546e-01
-1.3719967e-01
-1.1110932e-01
-7.1829928e-02
-1.3780987e-02
5.7263519e-02
1.2992141e-01
1.7975697e-01
1.6665803e-01
8.8070655e-02
2.9053421e-03
-6.2354943e-02
-1.1535446e-01
-1.4990691e-01
-1.5919485e-01
-1.5266653e-01
-1.4879219e-01
-1.4476242e-01
-1.2640702e-01
-9.0518691e-02
-3.3360264e-02
5.5613317e-02
1.7044019e-01
2.4199512e-01
1.9657286e-01
6.6114763e-02
-6.2937510e-02
-1.2249437e-01
-7.8880831e-02
2.1433039e-02
1.1557794e-01
1.8798966e-01
2.2340131e-01
2.2361447e-01
1.6126173e-01
3.4329747e-02
-5.3179023e-02
-5.3620078e-02
8.9626123e-03
9.1931743e-02
1.1756094e-01
6.4459970e-02
-1.2978807e-02
-7.4519890e-02
-1.1812879e-01
-1.4816642e-01
-1.6067295e-01
-1.4693230e-01
-1.0366502e-01
-5.2475908e-02
-2.0137074e-02
-1.5390156e-03
2.0217586e-02
4.8723586e-02
7.0574444e-02
6.7570742e-02
3.9417589e-02
-1.4375959e-03
-4.2654382e-02
-7.1406086e-02
-7.9914305e-02
-7.4113322e-02
-5.9784537e-02
-3.8723206e-02
-1.9265200e-02
-5.3500802e-03
8.6670005e-03
2.7307331e-02
5.5181707e-02
8.3121653e-02
8.9345690e-02
7.9325737e-02
6.0176801e-02
2.2792626e-02
-1.7792769e-02
-4.2348962e-02
-5.4331906e-02
-5.6840168e-02
-4.8234800e-02
-4.1127483e-02
-5.0799927e-02
-6.8180378e-02
-7.1299937e-02
-5.0949702e-02
-6.7775338e-03
4.9587083e-02
9.8470218e-02
1.4301100e-01
1.7390788e-01
1.4915598e-01
7.5420821e-02
5.9840389e-03
-4.1550419e-02
-7.6372035e-02
-1.0370458e-01
-1.2512483e-01
-1.3738255e-01
-1.3538921e-01
-1.1794593e-01
-9.5964818e-02
-6.5319053e-02
-1.2681813e-02
6.2465575e-02
1.5594587e-01
2.0737301e-01
1.7517356e-01
1.1709699e-01
7.1903771e-02
4.7083370e-02
1.7516457e-02
-5.8960223e-02
-1.4618023e-01
-2.0017760e-01
-2.1255051e-01
-1.7734445e-01
-1.1041735e-01
-3.7919454e-02
3.9737433e-02
1.4196491e-01
2.5721456e-01
3.2034792e-01
2.7517629e-01
1.5326655e-01
4.3785529e-02
-1.3113959e-02
-4.9189920e-02
-9.8979318e-02
-1.5717887e-01
-1.9856018e-01
-2.0524819e-01
-1.7134204e-01
-1.0495602e-01
-1.9079479e-02
8.9227271e-02
1.7548883e-01
1.7647460e-01
1.3019728e-01
9.9060501e-02
7.6097848e-02
2.5681201e-02
-3.6812501e-02
-7.5321737e-02
-9.2476988e-02
-9.4869161e-02
-9.3547372e-02
-9.7318617e-02
-8.9989272e-02
-6.4037146e-02
-2.6476209e-02
1.4846217e-02
5.6058203e-02
9.0426551e-02
9.9412457e-02
9.4531582e-02
8.1749034e-02
3.6341028e-02
-1.9398299e-02
-4.2043207e-02
-3.6728027e-02
-5.4576459e-02
-1.1436478e-01
-1.6512646e-01
-1.7832668e-01
-1.6201755e-01
-1.1550948e-01
-2.7927174e-02
1.0886480e-01
2.3245488e-01
2.5528049e-01
1.9229940e-01
8.7304516e-02
-3.6835425e-02
-1.3069550e-01
-1.5773448e-01
-1.1879345e-01
-8.0362455e-02
-1.2557458e-01
-2.1414926e-01
-2.2847151e-01
-1.1138991e-01
8.8859945e-02
2.4929214e-01
3.1151853e-01
3.2370627e-01
3.1656238e-01
2.5476883e-01
1.0156867e-01
-8.4457160e-02
-1.8075713e-01
-1.4838100e-01
-7.0050827e-02
-4.6606560e-02
-5.6664196e-02
-2.3224669e-02
3.8586039e-02
4.5248557e-02
-2.0304638e-02
-4.1901026e-02
7.8507947e-02
2.9192196e-01
4.3752163e-01
4.0712249e-01
2.5174815e-01
7.2715501e-02
-7.9481059e-02
-1.8718491e-01
-2.5645099e-01
-3.0362891e-01
-3.2590280e-01
-3.2244634e-01
-3.0526835e-01
-2.8196657e-01
-2.4942080e-01
-1.9579763e-01
-1.1450854e-01
-7.9085948e-03
5.6185276e-02
5.6283927e-03
-8.5574869e-02
-1.3250394e-01
-1.2640940e-01
-7.1757634e-02
1.0713951e-02
9.8652673e-02
1.6830076e-01
2.0665020e-01
2.2523122e-01
2.4054614e-01
2.5076294e-01
2.4659068e-01
2.2706891e-01
1.7052720e-01
4.6059410e-02
-1.4882008e-01
-3.0632484e-01
-3.1131621e-01
-2.2755554e-01
-1.3757078e-01
-5.1533404e-02
2.1862920e-02
8.4063720e-02
1.3156037e-01
1.6565548e-01
2.1202222e-01
2.6883880e-01
3.0982810e-01
3.3387451e-01
3.4367513e-01
3.2307556e-01
2.5527113e-01
1.2531749e-01
-8.6038027e-02
-3.0960907e-01
-4.0931617e-01
-3.6307153e-01
-2.1285038e-01
-8.7684019e-03
1.3628846e-01
1.4112211e-01
6.2581220e-02
1.7087525e-02
2.1220915e-03
-3.0140974e-02
-5.5520317e-02
-6.7323683e-02
-8.4895848e-02
-1.1163467e-01
-1.4330361e-01
-1.8067689e-01
-2.3356340e-01
-3.0109895e-01
-3.5733452e-01
-3.7709151e-01
-3.5839032e-01
-2.8538588e-01
-1.0427142e-01
1.8412610e-01
4.6664025e-01
6.4755424e-01
7.1156489e-01
6.5728600e-01
4.9193437e-01
2.7833801e-01
1.1920849e-01
1.0447099e-02
-1.0823420e-01
-2.0577717e-01
-2.6875986e-01
-3.1619985e-01
-3.3550486e-01
-3.2878430e-01
-3.2512316e-01
-3.4068578e-01
-3.6339696e-01
-3.7162713e-01
-3.4452162e-01
-2.6023098e-01
-9.6868425e-02
1.5475271e-01
4.4172966e-01
6.5415934e-01
7.3670898e-01
6.8382521e-01
4.7012428e-01
1.4422311e-01
-1.4256892e-01
-2.9088927e-01
-2.9888613e-01
-2.1727010e-01
-1.6132029e-01
-2.3154749e-01
-3.8994690e-01
-5.1090352e-01
-5.0656741e-01
-3.6689180e-01
-1.3334430e-01
1.1621747e-01
2.9681225e-01
3.7285836e-01
3.6648977e-01
3.2361513e-01
2.6629064e-01
1.9252794e-01
1.1210855e-01
4.9045716e-02
3.5838767e-02
7.9460208e-02
1.3634810e-01
1.7223641e-01
1.9759150e-01
2.2068786e-01
2.0749964e-01
1.1794017e-01
-4.2120807e-02
-1.8599713e-01
-2.4320096e-01
-2.8452771e-01
-3.6828903e-01
-4.5892877e-01
-4.8793187e-01
-4.0106067e-01
-2.4878736e-01
-1.1169035e-01
7.5434436e-03
1.3111056e-01
2.4561110e-01
3.3458853e-01
3.9098932e-01
3.9854728e-01
3.5096229e-01
2.6068643e-01
1.5397736e-01
6.0693576e-02
-7.2082943e-03
-5.6550781e-02
-9.5116520e-02
-1.3365450e-01
-1.9070427e-01
-2.8099875e-01
-3.3704798e-01
-2.8214191e-01
-1.7929920e-01
-8.8612499e-02
1.5315280e-03
9.0292375e-02
1.6855492e-01
2.2285886e-01
2.3641400e-01
2.1304933e-01
1.8528521e-01
1.6699146e-01
1.5043190e-01
1.3057843e-01
8.3256894e-02
2.5540653e-02
2.8325953e-02
1.0633182e-01
1.9006944e-01
1.9530805e-01
1.0392620e-01
-3.5232725e-02
-1.7199250e-01
-2.8892564e-01
-3.7729373e-01
-3.8222496e-01
-2.6165080e-01
-9.3141191e-02
-1.4392537e-02
-8.5021299e-02
-2.3913835e-01
-3.6257991e-01
-3.7527243e-01
-2.4934776e-01
-3.1298947e-02
2.1904553e-01
4.7202950e-01
6.5932841e-01
7.2198415e-01
6.4799399e-01
4.2656435e-01
9.8639118e-02
-2.0829058e-01
-3.9420330e-01
-4.6240425e-01
-4.6808956e-01
-4.5526168e-01
-4.5254360e-01
-4.6442137e-01
-4.2888473e-01
-2.6165909e-01
3.4954529e-02
3.4071338e-01
5.4914683e-01
6.4960022e-01
6.5555822e-01
5.8455630e-01
4.6409965e-01
2.8528622e-01
3.6259791e-02
-2.1594854e-01
-3.8887637e-01
-4.7739269e-01
-4.8394370e-01
-4.4961912e-01
-4.4006113e-01
-3.9649680e-01
-2.3737479e-01
2.6945307e-02
3.0311663e-01
4.9539864e-01
5.9962736e-01
6.2482159e-01
5.2459978e-01
2.6987220e-01
-4.5713152e-02
-2.9496844e-01
-4.6036367e-01
-5.4282397e-01
-5.3302389e-01
-4.4129315e-01
-2.6505349e-01
8.3340076e-03
3.2109227e-01
5.3281808e-01
5.6450307e-01
4.2818774e-01
2.1259501e-01
3.1958778e-02
-7.3765974e-02
-1.0551519e-01
-7.2945916e-02
-2.4144374e-02
-4.3309269e-02
-1.5278087e-01
-2.7434173e-01
-3.5713558e-01
-4.0548075e-01
-4.0728573e-01
-3.4598831e-01
-2.1981385e-01
-1.2740051e-02
2.4981791e-01
4.7032455e-01
5.7503428e-01
5.4228967e-01
3.7734789e-01
1.2644059e-01
-1.2537697e-01
-3.1420948e-01
-4.0956960e-01
-3.9100189e-01
-2.4914489e-01
3.6584516e-03
2.6966946e-01
4.1022182e-01
3.7240385e-01
1.9684596e-01
-2.1354188e-02
-1.9306425e-01
-2.8836438e-01
-2.9978871e-01
-2.1039316e-01
-3.5866848e-02
1.4452374e-01
2.2751386e-01
1.7553880e-01
4.3483637e-02
-9.2467412e-02
-1.9439681e-01
-2.4032500e-01
-1.9061763e-01
-3.1285180e-02
1.6664288e-01
3.1619917e-01
3.7669888e-01
3.2809624e-01
2.1200255e-01
8.4982766e-02
-3.4948353e-02
-1.0370165e-01
-9.3084572e-02
-5.2106521e-02
-4.4877336e-02
-8.3556171e-02
-1.2159827e-01
-1.2589597e-01
-1.0956729e-01
-8.3934719e-02
-5.9904687e-02
-1.5527862e-02
4.7790037e-02
6.1452835e-02
3.3750709e-02
9.3803666e-03
-1.3610444e-02
-2.9949201e-02
-3.0841981e-02
-1.8398523e-02
-1.5649548e-03
1.1082150e-02
3.0075398e-02
6.9433975e-02
1.2391591e-01
1.4698284e-01
1.0508436e-01
3.4591922e-02
-3.9822246e-02
-1.2319294e-01
-2.1799702e-01
-3.1415145e-01
-3.8848284e-01
-4.3018216e-01
-4.3461086e-01
-3.8847217e-01
-3.6015673e-01
-4.2037988e-01
-4.6662718e-01
-3.8430959e-01
-2.0197876e-01
-1.3477193e-02
