-4.1293803e-02
-1.3288392e-01
-1.8940390e-01
-1.9100540e-01
-1.2017333e-01
4.7677978e-02
2.8203889e-01
4.8355074e-01
5.7588095e-01
5.7515700e-01
5.2459580e-01
3.8072548e-01
1.5063002e-01
-5.0215497e-02
-1.7253588e-01
-2.3356679e-01
-2.5026620e-01
-2.3908606e-01
-2.1414634e-01
-1.8772789e-01
-1.6834656e-01
-1.6118859e-01
-1.6504149e-01
-1.7030718e-01
-1.7270841e-01
-1.7737501e-01
-1.8335620e-01
-1.7891876e-01
-1.5075692e-01
-8.5668886e-02
2.8289031e-02
2.0258548e-01
3.9107053e-01
4.7444138e-01
4.2396603e-01
3.2724888e-01
2.2859027e-01
1.3615058e-01
7.5624401e-02
2.1181015e-02
-5.9069141e-02
-1.2812353e-01
-1.5721875e-01
-1.5443864e-01
-1.3145775e-01
-9.9938310e-02
-7.6412272e-02
-7.1952257e-02
-7.8675678e-02
-8.8824668e-02
-1.0142340e-01
-1.1511408e-01
-1.2528323e-01
-1.2633357e-01
-1.3038341e-01
-1.4232671e-01
-1.3337692e-01
-7.9908556e-02
8.8362849e-03
1.2360147e-01
2.4373332e-01
3.1760768e-01
3.2988573e-01
2.9283781e-01
2.1798915e-01
1.4414797e-01
1.0703821e-01
8.8461670e-02
4.2838469e-02
-2.6714164e-02
-8.0986264e-02
-1.0689545e-01
-1.1268984e-01
-1.0798158e-01
-1.0251400e-01
-1.0236014e-01
-1.1089793e-01
-1.2993791e-01
-1.6101907e-01
-2.0525766e-01
-2.5964335e-01
-3.1649462e-01
-3.6404544e-01
-3.8622785e-01
-3.6478973e-01
-2.8290035e-01
-1.2178170e-01
1.3733637e-01
4.3748853e-01
6.5772000e-01
7.6815842e-01
7.9629610e-01
7.3190809e-01
5.8023998e-01
3.6519195e-01
9.2663680e-02
-1.9653030e-01
-4.1573430e-01
-5.2197169e-01
-5.2427179e-01
-4.3407954e-01
-2.5609273e-01
-4.7194631e-02
8.6293382e-02
7.9155189e-02
-3.5721980e-02
-1.4396690e-01
-1.7845549e-01
-1.8992744e-01
-2.4992530e-01
-3.2853639e-01
-3.5177256e-01
-3.0450451e-01
-2.0595525e-01
-3.8143153e-02
1.9390900e-01
4.0110503e-01
5.3843119e-01
6.2856069e-01
6.8598527e-01
7.0599951e-01
6.7705413e-01
5.8648398e-01
4.1461708e-01
1.5711230e-01
-1.2178746e-01
-3.2648471e-01
-4.2924218e-01
-4.5384439e-01
-4.2575626e-01
-3.6837301e-01
-3.0149395e-01
-2.3978997e-01
-1.9178295e-01
-1.6185326e-01
-1.5184283e-01
-1.6028356e-01
-1.8247666e-01
-2.1007779e-01
-2.2992152e-01
-2.2742326e-01
-1.8857180e-01
-9.7012661e-02
6.5556885e-02
2.6820126e-01
3.9644422e-01
3.9131389e-01
3.4339554e-01
3.3989296e-01
3.2672091e-01
1.9657924e-01
-1.3180323e-02
-1.5639694e-01
-2.0853297e-01
-2.1388766e-01
-1.5049156e-01
-6.7162702e-02
-8.0838179e-02
-1.6450847e-01
-1.8296046e-01
-7.4151603e-02
1.4502425e-01
3.8781511e-01
5.4032748e-01
5.4639154e-01
3.8119229e-01
1.0502154e-01
-1.5251254e-01
-3.3374705e-01
-4.4489040e-01
-4.9456899e-01
-4.8687526e-01
-4.2672591e-01
-3.1950941e-01
-2.3764652e-01
-2.4168695e-01
-2.3144453e-01
-1.0353476e-01
1.4718923e-01
4.4033181e-01
6.4623723e-01
7.1052053e-01
6.3675274e-01
4.5501768e-01
2.1212217e-01
-6.5872302e-02
-3.0865287e-01
-4.1736794e-01
-3.8464024e-01
-2.6915881e-01
-1.2673804e-01
-3.2199217e-02
-7.4116491e-03
4.5882367e-02
1.6654076e-01
2.4386555e-01
1.8105905e-01
3.4406768e-02
-5.3741477e-02
-1.5673112e-02
8.3345667e-02
1.0899619e-01
1.6112015e-03
-1.8304154e-01
-3.3840801e-01
-3.8750962e-01
-3.0742918e-01
-9.3499998e-02
1.9250098e-01
4.0897980e-01
4.7592384e-01
4.1537819e-01
2.3184653e-01
-3.6408274e-02
-2.5755763e-01
-3.5335438e-01
-3.2912320e-01
-2.3785109e-01
-1.3301189e-01
-2.3668159e-02
3.6924467e-02
-1.7358811e-02
-1.2771298e-01
-1.5320498e-01
-2.5612929e-02
2.0750149e-01
4.2008068e-01
5.0031932e-01
4.1916276e-01
2.0702816e-01
-4.8348020e-02
-2.4618094e-01
-3.4658493e-01
-3.3819185e-01
-2.4021390e-01
-1.0188127e-01
3.5578128e-02
8.4299086e-02
-2.8260197e-02
-2.1693067e-01
-3.1957100e-01
-2.6250084e-01
-3.9391629e-02
2.7525592e-01
5.2177886e-01
6.1233117e-01
5.4013458e-01
3.0438765e-01
-4.1372728e-02
-3.6231187e-01
-5.4759974e-01
-5.6946630e-01
-4.3449125e-01
-1.7418884e-01
1.0370255e-01
2.8328694e-01
3.3396590e-01
2.4625378e-01
3.6299682e-02
-1.8137458e-01
-2.6119306e-01
-1.4327789e-01
8.7149443e-02
2.7511717e-01
3.5635182e-01
3.3738893e-01
2.1413141e-01
-2.0125994e-02
-2.8776514e-01
-4.3489210e-01
-3.9273286e-01
-2.2252807e-01
-5.8285324e-02
6.1006224e-02
1.7186524e-01
2.3627102e-01
2.7955900e-01
3.4956868e-01
3.7392207e-01
2.9243104e-01
1.8423843e-01
1.8067672e-01
2.3410859e-01
1.7127679e-01
-1.0706280e-02
-1.7941669e-01
-2.8268006e-01
-3.4054535e-01
-3.7224506e-01
-3.8988895e-01
-4.0163259e-01
-4.1562350e-01
-4.3123332e-01
-4.3349548e-01
-4.0581538e-01
-3.3054658e-01
-1.9084851e-01
-2.1088589e-03
1.9322261e-01
3.7736705e-01
5.2983805e-01
5.9608427e-01
5.4785065e-01
3.9278590e-01
1.7290749e-01
-1.0246280e-02
-5.4951027e-02
9.0089956e-03
5.3651791e-02
3.8910028e-02
4.9357536e-02
1.2816486e-01
1.6551038e-01
5.4715072e-02
-1.5097150e-01
-3.0160623e-01
-3.1151035e-01
-1.8210487e-01
1.1074985e-02
1.2117925e-01
9.4901969e-02
-1.0736880e-02
-1.3514121e-01
-1.9997568e-01
-1.4850385e-01
2.4350580e-02
2.5152624e-01
4.0415526e-01
4.0394312e-01
2.3702269e-01
-2.2710752e-02
-2.4575237e-01
-3.7756036e-01
-4.1928481e-01
-3.7076238e-01
-2.3771837e-01
-4.0329384e-02
1.7255195e-01
3.0718283e-01
2.7199559e-01
1.1063689e-01
-2.5605594e-02
-6.1456330e-02
-1.5961846e-02
1.9398176e-02
-1.5109564e-02
-4.8387039e-02
-4.8170819e-02
-3.0571868e-02
-3.3226472e-02
-9.7707158e-02
-1.4712443e-01
-1.3860071e-01
-9.2401981e-02
1.1583855e-02
1.4507446e-01
2.8648361e-01
4.2341031e-01
4.4413430e-01
2.9870396e-01
8.8922073e-02
-8.0763527e-02
-1.9058149e-01
-2.6223392e-01
-3.0510228e-01
-3.1890657e-01
-2.9284041e-01
-2.1524300e-01
-9.0075441e-02
4.2307010e-03
5.6790933e-03
1.5052814e-03
7.4910203e-02
2.1850506e-01
3.3752930e-01
3.4346141e-01
2.6674687e-01
1.3942723e-01
-2.5057158e-02
-1.7817672e-01
-2.7803263e-01
-3.1629601e-01
-2.9265599e-01
-2.0072501e-01
-4.0274321e-02
1.1750507e-01
1.8978601e-01
2.1186838e-01
2.1392613e-01
1.6072232e-01
6.7136156e-02
2.4404203e-03
-3.3022731e-03
1.5669527e-02
2.5636655e-02
-3.3400722e-03
-8.6992754e-02
-1.7561883e-01
-2.2492360e-01
-2.4113329e-01
-2.3217188e-01
-1.8874714e-01
-9.9991806e-02
4.1502093e-02
2.3989351e-01
4.1498018e-01
4.2690762e-01
2.9274716e-01
1.5911123e-01
6.0412912e-02
-4.3605536e-02
-1.2874697e-01
-1.7119366e-01
-1.8593216e-01
-1.9214325e-01
-1.9872839e-01
-1.9514644e-01
-1.7465416e-01
-1.4509855e-01
-1.1216213e-01
-6.4354810e-02
2.4172327e-02
1.6945172e-01
3.3424024e-01
4.1053395e-01
3.5278881e-01
2.3419114e-01
1.0722769e-01
-5.1382415e-03
-8.3232139e-02
-1.3506266e-01
-1.6916908e-01
-1.8653611e-01
-1.8825758e-01
-1.7750877e-01
-1.5788762e-01
-1.4430153e-01
-1.4672097e-01
-1.4282604e-01
-1.1161655e-01
-4.0280923e-02
8.0252779e-02
2.4200664e-01
3.9043400e-01
4.0908299e-01
2.8290644e-01
1.4021332e-01
4.1374729e-02
-4.1321392e-02
-1.0778853e-01
-1.3993188e-01
-1.4952812e-01
-1.5525089e-01
-1.5711941e-01
-1.5557296e-01
-1.4824765e-01
-1.2608344e-01
-7.8571109e-02
5.7717278e-03
1.2834943e-01
2.5505937e-01
2.8537994e-01
1.7752202e-01
3.5483516e-02
-6.3270948e-02
-1.2025131e-01
-1.5260052e-01
-1.7719511e-01
-1.8941262e-01
-1.7651158e-01
-1.2679101e-01
-4.6547576e-02
3.8075981e-02
1.3716422e-01
2.1276427e-01
2.0393731e-01
1.9603279e-01
2.4487270e-01
2.4865979e-01
1.4635484e-01
1.5984861e-02
-7.0801081e-02
-1.1995343e-01
-1.4173942e-01
-1.3665324e-01
-1.2835529e-01
-1.4486759e-01
-1.7303227e-01
-1.8886939e-01
-1.9157801e-01
-1.8553335e-01
-1.6003889e-01
-9.7524360e-02
1.7552550e-02
2.0148531e-01
3.8710224e-01
4.4482350e-01
3.6952131e-01
2.6258923e-01
1.4615007e-01
-5.0622611e-03
-1.3381687e-01
-1.9537114e-01
-2.1135174e-01
-2.0162492e-01
-1.6947837e-01
-1.0952850e-01
-3.8268887e-02
2.4982604e-02
7.9230649e-02
1.1817856e-01
1.2884100e-01
1.0376487e-01
6.7373494e-02
4.6489681e-02
1.4436297e-02
-5.5470092e-02
-1.3293328e-01
-1.9543710e-01
-2.5021096e-01
-2.9299150e-01
-3.1564518e-01
-3.0585615e-01
-2.4409586e-01
-1.1460423e-01
1.0081194e-01
3.6856418e-01
5.6682915e-01
6.2633205e-01
5.7743640e-01
4.4051584e-01
2.3306146e-01
2.2113430e-02
-1.1930086e-01
-1.7203504e-01
-1.8458319e-01
-2.1900711e-01
-2.6822011e-01
-2.9289839e-01
-2.8277018e-01
-2.4119112e-01
-1.7207549e-01
-9.9106883e-02
-8.1264315e-02
-1.2598994e-01
-1.5593195e-01
-1.1310937e-01
-9.1261541e-04
1.5466300e-01
2.9849876e-01
3.9898615e-01
4.6276828e-01
4.1805064e-01
2.2867353e-01
-6.6622726e-03
-1.8303564e-01
-2.6659311e-01
-2.7843110e-01
-2.3320401e-01
-1.1499307e-01
8.0660238e-02
2.7516033e-01
3.3169674e-01
2.4048342e-01
1.0974951e-01
-1.4234391e-02
-1.2809096e-01
-2.1523380e-01
-2.6607153e-01
-2.8470846e-01
-2.7728447e-01
-2.3818503e-01
-1.5537547e-01
-7.2987745e-02
-3.4332846e-02
1.9726257e-02
1.3867730e-01
2.8259770e-01
3.7970798e-01
4.0518132e-01
3.6414334e-01
2.4928635e-01
9.5449342e-02
-3.4386370e-02
-1.2260356e-01
-1.9314207e-01
-2.5916822e-01
-3.0668207e-01
-3.1952981e-01
-2.9459446e-01
-2.3936739e-01
-1.5306523e-01
-2.2951235e-02
9.6157639e-02
1.3920881e-01
1.6359158e-01
2.2387813e-01
2.8613902e-01
3.2407049e-01
2.9324203e-01
1.6900290e-01
3.0936187e-02
-6.3878324e-02
-1.0772026e-01
-9.5390317e-02
-4.6758622e-02
-7.1188251e-03
-4.8415605e-03
-2.1922974e-02
-4.1097755e-02
-5.7881697e-02
-6.9951318e-02
-8.2701574e-02
-9.8556542e-02
-1.1358431e-01
-1.3093484e-01
-1.5641759e-01
-1.8144200e-01
-1.9589854e-01
-2.0078039e-01
-1.9041076e-01
-1.4825434e-01
-5.6070857e-02
1.0119140e-01
2.6265196e-01
3.5555937e-01
4.0460047e-01
3.8053375e-01
2.0218786e-01
-8.4546099e-02
-3.4370082e-01
-4.9554378e-01
-5.2497562e-01
-4.2403718e-01
-2.0712391e-01
4.3405159e-02
2.2251318e-01
2.9539311e-01
2.8399150e-01
2.4503632e-01
2.4914257e-01
3.1393965e-01
3.9484650e-01
4.4229959e-01
4.3102278e-01
3.5902725e-01
2.4873737e-01
1.1518743e-01
-3.1486035e-02
-1.4660248e-01
-2.1846057e-01
-2.8247473e-01
-3.2934599e-01
-3.3608882e-01
-3.0791394e-01
-2.5866235e-01
-2.0313205e-01
-1.4825003e-01
-9.0425370e-02
-2.5227985e-02
3.4302231e-02
7.8172626e-02
1.2260861e-01
1.4848613e-01
1.1268084e-01
3.9106136e-02
-2.7566623e-02
-7.7159900e-02
-1.1033692e-01
-1.2385339e-01
-1.1016740e-01
-6.8272230e-02
3.9449280e-03
1.1119448e-01
1.8872649e-01
1.6253916e-01
8.1514460e-02
1.0135908e-02
-4.4677983e-02
-7.6300306e-02
-7.4833250e-02
-4.1074168e-02
1.6237895e-02
6.5353331e-02
7.3666089e-02
6.4474675e-02
5.1084415e-02
1.6042467e-02
-2.7344483e-02
-6.3082672e-02
-1.0091365e-01
-1.5647512e-01
-2.2773052e-01
-3.0024926e-01
-3.5530211e-01
-3.6901480e-01
-3.2228527e-01
-2.0382865e-01
2.6550627e-03
2.4442554e-01
3.9612312e-01
4.2103829e-01
3.5765058e-01
2.6521571e-01
2.1104448e-01
1.9582533e-01
1.8075438e-01
1.4186227e-01
8.5461927e-02
6.5032274e-03
-8.5942577e-02
-1.2344802e-01
-8.0270972e-02
1.6949136e-02
1.3020288e-01
1.8879622e-01
1.2302098e-01
-3.7003060e-02
-1.7637588e-01
-2.2528750e-01
-1.7639239e-01
-7.2333080e-02
1.1985887e-02
1.3344992e-02
-6.6150790e-02
-1.3700050e-01
-1.4232860e-01
-8.7119420e-02
-2.3116648e-02
-2.8433610e-02
-7.6846661e-02
-7.6637505e-02
1.1383970e-02
1.7468084e-01
3.3671607e-01
3.7310334e-01
2.6996636e-01
1.5196128e-01
7.2193634e-02
-1.1312877e-02
-1.0363145e-01
-1.8348984e-01
-2.4083198e-01
-2.7167903e-01
-2.7271598e-01
-2.4212423e-01
-1.8008567e-01
-8.4998659e-02
4.3776688e-02
1.4682549e-01
1.7010382e-01
1.5014500e-01
1.1781293e-01
1.0566043e-01
1.4385557e-01
1.9547428e-01
1.7375764e-01
4.9028135e-02
-1.0144555e-01
-2.1923916e-01
-3.0044455e-01
-3.3919980e-01
-3.2923809e-01
-2.9229676e-01
-2.5230130e-01
-1.9444071e-01
-8.2812974e-02
9.5288315e-02
3.1460770e-01
5.2896971e-01
6.6189740e-01
6.4869617e-01
4.8254440e-01
2.2801341e-01
2.9958985e-03
-1.2174246e-01
-1.5112860e-01
-1.6223582e-01
-2.2096371e-01
-2.8297935e-01
-3.0557036e-01
-2.9564018e-01
-2.5457389e-01
-1.8089698e-01
-7.2592412e-02
6.8936629e-02
2.1584845e-01
2.8542847e-01
2.1509159e-01
6.0119116e-02
-8.6895899e-02
-1.8978421e-01
-2.4424145e-01
-2.4705636e-01
-1.9697728e-01
-1.0807062e-01
-2.9032127e-02
2.7332818e-02
1.3135556e-01
2.5489851e-01
3.2468355e-01
3.6521467e-01
3.2516761e-01
1.8259034e-01
6.0388417e-02
2.9018195e-02
3.7011615e-02
-6.5837183e-03
-1.0393029e-01
-1.9234048e-01
-2.6043504e-01
-3.2108056e-01
-3.6581194e-01
-3.8285000e-01
-3.6072270e-01
-2.9270532e-01
-1.8118069e-01
-3.8426096e-02
6.8178922e-02
1.0232948e-01
1.3479557e-01
1.8987006e-01
2.0991360e-01
1.5459513e-01
9.6543847e-02
1.2890037e-01
1.9514549e-01
2.2749172e-01
2.3328148e-01
2.3234577e-01
2.3515212e-01
2.2421380e-01
1.8238403e-01
1.0219819e-01
-2.4479937e-02
-1.4262239e-01
-1.4169413e-01
-3.0232961e-02
6.9992929e-02
9.7485714e-02
3.9709489e-02
-1.0199363e-01
-2.6345101e-01
-3.6441759e-01
-3.7732093e-01
-3.0316775e-01
-1.4097585e-01
5.2245155e-02
1.4612874e-01
1.1895228e-01
6.9659104e-02
5.4731692e-02
1.0001458e-01
1.7153747e-01
1.6658499e-01
3.5457495e-02
-1.5912096e-01
-3.0044994e-01
-3.2829199e-01
-2.3676123e-01
-2.3457875e-02
2.4551948e-01
4.4069095e-01
5.1837934e-01
4.9099218e-01
3.2606077e-01
5.1743785e-02
-2.0845940e-01
-3.8882554e-01
-5.0275308e-01
-5.5950400e-01
-5.5256712e-01
-4.6830062e-01
-3.0146327e-01
-9.1264071e-02
1.1103152e-01
3.0133595e-01
4.5786226e-01
5.2338602e-01
5.0143492e-01
4.3453078e-01
3.3324021e-01
2.0553832e-01
4.5251811e-02
-1.5232008e-01
-3.2291160e-01
-4.0183779e-01
-3.7710033e-01
-2.5447801e-01
-4.3051282e-02
2.0449378e-01
3.7554641e-01
3.8655152e-01
2.5882841e-01
9.2027322e-02
-3.7682693e-02
-1.1418158e-01
-1.4806929e-01
-1.5489511e-01
-1.3989970e-01
-1.0379189e-01
-5.5591904e-02
-3.8905003e-02
-7.7042477e-02
-1.3171391e-01
-1.8290450e-01
-2.3266703e-01
-2.7218437e-01
-2.9445353e-01
-2.9213501e-01
-2.5222376e-01
-1.5396692e-01
2.9540257e-02
2.6673589e-01
4.5733812e-01
5.4953302e-01
5.4723455e-01
4.6154165e-01
3.2237409e-01
1.6542709e-01
3.1002504e-02
-6.0124965e-02
-1.0696098e-01
-9.2073653e-02
-6.9696571e-02
-1.3378308e-01
-2.5575365e-01
-3.5126330e-01
-3.8998422e-01
-3.7154819e-01
-2.9602423e-01
-1.5565886e-01
5.2054516e-02
2.5099320e-01
3.5586337e-01
3.8327597e-01
3.5765313e-01
2.8875406e-01
2.0832702e-01
1.2843406e-01
2.7727780e-02
-9.6724748e-02
-2.0908352e-01
-2.8144813e-01
-3.0405958e-01
-2.6680776e-01
-1.6687249e-01
-1.2861925e-02
1.7803753e-01
3.2779330e-01
3.4197784e-01
2.3921549e-01
1.0290153e-01
-1.0618273e-02
-8.3493154e-02
-1.2382697e-01
-1.3995770e-01
-1.3694448e-01
-1.2859110e-01
-1.2602904e-01
-1.1954359e-01
-1.0156550e-01
-7.4858840e-02
-4.2486634e-02
-2.3549029e-02
-3.1561097e-02
-4.4053211e-02
-3.1606185e-02
1.8673883e-02
9.6538424e-02
1.9056920e-01
2.6979010e-01
2.6202881e-01
1.6756805e-01
6.4939806e-02
-5.5787471e-03
-5.4963335e-02
-9.7994273e-02
-1.2752329e-01
-1.3575459e-01
-1.3556439e-01
-1.3896940e-01
-1.3980229e-01
-1.3177082e-01
-1.0877686e-01
-6.7290214e-02
-7.7982080e-03
8.1181030e-02
2.0558129e-01
2.9979035e-01
2.7341474e-01
1.6423963e-01
6.5942384e-02
6.0313952e-03
-3.1566522e-02
-6.6882700e-02
-9.5142021e-02
-1.1058664e-01
-1.1877827e-01
-1.1961663e-01
-1.0976900e-01
-8.9803977e-02
-6.1706893e-02
-2.5952594e-02
1.7078762e-02
5.7308258e-02
8.2088958e-02
9.8223249e-02
1.1720146e-01
1.1567183e-01
6.8370168e-02
2.1258620e-03
-5.3910025e-02
-9.6837248e-02
-1.2613775e-01
-1.3883800e-01
-1.3561174e-01
-1.3329435e-01
-1.4157262e-01
-1.4062512e-01
-1.0973821e-01
-4.3528775e-02
5.9018080e-02
2.0212395e-01
3.3539971e-01
3.6711399e-01
2.7923430e-01
1.2887042e-01
-5.2096477e-03
-7.5064125e-02
-7.7584117e-02
-5.0976682e-02
-4.1785459e-02
-4.0183873e-02
-1.2758205e-02
3.3142068e-02
5.9426357e-02
5.1253972e-02
1.7949014e-02
-3.6272223e-02
-1.0009668e-01
-1.5037614e-01
-1.8281634e-01
-2.0920870e-01
-2.2638711e-01
-2.2404861e-01
-2.0028529e-01
-1.4721483e-01
-5.1224505e-02
3.3555767e-02
6.0337204e-02
8.6903890e-02
1.4003925e-01
2.1470586e-01
3.0912942e-01
3.6806522e-01
3.4197372e-01
2.4890505e-01
1.4913226e-01
1.0672378e-01
1.2336109e-01
1.0669260e-01
-7.0739200e-04
-1.4777943e-01
-2.6626883e-01
-3.3292733e-01
-3.4651964e-01
-3.1856970e-01
-2.6584196e-01
-1.8641565e-01
-8.1543608e-02
3.7457291e-02
1.2994144e-01
1.3131404e-01
7.2340706e-02
2.9458993e-02
4.1049486e-03
3.1757638e-03
5.9390432e-02
1.5693073e-01
2.2930955e-01
2.4674034e-01
2.3239067e-01
1.8080178e-01
8.2015376e-02
-4.3219661e-02
-1.5850291e-01
-2.2381210e-01
-2.1987531e-01
-1.4861415e-01
-1.7767269e-02
1.3762254e-01
2.3560870e-01
2.0515060e-01
8.0622593e-02
-4.1203394e-02
-1.2296043e-01
-1.6534994e-01
-1.7983733e-01
-1.9503372e-01
-2.1690265e-01
-2.2504004e-01
-1.9728988e-01
-1.2353960e-01
-1.4159334e-02
9.3309457e-02
1.4819557e-01
1.4681003e-01
1.5830952e-01
2.3541983e-01
3.2412789e-01
3.0081779e-01
1.5243739e-01
-2.9603430e-03
-9.6246928e-02
-1.2610142e-01
-1.1136124e-01
-9.8160011e-02
-1.1623178e-01
-1.4578157e-01
-1.5239658e-01
-1.2082735e-01
-5.4126220e-02
4.0674682e-02
1.1590010e-01
1.2894686e-01
1.3602115e-01
1.6512132e-01
1.5243367e-01
7.6165584e-02
-1.4166105e-02
-8.0200117e-02
-1.1868082e-01
-1.2990327e-01
-1.1607658e-01
-8.9699665e-02
-7.7200456e-02
-8.8528539e-02
-9.3454689e-02
-8.0776232e-02
-6.6879271e-02
-4.3352786e-02
4.9508682e-03
5.6931714e-02
9.8118678e-02
1.5320936e-01
2.0152500e-01
1.9407176e-01
1.5761707e-01
1.0701058e-01
1.3583098e-02
-9.1504094e-02
-1.6448826e-01
-1.9514030e-01
-1.8477090e-01
-1.3408855e-01
-5.7610739e-02
1.6965713e-02
6.4404239e-02
7.0477205e-02
6.4410039e-02
8.2349473e-02
1.3625853e-01
1.8930815e-01
1.7111369e-01
8.7211423e-02
1.1561609e-03
-5.7506436e-02
-8.9953086e-02
-9.9604000e-02
-9.2151004e-02
-8.0718021e-02
-8.0616415e-02
-9.5995430e-02
-1.1157292e-01
-1.1171700e-01
-1.0643063e-01
-1.0838039e-01
-1.0731916e-01
-8.7151904e-02
-3.3094168e-02
6.5026051e-02
1.9249420e-01
2.7054256e-01
2.3965713e-01
1.6739240e-01
1.2975145e-01
1.2797719e-01
1.1263925e-01
4.1459350e-02
-4.8897454e-02
-1.0789982e-01
-1.2763118e-01
-1.2510571e-01
-1.1761104e-01
-1.1216932e-01
-1.0970065e-01
-9.5181518e-02
-5.7406564e-02
8.5765723e-04
7.8018483e-02
1.4680218e-01
1.5002282e-01
8.5769995e-02
1.2026681e-02
-4.0865484e-02
-7.4986089e-02
-1.0239584e-01
-1.3263647e-01
-1.5497656e-01
-1.5527275e-01
-1.3327581e-01
-9.5355598e-02
-6.5222460e-02
-5.8414496e-02
-3.5064436e-02
4.6799822e-02
1.9377291e-01
3.3996875e-01
3.7074735e-01
2.7742032e-01
1.5414478e-01
8.4133026e-02
9.7661718e-02
1.1760067e-01
4.5488637e-02
-6.7669974e-02
-1.4528756e-01
-1.9443758e-01
-2.2814942e-01
-2.7560563e-01
-3.6189294e-01
-4.4947095e-01
-4.9431213e-01
-4.7809187e-01
-3.8223395e-01
-2.0411605e-01
2.9226114e-02
2.5719155e-01
4.1611344e-01
4.9300294e-01
5.0967682e-01
4.8886608e-01
4.4960740e-01
3.9889697e-01
3.3573320e-01
2.6362786e-01
1.7758327e-01
5.8404648e-02
-5.6108483e-02
-1.2000039e-01
-1.6362151e-01
-1.9380294e-01
-1.9338096e-01
-2.0264824e-01
-2.7641922e-01
-3.7891164e-01
-4.1834597e-01
-3.6913956e-01
-2.6769876e-01
-1.2951545e-01
5.0022978e-02
2.2214943e-01
3.1566165e-01
3.0667312e-01
2.2049043e-01
1.0725051e-01
2.3657181e-02
2.7357488e-02
1.0325861e-01
1.5967671e-01
1.6839077e-01
1.4840622e-01
9.0033290e-02
4.4129712e-02
6.7664635e-02
1.1867249e-01
1.6022943e-01
1.4952931e-01
4.1995671e-02
-9.7105656e-02
-1.7312810e-01
-1.6423819e-01
-8.9750587e-02
-2.6566999e-02
-4.3600552e-02
-9.3043120e-02
-1.2399258e-01
-1.4087716e-01
-1.5132114e-01
-1.5308038e-01
-1.4292108e-01
-1.2625151e-01
-1.0226343e-01
-6.6264188e-02
-2.2094027e-02
2.6462678e-02
8.8139693e-02
1.7544439e-01
2.2948576e-01
1.8703205e-01
1.1013098e-01
5.6345999e-02
1.8118823e-02
-1.1136516e-02
-3.3738410e-02
-4.9130728e-02
-5.8373419e-02
-6.2993344e-02
-6.4751473e-02
-6.4026095e-02
-6.0280485e-02
-5.3996285e-02
-5.0078637e-02
-5.4125267e-02
-6.0539547e-02
-5.9063422e-02
-4.8221192e-02
-3.3484963e-02
-1.7541310e-02
4.6935468e-03
3.1654019e-02
5.7921923e-02
9.4871042e-02
9.5758463e-02
9.4721341e-03
-9.2703075e-02
-1.4763818e-01
-1.5621207e-01
-1.1486754e-01
-2.4501640e-02
8.9021502e-02
1.6638482e-01
1.8699452e-01
2.0703888e-01
2.2898692e-01
1.7157940e-01
3.8031529e-02
-7.7222186e-02
-1.2919673e-01
-1.2160961e-01
-9.6985807e-02
-1.1865585e-01
-1.6836777e-01
-1.8388901e-01
-1.4035470e-01
-5.7917842e-02
3.4962827e-02
1.5983981e-01
2.9127815e-01
3.4493632e-01
2.9271319e-01
1.6638649e-01
4.7876453e-02
-2.6045506e-03
-9.5745757e-03
-3.2729477e-02
-8.1530054e-02
-1.1748329e-01
-1.3308002e-01
-1.3973935e-01
-1.3314383e-01
-1.1225841e-01
-8.0844921e-02
-4.8272546e-02
-2.1267718e-02
1.6634687e-02
6.1348248e-02
7.2893716e-02
5.0800241e-02
3.4872438e-02
4.2434826e-02
4.5373775e-02
1.6068425e-02
-1.9471773e-02
-3.5377321e-02
-4.3476633e-02
-5.7576003e-02
-6.9861418e-02
-6.6072399e-02
-4.4159127e-02
-9.7893067e-03
3.3416973e-02
8.9466405e-02
1.3173046e-01
1.1387000e-01
5.2045273e-02
-7.9806220e-03
-5.3847928e-02
-8.5345222e-02
-9.9847717e-02
-9.7256438e-02
-7.9749566e-02
-5.8041873e-02
-4.2322819e-02
-1.8568367e-02
3.0699609e-02
8.5443180e-02
1.2422926e-01
1.3854054e-01
1.1544678e-01
8.6871008e-02
6.3142788e-02
1.8852177e-02
-2.5269236e-02
-5.8242864e-02
-9.1294716e-02
-1.1879064e-01
-1.3440590e-01
-1.3738172e-01
-1.2649144e-01
-9.9077047e-02
-5.3032976e-02
1.7107548e-02
1.1895003e-01
2.2443664e-01
2.4646580e-01
1.5320721e-01
3.0637131e-02
-5.6100488e-02
-1.0342485e-01
-1.1130770e-01
-8.2033450e-02
-1.6839730e-02
3.3591253e-02
1.5329744e-02
-2.7451000e-02
-4.7038334e-02
-3.8021662e-02
3.5779750e-04
6.5858930e-02
1.3778992e-01
1.6220980e-01
1.2473990e-01
6.3914266e-02
1.1935444e-04
-5.3727880e-02
-8.3411862e-02
-8.8927231e-02
-7.7773881e-02
-5.7998400e-02
-3.2633135e-02
-1.2230259e-02
-1.4493202e-02
-3.5230123e-02
-5.0787922e-02
-5.0309077e-02
-3.0456383e-02
1.2604802e-02
7.5464510e-02
1.1468362e-01
9.1971505e-02
5.1203572e-02
2.5070788e-02
-8.0320772e-04
-2.4987903e-02
-4.0555497e-02
-4.6915873e-02
-4.4748777e-02
-3.3907071e-02
-1.6774286e-02
-2.5176152e-03
1.0401886e-03
-4.1224516e-03
-1.2064307e-02
-2.3771357e-02
-4.7835388e-02
-8.3040600e-02
-1.1147874e-01
-1.2245827e-01
-1.1503428e-01
-8.5094490e-02
-2.7828733e-02
5.9363981e-02
1.1974866e-01
1.0372816e-01
8.1088283e-02
1.0051851e-01
1.1471661e-01
1.1195010e-01
1.4547388e-01
1.9204177e-01
1.5665503e-01
4.5534560e-02
-4.8272104e-02
-8.2327665e-02
-7.0351456e-02
-6.0087900e-02
-9.0611058e-02
-1.2891643e-01
-1.3900233e-01
-1.2111986e-01
-7.6720712e-02
-1.0270175e-02
5.1594555e-02
9.5352617e-02
1.4110016e-01
1.6334507e-01
1.2103742e-01
4.9388855e-02
-8.9516119e-03
-5.7008446e-02
-9.5385683e-02
-1.1700154e-01
-1.2579837e-01
-1.2728870e-01
-1.2195175e-01
-1.0788194e-01
-7.9904795e-02
-3.2310228e-02
4.1844805e-02
1.4519485e-01
2.4805052e-01
2.6685499e-01
1.6797838e-01
3.5623333e-02
-6.6108492e-02
-1.3603476e-01
-1.7538445e-01
-1.8723244e-01
-1.7637240e-01
-1.4114356e-01
-7.3991421e-02
3.3451392e-02
1.2094299e-01
1.2197810e-01
1.0302718e-01
1.3785325e-01
2.0827853e-01
2.3315365e-01
1.7004475e-01
8.2058757e-02
6.9638569e-03
-6.7137729e-02
-1.2771442e-01
-1.6119628e-01
-1.7059473e-01
-1.6016128e-01
-1.3760039e-01
-1.0945439e-01
-7.2885882e-02
-2.6936659e-02
2.4735064e-02
8.7053346e-02
1.5647978e-01
1.9275974e-01
1.6066660e-01
8.7219558e-02
1.7199120e-02
-3.4557799e-02
-6.6322083e-02
-7.8799501e-02
-7.7089664e-02
-6.7071672e-02
-5.1461266e-02
-3.5601329e-02
-2.4259437e-02
-1.5912647e-02
-8.9080192e-03
5.5965282e-05
1.8673703e-02
4.9190651e-02
6.5890917e-02
4.6156384e-02
1.5549596e-02
-2.7941393e-03
-1.1298566e-02
-1.2286229e-02
-1.8069953e-02
-3.7940685e-02
-5.6303055e-02
-6.3148431e-02
-6.3621013e-02
-5.6211248e-02
-3.6826504e-02
2.8579654e-03
7.0704427e-02
1.4780070e-01
1.7948356e-01
1.4005696e-01
6.8764540e-02
2.1530029e-03
-4.5151316e-02
-7.0268395e-02
-8.2138159e-02
-8.3489860e-02
-7.5309414e-02
-6.2394234e-02
-4.9818423e-02
-3.5268583e-02
-1.9079491e-02
-1.7396221e-02
-3.3193011e-02
-4.7386084e-02
-5.0371911e-02
-4.1883324e-02
-1.2258526e-02
4.7539413e-02
1.4019421e-01
1.9950909e-01
1.5455195e-01
6.9255893e-02
8.0930367e-03
-3.0059440e-02
-5.1174441e-02
-6.1717324e-02
-5.2571143e-02
-1.9044402e-02
3.2850005e-02
6.7074947e-02
4.5153709e-02
-1.0328509e-03
-3.3681847e-02
-5.7479967e-02
-7.4987264e-02
-8.0175887e-02
-7.6994264e-02
-7.6098385e-02
-7.4967379e-02
-6.3853657e-02
-4.7052368e-02
-2.8828922e-02
6.9457661e-03
7.3604263e-02
1.7625132e-01
2.6649688e-01
2.5097954e-01
1.4449378e-01
3.8987075e-02
-3.4867640e-02
-8.0790315e-02
-9.8123830e-02
-9.5910571e-02
-8.9464184e-02
-8.6715689e-02
-8.8288845e-02
-9.2287431e-02
-8.7052246e-02
-7.8651294e-02
-7.8338414e-02
-6.6146675e-02
-2.7070681e-02
2.0045032e-02
4.4401353e-02
3.3808660e-02
1.0996542e-02
2.5125366e-02
8.3986618e-02
1.2684795e-01
8.3443188e-02
-3.0068306e-02
-1.1937198e-01
-1.3251016e-01
-5.9567167e-02
1.0844464e-01
3.2315525e-01
4.5725726e-01
4.0892824e-01
2.2304982e-01
3.5364472e-02
-9.5232478e-02
-1.7857284e-01
-2.2206521e-01
-2.4112537e-01
-2.4547230e-01
-2.3323496e-01
-2.0821104e-01
-1.7925902e-01
-1.4932269e-01
-1.1635111e-01
-7.4875431e-02
-8.4562392e-03
1.0474997e-01
2.4569543e-01
3.3654774e-01
2.8429547e-01
9.8200739e-02
-9.6390848e-02
-2.3183227e-01
-3.0905744e-01
-3.1991473e-01
-2.5190406e-01
-9.0458863e-02
1.5589587e-01
3.9800231e-01
5.1522773e-01
4.6055657e-01
2.6257897e-01
2.2922684e-02
-1.5225197e-01
-2.2786598e-01
-2.0069902e-01
-8.0944202e-02
7.5188581e-02
1.6514449e-01
1.2883220e-01
2.1597465e-02
-6.4358913e-02
-9.7482429e-02
-8.9962645e-02
-6.6566151e-02
-5.7013796e-02
-6.6221067e-02
-7.2952008e-02
-6.7458483e-02
-4.8523582e-02
-6.2589612e-03
5.4371205e-02
9.1341028e-02
8.2041992e-02
6.2285269e-02
4.7668231e-02
1.9706074e-02
-2.4589662e-02
-7.6428998e-02
-1.2098911e-01
-1.4647232e-01
-1.4803213e-01
-1.2322516e-01
-7.2447566e-02
3.9656611e-03
8.0620692e-02
1.1898420e-01
1.1276007e-01
5.9141240e-02
-2.8237421e-02
-9.3957597e-02
-1.0081238e-01
-4.3219077e-02
7.0366043e-02
1.9157585e-01
2.3970763e-01
1.7568470e-01
4.8499470e-02
-5.5486750e-02
-9.5923298e-02
-8.1573901e-02
-3.1749117e-02
1.7178423e-02
2.2584848e-02
-6.8696962e-03
-3.4049263e-02
-5.4077077e-02
-8.3794795e-02
-1.2239036e-01
-1.3939937e-01
-1.1333938e-01
-5.4810400e-02
2.7465954e-02
9.2902577e-02
1.0093740e-01
9.7589121e-02
1.2526370e-01
1.6311759e-01
1.8438523e-01
1.6793536e-01
9.0993649e-02
-1.2586781e-02
-9.4637503e-02
-1.4972631e-01
-1.7690963e-01
-1.7272867e-01
-1.3148140e-01
-7.8922708e-02
-4.6632521e-02
-1.3853283e-02
2.9870556e-02
6.6938149e-02
9.5412540e-02
1.1680843e-01
1.3580213e-01
1.5612954e-01
1.5172135e-01
1.0547249e-01
4.2054774e-02
-1.2690111e-02
-5.0184923e-02
-7.1408582e-02
-8.2880249e-02
-9.7674187e-02
-1.2311967e-01
-1.5526615e-01
-1.8849841e-01
-2.1873408e-01
-2.4634373e-01
-2.7114053e-01
-2.8396239e-01
-2.7077805e-01
-2.1543852e-01
-9.4184063e-02
9.0362477e-02
2.5804563e-01
3.2884878e-01
3.2986275e-01
3.1110539e-01
2.6683194e-01
1.9354950e-01
1.0491906e-01
-4.8254807e-03
-9.3712437e-02
-9.3739620e-02
-3.7315394e-02
2.3497133e-02
7.7670177e-02
1.2726311e-01
1.8113716e-01
2.2002905e-01
2.2527382e-01
1.8783042e-01
8.1150066e-02
-9.7327686e-02
-2.9211521e-01
-4.1788223e-01
-4.1817393e-01
-3.0648077e-01
-1.7431269e-01
-1.0148991e-01
-5.7890695e-02
7.5561752e-03
8.2882520e-02
1.3488954e-01
1.5529490e-01
1.4798930e-01
1.0637370e-01
8.3345478e-02
1.3133977e-01
2.0312194e-01
2.4711125e-01
2.3650485e-01
1.5172333e-01
-7.1698844e-03
-2.0395658e-01
-3.4665193e-01
-3.7081229e-01
-2.7110798e-01
-7.9573751e-02
1.1260772e-01
2.4750905e-01
3.3962457e-01
3.8212576e-01
3.4905398e-01
2.4928367e-01
1.2532569e-01
2.1728919e-02
-3.6721536e-02
-5.3271319e-02
-7.4888299e-02
-1.2817008e-01
-1.7908797e-01
-2.1043532e-01
-2.2516984e-01
-2.1452223e-01
-1.7484439e-01
-1.1564519e-01
-5.9558709e-02
-2.4236441e-02
-3.7113588e-03
1.3083665e-02
2.9533474e-02
4.6572612e-02
5.7744326e-02
5.5789731e-02
3.7882937e-02
2.3100988e-03
-4.1240561e-02
-8.0388639e-02
-1.1073702e-01
-1.2908477e-01
-1.3209270e-01
-1.1598556e-01
-7.5662131e-02
-5.5341866e-03
9.5199746e-02
1.9524278e-01
2.0970288e-01
1.1755004e-01
1.9363143e-02
-2.2749981e-02
-1.7722513e-02
3.5401268e-02
1.0692985e-01
1.2413134e-01
6.9230195e-02
-1.0166593e-02
-7.2715032e-02
-9.9274153e-02
-8.6654099e-02
-4.5466189e-02
8.2264163e-03
4.1980001e-02
3.1933959e-02
-9.8862324e-03
-6.5014336e-02
-1.1345996e-01
-1.3478066e-01
-1.2236698e-01
-7.8711434e-02
-1.7371203e-03
1.1555489e-01
2.0036905e-01
1.6388195e-01
6.5034301e-02
-1.4185676e-02
-5.9421521e-02
-6.7668399e-02
-4.1294737e-02
1.3184138e-02
6.8785901e-02
1.0866920e-01
1.3344917e-01
1.1177832e-01
3.9575620e-02
-3.1765816e-02
-7.5318634e-02
-9.8002917e-02
-1.0714586e-01
-1.0499076e-01
-9.7184510e-02
-9.0050497e-02
-7.7264461e-02
-4.9070404e-02
-2.3900416e-02
-3.6647627e-02
-7.9903939e-02
-1.1062895e-01
-9.7270693e-02
-2.5662032e-02
1.0516908e-01
2.4805627e-01
3.0306137e-01
2.3104489e-01
1.1080718e-01
3.2353557e-02
1.9397968e-02
3.1541936e-02
1.1909560e-02
-2.9107875e-02
-4.8544034e-02
-5.7424618e-02
-8.1211984e-02
-1.0636415e-01
-1.1086037e-01
-8.3577282e-02
-4.0289692e-02
-1.3541173e-02
2.9609652e-03
3.5639838e-02
8.7833824e-02
1.5745228e-01
1.8250578e-01
1.0410640e-01
-2.5869889e-03
-8.0417183e-02
-1.4094209e-01
-1.7862999e-01
-1.8827949e-01
-1.7098012e-01
-1.3525766e-01
-8.8199365e-02
-2.0735009e-02
7.4012918e-02
1.7407194e-01
2.0605142e-01
1.2517897e-01
1.0739429e-03
-8.9838536e-02
-1.3068560e-01
-1.1927217e-01
-5.4184239e-02
6.4044518e-02
1.9140456e-01
2.3617379e-01
1.9766105e-01
1.7996890e-01
1.6621962e-01
7.7237807e-02
-3.0054604e-02
-9.3959392e-02
-1.1877482e-01
-1.0845616e-01
-7.4777516e-02
-4.3156965e-02
-2.8801588e-02
-2.6194521e-02
-2.8520087e-02
-3.2722785e-02
-3.2874577e-02
-2.9912427e-02
-3.3541416e-02
-4.5125450e-02
-5.8190806e-02
-6.6701099e-02
-6.9317350e-02
-6.9724151e-02
-6.6564768e-02
-5.1623673e-02
-1.7369684e-02
4.0264043e-02
1.2320418e-01
1.6943522e-01
1.1907058e-01
3.6397818e-02
-1.6686316e-02
-4.0169744e-02
-3.9451930e-02
-2.6073873e-02
-1.6692548e-02
-1.0758291e-02
1.1401461e-02
4.9200117e-02
6.5886352e-02
3.1271760e-02
-3.0875075e-02
-8.3445769e-02
-1.1141715e-01
-1.1047894e-01
-8.2340378e-02
-2.5880819e-02
5.1932534e-02
9.8532773e-02
8.0562943e-02
5.2159203e-02
6.1908460e-02
1.1593324e-01
1.4534113e-01
7.3489500e-02
-3.5266728e-02
-1.0469984e-01
-1.3162019e-01
-1.2272606e-01
-8.2620103e-02
-3.2368703e-02
8.4777977e-03
5.8699762e-02
1.3538581e-01
1.8828752e-01
1.4980409e-01
5.6248130e-02
-2.0484471e-02
-6.6715652e-02
-8.7566746e-02
-9.6490508e-02
-1.0819006e-01
-1.1730800e-01
-1.1441558e-01
-9.6019147e-02
-5.7394487e-02
5.2633673e-03
9.1906011e-02
1.3221290e-01
6.1376108e-02
-3.9010589e-02
-8.9287919e-02
-9.5291984e-02
-8.6334408e-02
-8.6298366e-02
-6.9842855e-02
7.7200041e-03
1.5900831e-01
3.1901354e-01
3.6695409e-01
2.8895315e-01
1.7177136e-01
4.9946355e-02
-6.6523954e-02
-1.4854616e-01
-1.8848616e-01
-2.0560851e-01
-2.1635438e-01
-2.1534560e-01
-1.9395075e-01
-1.4708723e-01
-6.2762339e-02
6.8299597e-02
1.8473193e-01
2.2691713e-01
2.5480687e-01
2.6101374e-01
1.7661514e-01
5.8591776e-02
-3.0215358e-02
-9.3489686e-02
-1.2928344e-01
-1.3521360e-01
-1.2729308e-01
-1.1724908e-01
-1.0501313e-01
-8.9810104e-02
-7.0077176e-02
-5.2114775e-02
-5.4516548e-02
-7.2772961e-02
-6.5958408e-02
-1.0921437e-02
7.9428363e-02
1.4724550e-01
1.5539076e-01
1.4805973e-01
1.5709504e-01
1.4602394e-01
8.6297433e-02
3.4322663e-02
1.0618559e-02
-2.9502903e-02
-7.8139761e-02
-1.0605044e-01
-1.0344531e-01
-7.6645509e-02
-4.2874278e-02
-4.1555464e-03
2.9320273e-02
2.3072254e-02
-2.0127939e-02
-6.1072182e-02
-8.1087334e-02
-8.8428190e-02
-9.3624940e-02
-1.0717464e-01
-1.3104720e-01
-1.3503050e-01
-8.9185412e-02
1.4368278e-02
1.2070823e-01
1.5410599e-01
1.5974663e-01
2.2798951e-01
3.2669361e-01
3.2193616e-01
1.8512293e-01
2.7943935e-02
-8.0683482e-02
-1.2838358e-01
-1.3514523e-01
-1.4743879e-01
-1.6340135e-01
-1.5035048e-01
-9.4656714e-02
-2.0705437e-02
1.3418335e-02
-5.6631708e-03
-2.4053030e-02
-8.9868536e-04
7.3693696e-02
1.6927756e-01
1.9216680e-01
1.1561384e-01
2.6851173e-02
-3.1891570e-02
-7.4967224e-02
-9.6732474e-02
-9.3210563e-02
-8.0172479e-02
-6.8500441e-02
-4.6232067e-02
-8.6102085e-03
3.2980802e-02
5.0218192e-02
2.7262673e-02
1.8889532e-03
1.0396365e-03
1.6611468e-02
2.5868441e-02
-7.9419961e-04
-5.4871853e-02
-1.0354733e-01
-1.3166826e-01
-1.3476466e-01
-1.2636322e-01
-1.2105504e-01
-9.7583412e-02
-5.1149411e-02
-4.6125069e-03
6.1834214e-02
1.9388986e-01
3.4107995e-01
3.9347538e-01
3.0683650e-01
1.1983932e-01
-5.3351127e-02
-1.4359279e-01
-1.7970917e-01
-2.0341911e-01
-2.1235854e-01
-1.7307747e-01
-6.9847677e-02
5.5147666e-02
1.0131483e-01
5.7377505e-02
3.1542936e-02
8.6189328e-02
1.6890511e-01
1.7022457e-01
8.2795204e-02
1.3003560e-02
9.8197993e-03
4.4175845e-03
-8.0539383e-02
-2.0654152e-01
-2.9814425e-01
-3.3246918e-01
-3.2123355e-01
-2.7587106e-01
-1.7065537e-01
-2.2768870e-02
8.4542285e-02
1.2821025e-01
1.3822986e-01
1.1654346e-01
6.4052316e-02
2.1050987e-02
4.6378342e-02
1.3867365e-01
2.4079335e-01
3.3496959e-01
4.2139176e-01
4.7423445e-01
4.7749889e-01
4.1699050e-01
2.7173779e-01
5.1975513e-02
-1.7687529e-01
-3.3672159e-01
-4.0774210e-01
-4.0933028e-01
-3.5792465e-01
-2.7524810e-01
-1.9507967e-01
-1.3397085e-01
-7.4204890e-02
-1.5626655e-03
5.4311317e-02
5.4097691e-02
1.8286019e-02
-7.4139356e-03
-1.4495225e-02
-1.2136425e-02
1.1306717e-02
6.7943570e-02
1.1571202e-01
9.8540554e-02
2.4376364e-02
-6.0347252e-02
-1.2471242e-01
-1.5921420e-01
-1.5685331e-01
-1.0769022e-01
-2.0848023e-02
7.9967033e-02
1.8557776e-01
2.5709222e-01
2.5178393e-01
1.9121502e-01
8.5671576e-02
-5.0854221e-02
-1.6449224e-01
-2.3390998e-01
-2.6781419e-01
-2.6680278e-01
-2.3811550e-01
-1.9800792e-01
-1.3801407e-01
-2.7987595e-02
1.4008189e-01
3.0432011e-01
3.8859618e-01
3.9679631e-01
3.6768990e-01
2.8678775e-01
1.3516466e-01
-2.7160779e-02
-1.3869744e-01
-1.9650921e-01
-2.1450836e-01
-2.0788475e-01
-1.8633818e-01
-1.4928010e-01
-1.0802003e-01
-7.3193068e-02
-2.6280073e-02
3.3040779e-02
7.2360548e-02
8.2661921e-02
8.9259385e-02
1.1362298e-01
1.3761027e-01
1.2325483e-01
6.7650338e-02
3.1740116e-03
-4.1596942e-02
-5.9443617e-02
-7.2087071e-02
-9.8358134e-02
-1.2093736e-01
-1.2747773e-01
-1.2126409e-01
-9.6957885e-02
-4.9575951e-02
1.8106060e-02
1.0016129e-01
1.5637007e-01
1.3948271e-01
7.9384324e-02
2.9465938e-02
-2.5227328e-03
-3.4377007e-02
-7.1042098e-02
-9.2185815e-02
-8.5422827e-02
-6.9109204e-02
-6.2303907e-02
-4.6951244e-02
7.0137670e-04
8.5275831e-02
1.6457345e-01
1.6736005e-01
1.0548781e-01
4.4277319e-02
1.4652942e-02
2.1126930e-02
2.4654328e-02
-1.2752548e-02
-5.9620005e-02
-8.3746903e-02
-9.6237473e-02
-1.0733452e-01
-1.0361894e-01
-7.3889427e-02
-1.8420890e-02
5.1395044e-02
9.6530007e-02
1.0442719e-01
9.8068923e-02
8.2048862e-02
5.5032685e-02
1.9084337e-02
-1.3350136e-02
-2.7148605e-02
-3.7274733e-02
-5.8498082e-02
-7.5005617e-02
-7.7256479e-02
-7.2299158e-02
-6.5088845e-02
-4.8730057e-02
-1.0650416e-02
4.8877227e-02
1.1346867e-01
1.4857136e-01
1.2455584e-01
5.9258578e-02
-2.4776474e-03
-4.3752883e-02
-6.8895168e-02
-8.0708445e-02
-8.3570263e-02
-7.9044412e-02
-6.5324345e-02
-4.2254054e-02
-7.6407489e-03
1.5548383e-02
1.6962779e-03
-2.1063767e-02
-2.0820850e-02
3.1382211e-03
1.9370536e-02
-9.8241124e-03
-5.9794882e-02
-8.6893274e-02
-8.0339298e-02
-3.7209310e-02
4.2511012e-02
1.3225618e-01
2.0063681e-01
2.5036741e-01
2.4002374e-01
1.3712728e-01
2.3142670e-02
-3.8452835e-02
-5.1025359e-02
-3.3924328e-02
-2.1966089e-02
-2.7077516e-02
-3.1419892e-02
-3.7928400e-02
-5.5438323e-02
-6.9394299e-02
-7.3480967e-02
-7.2915742e-02
-6.7852065e-02
-5.9340019e-02
-5.2426017e-02
-4.9679956e-02
-4.7665331e-02
-3.8596073e-02
-1.6881091e-02
1.0621901e-02
3.5186343e-02
6.4120647e-02
1.1336525e-01
1.4271501e-01
1.0043394e-01
3.2541031e-02
-1.0578610e-02
-3.1935553e-02
-3.8890763e-02
-4.2874841e-02
-5.0615239e-02
-5.4625226e-02
-4.7654533e-02
-2.8929656e-02
8.6635835e-04
3.7476829e-02
6.0618563e-02
5.9449096e-02
4.3895005e-02
1.7879997e-02
-4.2496764e-03
-9.6603429e-03
-2.4895074e-03
1.3434624e-04
-1.4813615e-02
-3.0246502e-02
-3.0613837e-02
-1.9193218e-02
-6.0388026e-03
1.1274077e-03
5.8473753e-03
1.3780379e-02
1.8228993e-02
9.8902885e-03
-4.4464837e-03
-1.7740588e-02
-3.1192854e-02
-4.2949925e-02
-5.2000593e-02
-5.6540658e-02
-5.2241485e-02
-3.8430718e-02
-1.5972538e-02
4.3231908e-04
1.6586395e-03
1.0539204e-02
4.6937549e-02
1.1129871e-01
1.4850080e-01
1.1078334e-01
5.2729392e-02
2.1197463e-02
1.3274020e-02
-1.5722347e-04
-4.5694718e-02
-9.5068485e-02
-1.2424864e-01
-1.3466965e-01
-1.2734750e-01
-1.0703613e-01
-7.6525511e-02
-3.2455452e-02
3.4642187e-02
1.3694010e-01
2.3600973e-01
2.4341448e-01
1.5839080e-01
6.7516822e-02
1.5010399e-02
-8.5904640e-03
-3.2796875e-02
-6.8400514e-02
-9.5910554e-02
-1.0565009e-01
-9.7407484e-02
-7.1565387e-02
-3.1528555e-02
2.3504031e-02
6.4693979e-02
6.0479436e-02
3.7836700e-02
2.2140088e-02
1.3000120e-02
6.5983445e-03
-4.6014186e-03
-1.6305160e-02
-2.3072411e-02
-2.2560123e-02
-1.9243949e-02
-2.0179460e-02
-2.1946642e-02
-2.3655854e-02
-2.4231327e-02
-2.0681548e-02
-1.1654030e-02
-7.9767137e-03
-2.5285130e-02
-5.0075951e-02
-6.2776934e-02
-5.9895396e-02
-3.5401941e-02
1.5597291e-02
9.1457851e-02
1.3092236e-01
7.5115030e-02
-1.1466467e-02
-6.2050507e-02
-7.7319384e-02
-6.3031175e-02
-1.5500142e-02
6.7242941e-02
1.4219506e-01
1.3305497e-01
4.0835466e-02
-6.0086132e-02
-1.2852817e-01
-1.6036828e-01
-1.5311690e-01
-1.0003836e-01
-4.5795495e-02
-6.5339920e-02
-1.3086056e-01
-1.4754234e-01
-6.7093162e-02
7.6966905e-02
1.9128413e-01
2.4126925e-01
2.7257442e-01
2.8838845e-01
2.5374253e-01
1.5819725e-01
2.6055906e-02
-6.9380622e-02
-7.4565493e-02
-3.2561277e-02
-3.0174100e-02
-6.7184369e-02
-8.2657393e-02
-7.2901284e-02
-8.2191119e-02
-1.1438318e-01
-1.0239498e-01
-2.5912257e-03
1.6043581e-01
3.0618222e-01
3.4059437e-01
2.5153139e-01
1.1039905e-01
-1.1781282e-02
-8.8674606e-02
-1.3086325e-01
-1.5770716e-01
-1.7517512e-01
-1.8717284e-01
-1.9869674e-01
-2.0443343e-01
-2.0279282e-01
-2.0154412e-01
-1.9969353e-01
-1.8905741e-01
-1.8363488e-01
-1.9345670e-01
-1.9084398e-01
-1.4260594e-01
-4.8396393e-02
5.5002886e-02
1.3652178e-01
1.9247943e-01
2.3091790e-01
2.4275559e-01
2.2045602e-01
1.8368697e-01
1.4736951e-01
1.1159235e-01
7.9554745e-02
4.8740577e-02
-1.5079076e-03
-7.7889131e-02
-1.0905851e-01
-3.7623625e-02
5.9818341e-02
1.1715732e-01
1.4227086e-01
1.4110717e-01
1.1779274e-01
8.8835646e-02
7.7586734e-02
8.4175320e-02
1.0074249e-01
1.2555493e-01
1.4003952e-01
1.2731443e-01
9.1123603e-02
4.2659231e-02
-1.9028253e-02
-1.2129047e-01
-2.4566631e-01
-3.0204421e-01
-2.5336471e-01
-1.1455723e-01
8.0056167e-02
2.2406747e-01
2.2409670e-01
1.2088069e-01
2.3783094e-02
-3.9115210e-02
-8.9238577e-02
-1.2244729e-01
-1.4088840e-01
-1.5060690e-01
-1.5821517e-01
-1.7210274e-01
-1.9233761e-01
-2.2101096e-01
-2.5780552e-01
-2.9028007e-01
-2.9717170e-01
-2.5454770e-01
-1.4580749e-01
3.3568115e-02
2.7253545e-01
5.0787415e-01
6.5304008e-01
6.7508546e-01
5.7683001e-01
3.8879639e-01
1.9272291e-01
7.1330686e-02
-5.0519887e-04
-1.0272281e-01
-2.1415365e-01
-2.8378884e-01
-3.1750010e-01
-3.2995765e-01
-3.2817931e-01
-3.2106390e-01
-3.1742602e-01
-3.1572959e-01
-3.0378570e-01
-2.6641067e-01
-1.8657398e-01
-4.6533694e-02
1.6582272e-01
4.1345171e-01
5.9330814e-01
6.1704754e-01
4.7525038e-01
2.1312717e-01
-8.2407648e-02
-3.0042744e-01
-3.8465008e-01
-3.3737087e-01
-2.1331079e-01
-1.1100656e-01
-8.0637653e-02
-1.0387176e-01
-1.2015825e-01
-7.4709871e-02
2.9746492e-02
1.5179439e-01
2.4308479e-01
2.7927329e-01
2.6740276e-01
2.2773991e-01
1.6449265e-01
7.3962135e-02
-2.5967599e-02
-1.1628467e-01
-1.6742262e-01
-1.3966088e-01
-5.2125038e-02
1.6706827e-02
2.8267342e-02
3.8439017e-02
9.8890877e-02
1.6675292e-01
1.7228494e-01
1.0247436e-01
2.6387790e-02
-1.0786969e-02
-7.2893582e-02
-1.9626508e-01
-3.2915378e-01
-3.9311314e-01
-3.5057371e-01
-2.4981192e-01
-1.4192448e-01
-3.1939173e-02
7.2742912e-02
1.5672207e-01
2.1357337e-01
2.3826198e-01
2.2959054e-01
1.9815747e-01
1.6078976e-01
1.2554360e-01
9.3332810e-02
6.3923973e-02
2.8552457e-02
-1.5615896e-02
-6.6472416e-02
-1.3041567e-01
-2.0493907e-01
-2.2512915e-01
-1.4226277e-01
-2.7409695e-02
5.8985217e-02
1.1853697e-01
1.5145397e-01
1.6279335e-01
1.5958105e-01
1.4475900e-01
1.1950297e-01
8.7233175e-02
5.3980346e-02
3.0153255e-02
2.1596791e-02
1.0972925e-02
2.2798251e-03
3.1959680e-02
9.9655942e-02
1.5730255e-01
1.5363862e-01
7.7453013e-02
-4.8957933e-02
-1.8957706e-01
-2.9248954e-01
-3.2115694e-01
-2.7285026e-01
-1.6058635e-01
-2.0738739e-02
5.9355381e-02
1.8738940e-03
-1.5128140e-01
-2.8516944e-01
-3.3404855e-01
-2.9044487e-01
-1.5465615e-01
6.4759241e-02
3.1434552e-01
5.1353147e-01
6.0493308e-01
5.6841361e-01
4.0026297e-01
1.3120660e-01
-1.4428782e-01
-3.3703145e-01
-4.3230594e-01
-4.6530194e-01
-4.7232383e-01
-4.5515733e-01
-4.0338157e-01
-3.0732105e-01
-1.1771382e-01
1.5708198e-01
4.0750924e-01
5.6625335e-01
6.2923697e-01
6.0355165e-01
5.1265663e-01
3.8239086e-01
2.1248190e-01
-5.4158383e-03
-2.2959853e-01
-3.8516604e-01
-4.5937729e-01
-4.7267401e-01
-4.4378726e-01
-4.1377911e-01
-3.6639411e-01
-2.3898715e-01
-1.9670837e-02
2.3596352e-01
4.5104162e-01
5.7848628e-01
6.0366698e-01
5.1591087e-01
3.1186782e-01
6.2787918e-02
-1.6292243e-01
-3.6747736e-01
-5.1000877e-01
-5.4848251e-01
-4.8668547e-01
-3.2546855e-01
-6.6115687e-02
2.3861463e-01
4.7087938e-01
5.4966283e-01
4.6158749e-01
2.5727634e-01
5.4811952e-02
-5.8094032e-02
-7.6911603e-02
-4.1974758e-02
-2.8348076e-02
-9.2677552e-02
-1.9870552e-01
-2.8183522e-01
-3.2436984e-01
-3.4274379e-01
-3.4527397e-01
-3.0517307e-01
-1.9742236e-01
-1.5873879e-02
2.3403785e-01
4.7887069e-01
5.9977325e-01
5.4429372e-01
3.2470147e-01
1.8821359e-02
-2.4833015e-01
-4.1052634e-01
-4.6054164e-01
-4.0146992e-01
-2.3265387e-01
3.2592508e-02
3.0206804e-01
4.4972884e-01
4.4157016e-01
3.1362963e-01
1.1504489e-01
-8.0206156e-02
-2.1321734e-01
-2.7184492e-01
-2.4987548e-01
-1.5080236e-01
-1.8754881e-02
8.4107678e-02
1.1273408e-01
5.8838763e-02
-3.4032376e-02
-1.2779707e-01
-2.0911790e-01
-2.2545158e-01
-1.3327164e-01
4.7682964e-02
2.4683407e-01
3.7791535e-01
3.9057462e-01
2.9656731e-01
1.5279214e-01
2.0819688e-02
-4.8991955e-02
-5.0304679e-02
-3.2892713e-02
-6.3116486e-02
-1.4629646e-01
-2.1285523e-01
-2.2528763e-01
-1.8812269e-01
-1.0294791e-01
2.5692769e-02
1.6721057e-01
2.3508719e-01
1.7797793e-01
6.2017720e-02
-3.3346397e-02
-9.0955550e-02
-1.1589516e-01
-1.1175286e-01
-8.1166970e-02
-3.6177901e-02
3.6406941e-03
3.3442064e-02
6.2502183e-02
9.9404396e-02
1.1811293e-01
8.9576346e-02
3.6646514e-02
-2.0024563e-02
-8.2197938e-02
-1.5194775e-01
-2.3042252e-01
-3.0836725e-01
-3.7251583e-01
-4.1399829e-01
-4.2284925e-01
-4.4884245e-01
-5.3386064e-01
-5.7886236e-01
-4.7909392e-01
-2.6090113e-01
-1.9963623e-02
