5.3967818e-02
1.2286099e-01
1.9683554e-01
2.8568190e-01
4.0554465e-01
5.5570145e-01
6.9940611e-01
7.5896512e-01
6.6233420e-01
4.1617625e-01
1.0777448e-01
-1.6384857e-01
-3.4260289e-01
-4.2303389e-01
-4.2960229e-01
-3.8974618e-01
-3.2325209e-01
-2.3950322e-01
-1.3830109e-01
-2.0749901e-02
9.9327470e-02
1.9128221e-01
2.1718462e-01
1.5632956e-01
3.0586651e-02
-1.0328113e-01
-1.8806022e-01
-1.8832917e-01
-9.9918471e-02
4.6095279e-02
1.9247325e-01
2.8321023e-01
2.9740088e-01
2.5584377e-01
1.9448135e-01
1.3463373e-01
7.4588476e-02
2.6474260e-03
-8.4237958e-02
-1.7069800e-01
-2.3352427e-01
-2.5763402e-01
-2.3799690e-01
-1.7712674e-01
-8.9361044e-02
-4.6979439e-03
4.4053270e-02
4.0412497e-02
-4.5478582e-03
-5.2709148e-02
-6.3276299e-02
-1.6341705e-02
7.7479142e-02
1.7133496e-01
2.0816588e-01
1.6289420e-01
5.7943163e-02
-5.0879061e-02
-1.1036035e-01
-9.9837170e-02
-3.8521758e-02
2.6524182e-02
5.3488701e-02
3.7094177e-02
4.7359718e-03
-1.1138956e-02
6.0572332e-03
4.9689078e-02
9.7704458e-02
1.2477895e-01
1.1537548e-01
7.4982164e-02
2.0964470e-02
-2.9570037e-02
-6.5510723e-02
-9.0068292e-02
-1.1402468e-01
-1.4255350e-01
-1.7165854e-01
-1.9280041e-01
-2.0187206e-01
-1.9744249e-01
-1.7643573e-01
-1.3554997e-01
-7.3341800e-02
8.3250311e-03
1.0301739e-01
1.9831559e-01
2.8144265e-01
3.4164237e-01
3.6782349e-01
3.5251148e-01
2.9618329e-01
2.0645659e-01
9.3778354e-02
-2.6595133e-02
-1.3327292e-01
-2.1030963e-01
-2.5205927e-01
-2.5720247e-01
-2.2905324e-01
-1.7495570e-01
-1.0695114e-01
-4.3989488e-02
-2.8006000e-03
1.1953916e-02
9.0310404e-03
-1.2325433e-03
-1.6740153e-02
-4.0261816e-02
-7.5105126e-02
-1.1820184e-01
-1.5743646e-01
-1.7363788e-01
-1.4854894e-01
-7.6126694e-02
3.7309367e-02
1.7153458e-01
2.9437174e-01
3.7806154e-01
4.1136660e-01
3.9385127e-01
3.2460302e-01
2.0726841e-01
6.3706341e-02
-7.2299341e-02
-1.7468640e-01
-2.3182849e-01
-2.4456147e-01
-2.2473385e-01
-1.8921660e-01
-1.5366293e-01
-1.3081451e-01
-1.2325447e-01
-1.2274222e-01
-1.2173478e-01
-1.1763735e-01
-1.0804346e-01
-9.0782879e-02
-6.7921040e-02
-4.0569405e-02
-2.1337612e-03
6.1451040e-02
1.6508654e-01
3.0811843e-01
4.5679657e-01
5.4846088e-01
5.2455536e-01
3.7271515e-01
1.3915773e-01
-1.0004141e-01
-2.8341937e-01
-3.8876996e-01
-4.2207321e-01
-3.9995762e-01
-3.3986918e-01
-2.5575959e-01
-1.6148222e-01
-7.0532127e-02
8.0074117e-03
7.1925995e-02
1.3066549e-01
1.9635519e-01
2.5624132e-01
2.7288555e-01
2.1443004e-01
8.2314446e-02
-8.0029565e-02
-2.1465019e-01
-2.8115827e-01
-2.6409728e-01
-1.6463919e-01
1.6041075e-03
1.9395741e-01
3.5040940e-01
4.1284313e-01
3.6196796e-01
2.3009056e-01
6.6849913e-02
-9.8894008e-02
-2.4517441e-01
-3.4155295e-01
-3.7220970e-01
-3.3949430e-01
-2.5971000e-01
-1.6181829e-01
-7.4984929e-02
-2.0993292e-02
3.7744835e-04
1.9332938e-02
7.3952411e-02
1.8060407e-01
3.2333291e-01
4.5452394e-01
5.0487046e-01
4.2595270e-01
2.3184165e-01
-1.2779005e-02
-2.3355183e-01
-3.8196361e-01
-4.4695599e-01
-4.3667582e-01
-3.6704364e-01
-2.6978658e-01
-1.8123594e-01
-1.0967969e-01
-2.9495495e-02
9.1394319e-02
2.6397027e-01
4.5681237e-01
5.8502607e-01
5.5466785e-01
3.5311769e-01
6.8691950e-02
-1.8257103e-01
-3.2713682e-01
-3.5008794e-01
-2.7486083e-01
-1.5450726e-01
-6.4470964e-02
-5.7380846e-02
-1.2229185e-01
-2.0050722e-01
-2.3535582e-01
-2.0056092e-01
-8.7334391e-02
1.0502333e-01
3.3741289e-01
5.1018262e-01
5.1972240e-01
3.4927743e-01
8.6352803e-02
-1.5174480e-01
-2.9105930e-01
-3.1308401e-01
-2.3651677e-01
-1.1127866e-01
-1.3281460e-02
-9.8412861e-04
-6.5688308e-02
-1.4213550e-01
-1.6269369e-01
-8.8613844e-02
8.4816819e-02
3.0922788e-01
4.7298621e-01
4.6088728e-01
2.5789128e-01
-2.7812667e-02
-2.6290283e-01
-3.7874889e-01
-3.6534457e-01
-2.3947682e-01
-3.9721347e-02
1.6529679e-01
2.8862353e-01
2.7981493e-01
1.6282042e-01
1.2689482e-02
-9.9734153e-02
-1.4487933e-01
-1.2433732e-01
-5.6512162e-02
2.0422259e-02
5.6743342e-02
1.6397521e-02
-9.3401671e-02
-2.2440585e-01
-3.2001835e-01
-3.4307374e-01
-2.8324147e-01
-1.4203440e-01
6.8764758e-02
3.0929885e-01
5.0531363e-01
5.7667644e-01
4.9761649e-01
3.2021655e-01
1.2988852e-01
-1.0476565e-02
-8.2106193e-02
-1.0321516e-01
-1.1251175e-01
-1.4398368e-01
-2.0265649e-01
-2.6858632e-01
-3.1647027e-01
-3.2852149e-01
-3.0090651e-01
-2.4223479e-01
-1.6951652e-01
-9.9570991e-02
-3.5580673e-02
3.7592584e-02
1.4192535e-01
2.8844890e-01
4.5464317e-01
5.6840018e-01
5.4455409e-01
3.5618525e-01
6.7867092e-02
-2.0711172e-01
-3.8372900e-01
-4.3747333e-01
-3.8778765e-01
-2.6941935e-01
-1.1627464e-01
4.1365515e-02
1.8050719e-01
2.8320289e-01
3.2671865e-01
2.8758762e-01
1.6266421e-01
-1.4337913e-02
-1.7991830e-01
-2.7894042e-01
-2.9325558e-01
-2.2967452e-01
-1.0588978e-01
4.1015908e-02
1.5114888e-01
1.7163166e-01
1.0034403e-01
-1.1653123e-02
-1.0405817e-01
-1.3769107e-01
-9.5128574e-02
1.1310793e-02
1.2762843e-01
1.7841644e-01
1.2228174e-01
-1.1387730e-02
-1.4799582e-01
-2.2189293e-01
-2.0341721e-01
-9.1977168e-02
8.6318199e-02
2.7396607e-01
3.9643628e-01
3.9990918e-01
2.8800250e-01
1.1464774e-01
-5.3146432e-02
-1.7027000e-01
-2.2806575e-01
-2.4120134e-01
-2.3374848e-01
-2.2736936e-01
-2.2872783e-01
-2.3012497e-01
-2.1689377e-01
-1.7460371e-01
-9.5149602e-02
2.4046080e-02
1.7743662e-01
3.4123235e-01
4.6856678e-01
5.0119589e-01
4.0173392e-01
1.7711157e-01
-9.0488363e-02
-2.8519829e-01
-3.6652008e-01
-3.5129055e-01
-2.6245203e-01
-1.3099383e-01
4.7809590e-03
9.9506913e-02
1.2844582e-01
1.0910878e-01
7.9358994e-02
6.8960396e-02
8.7554024e-02
1.2198838e-01
1.4477353e-01
1.3230633e-01
7.7495214e-02
-1.0512348e-02
-1.0988492e-01
-1.9659692e-01
-2.5359785e-01
-2.6959736e-01
-2.3994040e-01
-1.6499819e-01
-4.9761884e-02
9.1480908e-02
2.2864176e-01
3.1911355e-01
3.3227059e-01
2.6765532e-01
1.5208329e-01
2.3720645e-02
-8.6595853e-02
-1.6261637e-01
-2.0209961e-01
-2.1498523e-01
-2.1535160e-01
-2.1265200e-01
-2.0720119e-01
-1.8858558e-01
-1.4148857e-01
-5.2162100e-02
8.5845037e-02
2.6263364e-01
4.3882890e-01
5.4346547e-01
5.1119603e-01
3.3725972e-01
8.8147982e-02
-1.4845905e-01
-3.1481516e-01
-3.9344996e-01
-3.9561619e-01
-3.4481115e-01
-2.6453568e-01
-1.7520233e-01
-9.2033020e-02
-1.9988936e-02
4.5241371e-02
1.1016905e-01
1.8001350e-01
2.5421706e-01
3.2066616e-01
3.5924063e-01
3.4869003e-01
2.7403299e-01
1.4019866e-01
-2.3684203e-02
-1.7751357e-01
-2.8926533e-01
-3.4544729e-01
-3.4942682e-01
-3.1529279e-01
-2.5952212e-01
-1.9853495e-01
-1.4871700e-01
-1.1651440e-01
-9.3751665e-02
-6.4997713e-02
-1.2925135e-02
7.9953360e-02
2.2402007e-01
4.0736376e-01
5.8131620e-01
6.5866285e-01
5.6150598e-01
2.9769758e-01
-3.3325460e-02
-3.1094250e-01
-4.6752373e-01
-4.9860310e-01
-4.2240829e-01
-2.7145484e-01
-1.0160790e-01
2.6209597e-02
8.0544145e-02
7.9550143e-02
6.9150857e-02
8.4792667e-02
1.3366568e-01
1.9349129e-01
2.2343938e-01
1.9028467e-01
9.4129539e-02
-3.3344795e-02
-1.5225172e-01
-2.3261945e-01
-2.6249584e-01
-2.4674779e-01
-2.0122738e-01
-1.4549974e-01
-9.3741533e-02
-4.7978345e-02
3.4149020e-03
7.4748989e-02
1.7119409e-01
2.8194727e-01
3.7186872e-01
3.9363290e-01
3.2246368e-01
1.7791589e-01
9.9272963e-03
-1.3458447e-01
-2.3133272e-01
-2.7880925e-01
-2.8834637e-01
-2.7203736e-01
-2.3999648e-01
-2.0153308e-01
-1.6365492e-01
-1.2987914e-01
-9.7583669e-02
-5.4189803e-02
2.0172312e-02
1.3809054e-01
2.9226196e-01
4.4500927e-01
5.2434539e-01
4.6205983e-01
2.5481240e-01
-1.9573521e-02
-2.5900049e-01
-4.0385313e-01
-4.4231432e-01
-3.8693962e-01
-2.5712583e-01
-7.5697816e-02
1.2048169e-01
2.8487375e-01
3.7605425e-01
3.7412657e-01
2.9117232e-01
1.6101813e-01
2.2591802e-02
-9.2957112e-02
-1.7139590e-01
-2.1335393e-01
-2.2563868e-01
-2.1812182e-01
-2.0244011e-01
-1.8712735e-01
-1.7535132e-01
-1.6459540e-01
-1.4346679e-01
-9.3605087e-02
3.4834145e-03
1.5542246e-01
3.3831508e-01
4.8590012e-01
5.1791949e-01
4.0363737e-01
1.9357097e-01
-2.0024706e-02
-1.6690939e-01
-2.2825983e-01
-2.1897150e-01
-1.6909721e-01
-1.2074198e-01
-1.1689681e-01
-1.8170210e-01
-2.7670762e-01
-3.2418005e-01
-2.9711739e-01
-2.0614247e-01
-5.8999952e-02
1.3336254e-01
3.4514086e-01
5.1801112e-01
5.8278415e-01
5.0603351e-01
3.0858359e-01
4.9475029e-02
-1.9907983e-01
-3.7915650e-01
-4.6597616e-01
-4.5731113e-01
-3.6206129e-01
-1.9309294e-01
3.2193910e-02
2.7523980e-01
4.7255329e-01
5.5284910e-01
4.7281601e-01
2.5403715e-01
-1.7159677e-02
-2.4468660e-01
-3.7474837e-01
-3.9648982e-01
-3.2773661e-01
-2.1091877e-01
-1.0644253e-01
-6.1749829e-02
-7.2813969e-02
-9.2197497e-02
-7.4841354e-02
5.8217747e-03
1.5955287e-01
3.6088343e-01
5.3137182e-01
5.6386598e-01
4.0957086e-01
1.3255111e-01
-1.4790916e-01
-3.4598755e-01
-4.3744100e-01
-4.3754605e-01
-3.7406036e-01
-2.7081529e-01
-1.4312234e-01
-1.4588108e-04
1.4078381e-01
2.4463389e-01
2.8001892e-01
2.4496075e-01
1.7100615e-01
1.0045836e-01
5.6159956e-02
3.0364261e-02
-7.2559762e-03
-8.1068285e-02
-1.7731550e-01
-2.5255045e-01
-2.7180671e-01
-2.2084827e-01
-9.9322986e-02
8.1552179e-02
2.8367048e-01
4.2976937e-01
4.4816257e-01
3.3060207e-01
1.3289401e-01
-7.2647894e-02
-2.3832296e-01
-3.4712087e-01
-4.0164315e-01
-4.1184382e-01
-3.8792595e-01
-3.3648579e-01
-2.5889022e-01
-1.5034422e-01
-1.8015485e-03
1.9550545e-01
4.3153852e-01
6.5146401e-01
7.6775400e-01
7.0728115e-01
4.5984860e-01
1.0097951e-01
-2.4266296e-01
-4.7462297e-01
-5.7115867e-01
-5.5262197e-01
-4.4824189e-01
-2.7854128e-01
-7.0209359e-02
1.1249917e-01
1.9430728e-01
1.5274186e-01
3.9845140e-02
-5.9642837e-02
-8.1811782e-02
-1.2156133e-03
1.6995722e-01
3.7782696e-01
5.2294954e-01
5.0350476e-01
3.0003633e-01
-2.6985448e-05
-2.7098653e-01
-4.3217873e-01
-4.6617553e-01
-3.9244429e-01
-2.5717856e-01
-1.2214008e-01
-3.2069453e-02
1.1973025e-02
4.2467322e-02
9.6826725e-02
1.9284672e-01
3.0364963e-01
3.6072375e-01
3.0164834e-01
1.2787121e-01
-9.1767699e-02
-2.7688299e-01
-3.8566879e-01
-4.1879675e-01
-3.9212489e-01
-3.1706016e-01
-1.9513879e-01
-2.2759978e-02
2.0054937e-01
4.5502016e-01
6.7229830e-01
7.4393290e-01
5.9932550e-01
2.8452190e-01
-6.7566459e-02
-3.3531785e-01
-4.6454100e-01
-4.6525043e-01
-3.7560871e-01
-2.4273221e-01
-1.1818067e-01
-3.7523793e-02
-3.5416162e-03
1.0716348e-02
3.5572446e-02
8.1772065e-02
1.3452078e-01
1.5630535e-01
1.1166843e-01
6.3098557e-03
-1.1143592e-01
-1.9150635e-01
-2.0239419e-01
-1.3070420e-01
1.6412643e-02
1.9278718e-01
3.0906686e-01
3.0249681e-01
1.9444015e-01
5.9806802e-02
-3.3076459e-02
-5.7788408e-02
-2.9063373e-02
7.9561328e-03
2.4107411e-04
-6.9355261e-02
-1.6638064e-01
-2.3603047e-01
-2.4152474e-01
-1.7518562e-01
-4.7469292e-02
1.1318846e-01
2.5228186e-01
3.1175512e-01
2.6898438e-01
1.4416198e-01
-2.3127546e-02
-1.8247340e-01
-2.8854080e-01
-3.3118179e-01
-3.1835742e-01
-2.5727187e-01
-1.4957031e-01
7.1737934e-03
1.8511134e-01
3.1431392e-01
3.3016088e-01
2.3943920e-01
1.1997143e-01
4.8930040e-02
5.7385767e-02
1.2770409e-01
1.9979985e-01
1.9825133e-01
8.3739428e-02
-1.1155064e-01
-3.0793510e-01
-4.3521008e-01
-4.6753454e-01
-4.1758165e-01
-3.0799267e-01
-1.5567069e-01
3.2919656e-02
2.5211865e-01
4.7272318e-01
6.3522246e-01
6.6698793e-01
5.3201769e-01
2.7412368e-01
-1.0919823e-02
-2.3950941e-01
-3.7522784e-01
-4.2254171e-01
-4.0765831e-01
-3.6279045e-01
-3.1166878e-01
-2.6355665e-01
-2.1459960e-01
-1.5583752e-01
-8.5759389e-02
-1.1444020e-02
6.2685759e-02
1.4401549e-01
2.4599887e-01
3.6842433e-01
4.8371531e-01
5.3689862e-01
4.6865461e-01
2.6694823e-01
-2.1163107e-03
-2.4050800e-01
-3.8958438e-01
-4.3378961e-01
-3.7363211e-01
-2.2828239e-01
-5.6552587e-02
5.0115732e-02
4.7129067e-02
-1.4463091e-02
-5.5589418e-02
-2.9951491e-02
7.4635152e-02
2.3050034e-01
3.5862393e-01
3.6312741e-01
2.1773697e-01
-8.0420889e-03
-2.1597739e-01
-3.4233762e-01
-3.7422432e-01
-3.2697068e-01
-2.2106208e-01
-7.9312932e-02
7.1657267e-02
1.9985345e-01
2.7603050e-01
2.9061386e-01
2.5930937e-01
2.0602061e-01
1.4601926e-01
8.4592446e-02
2.1266484e-02
-4.0950898e-02
-9.3948137e-02
-1.3287042e-01
-1.5878781e-01
-1.7525532e-01
-1.8431595e-01
-1.8590194e-01
-1.8110294e-01
-1.6918258e-01
-1.4614777e-01
-1.0999060e-01
-6.1717550e-02
-9.7609150e-03
2.9448027e-02
4.3397265e-02
3.6389240e-02
3.1719624e-02
5.7368459e-02
1.3001436e-01
2.4727671e-01
3.8297243e-01
4.8253354e-01
4.8361181e-01
3.6486703e-01
1.6375183e-01
-5.4302320e-02
-2.3537488e-01
-3.5119964e-01
-3.9734635e-01
-3.8924284e-01
-3.4733284e-01
-2.8725299e-01
-2.1890683e-01
-1.4714438e-01
-8.1506154e-02
-3.3292233e-02
-2.2203216e-04
3.3797432e-02
8.7346338e-02
1.6708012e-01
2.5740804e-01
3.1831590e-01
3.0440436e-01
2.0746998e-01
7.0347180e-02
-4.9108333e-02
-1.1825817e-01
-1.4233032e-01
-1.5210730e-01
-1.7677245e-01
-2.1189816e-01
-2.2390008e-01
-1.8417315e-01
-8.0619168e-02
7.6680735e-02
2.4618271e-01
3.6917827e-01
4.0217572e-01
3.4183951e-01
2.2140243e-01
8.1163411e-02
-5.4376232e-02
-1.7682398e-01
-2.7838520e-01
-3.4037233e-01
-3.4219979e-01
-2.7179728e-01
-1.3235122e-01
4.8418017e-02
2.2012871e-01
3.2413734e-01
3.2434887e-01
2.3458594e-01
1.0576731e-01
-1.0618040e-02
-8.9063847e-02
-1.3339226e-01
-1.6185376e-01
-1.9275241e-01
-2.3020015e-01
-2.5932371e-01
-2.6266226e-01
-2.2427951e-01
-1.2789077e-01
3.4744779e-02
2.5478478e-01
4.8345467e-01
6.3551897e-01
6.4029417e-01
4.8611820e-01
2.3083587e-01
-3.3805532e-02
-2.3995492e-01
-3.6591459e-01
-4.1979445e-01
-4.2342584e-01
-3.9586052e-01
-3.3624645e-01
-2.4318007e-01
-1.3561797e-01
-4.2707485e-02
1.1013021e-02
1.5945384e-02
-1.4945008e-02
-4.3266545e-02
-2.5186652e-02
6.8863643e-02
2.4489034e-01
4.5490892e-01
5.8528268e-01
5.2633279e-01
2.8199369e-01
-2.3694739e-02
-2.5656294e-01
-3.5180888e-01
-3.0792393e-01
-1.5372072e-01
3.7754492e-02
1.4198947e-01
8.1820003e-02
-9.2584259e-02
-2.6384429e-01
-3.4694708e-01
-3.1969984e-01
-1.9313374e-01
1.4750060e-02
2.7033144e-01
5.0169136e-01
6.1146917e-01
5.3543902e-01
2.9641837e-01
-4.1493973e-03
-2.5873608e-01
-4.0940107e-01
-4.4876293e-01
-4.0224144e-01
-3.1358730e-01
-2.2833960e-01
-1.6973444e-01
-1.2661333e-01
-6.6718005e-02
3.6882860e-02
1.9355026e-01
3.8611697e-01
5.5355865e-01
6.1008098e-01
5.0613057e-01
2.7624373e-01
1.4488639e-02
-1.9573989e-01
-3.1649255e-01
-3.5229074e-01
-3.3228428e-01
-2.8818148e-01
-2.4289313e-01
-2.0532042e-01
-1.7167977e-01
-1.3610071e-01
-9.6423125e-02
-5.1686399e-02
-3.0092051e-04
6.0681780e-02
1.3833727e-01
2.3891671e-01
3.5541169e-01
4.5524472e-01
4.8114603e-01
3.8931270e-01
1.9124655e-01
-4.7137929e-02
-2.4896923e-01
-3.7230470e-01
-4.1455510e-01
-3.9360535e-01
-3.3521412e-01
-2.6329009e-01
-1.8953131e-01
-1.1286897e-01
-2.5615324e-02
7.9586218e-02
1.9823175e-01
3.0495631e-01
3.6235552e-01
3.4913086e-01
2.7586634e-01
1.7400637e-01
7.4612280e-02
-8.1575280e-03
-7.7547534e-02
-1.4174997e-01
-2.0357172e-01
-2.5647209e-01
-2.8784347e-01
-2.8761618e-01
-2.5021292e-01
-1.7425974e-01
-6.0771072e-02
8.2141843e-02
2.2959328e-01
3.4923041e-01
4.1502388e-01
4.1169350e-01
3.3915408e-01
2.1197118e-01
5.2399882e-02
-1.1169804e-01
-2.5569258e-01
-3.6517422e-01
-4.3187112e-01
-4.5359957e-01
-4.2999957e-01
-3.6164203e-01
-2.5093314e-01
-9.8154336e-02
1.0021007e-01
3.4511679e-01
6.1169226e-01
8.1744706e-01
8.4127225e-01
6.2401468e-01
2.3853887e-01
-1.6008358e-01
-4.4742289e-01
-5.8621108e-01
-5.9800247e-01
-5.2352786e-01
-4.0481230e-01
-2.7588387e-01
-1.4927945e-01
-1.7635555e-02
1.3149102e-01
3.0147232e-01
4.6614447e-01
5.6449720e-01
5.3324887e-01
3.6612579e-01
1.2707714e-01
-1.0023076e-01
-2.5960008e-01
-3.3803069e-01
-3.4901765e-01
-3.1365723e-01
-2.5793901e-01
-2.0562295e-01
-1.6912642e-01
-1.4462344e-01
-1.1618766e-01
-6.9174122e-02
7.7520395e-03
1.2082205e-01
2.6088901e-01
3.9841189e-01
4.8585707e-01
4.7754203e-01
3.5969496e-01
1.6512620e-01
-4.6951313e-02
-2.2358771e-01
-3.3401862e-01
-3.7317452e-01
-3.5167169e-01
-2.8405069e-01
-1.8410550e-01
-6.8828241e-02
3.4192021e-02
9.7690639e-02
1.1154809e-01
9.2612038e-02
7.4322153e-02
8.0712082e-02
1.2043269e-01
1.8270152e-01
2.2826398e-01
1.9932759e-01
5.3557934e-02
-1.5602113e-01
-3.1114580e-01
-3.7066082e-01
-3.5734433e-01
-2.8995476e-01
-1.7562206e-01
-1.7637602e-02
1.5684241e-01
3.0688894e-01
4.0364502e-01
4.3208813e-01
3.8815648e-01
2.8376818e-01
1.5051843e-01
2.4944632e-02
-7.1121418e-02
-1.3716970e-01
-1.9298655e-01
-2.5749088e-01
-3.2500069e-01
-3.7196675e-01
-3.7595424e-01
-3.2869082e-01
-2.3350927e-01
-1.0012224e-01
5.8108818e-02
2.2679538e-01
3.8408173e-01
4.9867848e-01
5.2987825e-01
4.4413052e-01
2.5019058e-01
9.8298367e-03
-1.9632549e-01
-3.1899695e-01
-3.4923624e-01
-3.0126073e-01
-2.0986168e-01
-1.1916701e-01
-5.8126078e-02
-2.4658752e-02
9.1913806e-03
6.6301574e-02
1.4315563e-01
2.1211501e-01
2.3358592e-01
1.9059266e-01
1.0741009e-01
2.3390836e-02
-3.6210664e-02
-6.7374277e-02
-8.1199935e-02
-9.3114123e-02
-1.1101255e-01
-1.3325100e-01
-1.5195495e-01
-1.6083747e-01
-1.6328992e-01
-1.6447644e-01
-1.6310167e-01
-1.4820018e-01
-1.0031197e-01
-4.0290579e-03
1.4616960e-01
3.3785155e-01
5.2145423e-01
6.1625657e-01
5.5610567e-01
3.4376606e-01
5.5844467e-02
-2.0770172e-01
-3.8250181e-01
-4.6248141e-01
-4.6844553e-01
-4.1894709e-01
-3.2855303e-01
-2.0825073e-01
-6.9964682e-02
7.2629379e-02
2.1043389e-01
3.3496348e-01
4.2651926e-01
4.5307943e-01
3.8623584e-01
2.3119080e-01
3.5499280e-02
-1.4277088e-01
-2.6459038e-01
-3.1745522e-01
-3.1344417e-01
-2.7966412e-01
-2.4554848e-01
-2.2596664e-01
-2.1155698e-01
-1.8286873e-01
-1.1972203e-01
-5.3910468e-03
1.5505030e-01
3.2020813e-01
4.2405672e-01
4.2812336e-01
3.5495873e-01
2.5323982e-01
1.5815287e-01
7.9618878e-02
3.7671270e-03
-8.3711368e-02
-1.7786924e-01
-2.6067815e-01
-3.1157369e-01
-3.1682583e-01
-2.7728881e-01
-2.0261091e-01
-1.0412431e-01
4.0983996e-03
1.0787182e-01
1.8770206e-01
2.1612438e-01
1.8517315e-01
1.1910423e-01
5.2589348e-02
1.6803879e-02
2.9413049e-02
7.6878815e-02
1.1574124e-01
1.0217113e-01
2.6495528e-02
-8.2277468e-02
-1.8432877e-01
-2.5136809e-01
-2.7108559e-01
-2.4430602e-01
-1.7969797e-01
-8.8677852e-02
1.4052718e-02
1.1293881e-01
1.9605154e-01
2.4956115e-01
2.6484119e-01
2.4922264e-01
2.2036310e-01
1.9604623e-01
1.7787711e-01
1.4482208e-01
7.0466658e-02
-5.0597891e-02
-1.9048314e-01
-3.0877235e-01
-3.8055005e-01
-4.0237887e-01
-3.8301522e-01
-3.3741749e-01
-2.7976152e-01
-2.0896470e-01
-1.1206998e-01
2.7233248e-02
2.1671902e-01
4.3019564e-01
5.9919728e-01
6.4258734e-01
5.3552630e-01
3.3829541e-01
1.3939227e-01
-7.4641795e-03
-1.0098282e-01
-1.7402533e-01
-2.5509191e-01
-3.3616985e-01
-3.8517982e-01
-3.8072757e-01
-3.1495918e-01
-1.8588132e-01
-1.3418104e-02
1.4974605e-01
2.4269839e-01
2.3807825e-01
1.6103241e-01
6.2774058e-02
-1.9969085e-02
-8.3020864e-02
-1.2109631e-01
-1.1140015e-01
-6.3361171e-02
-1.4448704e-02
8.9693917e-03
5.9501272e-03
4.9783598e-03
3.6753779e-02
1.0688591e-01
1.8655677e-01
2.1274672e-01
1.3360873e-01
-2.7993714e-02
-1.8868811e-01
-2.7618422e-01
-2.5606896e-01
-1.1927883e-01
9.9227546e-02
2.9324929e-01
3.4029817e-01
2.2121931e-01
4.1385723e-02
-8.3017278e-02
-1.0022294e-01
-1.6830230e-02
1.0134115e-01
1.5090261e-01
6.8898130e-02
-1.1166513e-01
-2.9837624e-01
-4.1726668e-01
-4.4397106e-01
-3.9007273e-01
-2.7853349e-01
-1.2786114e-01
5.2567687e-02
2.6247790e-01
4.8705346e-01
6.6762551e-01
7.1800554e-01
5.8802758e-01
3.1870694e-01
2.4114558e-02
-1.9490672e-01
-3.0199566e-01
-3.1183466e-01
-2.7072863e-01
-2.3120858e-01
-2.2171119e-01
-2.3532164e-01
-2.4420265e-01
-2.2556681e-01
-1.7337614e-01
-1.0182390e-01
-4.3229957e-02
-2.8227633e-02
-5.6012165e-02
-8.6000236e-02
-7.0267898e-02
2.6297350e-02
2.2334720e-01
4.8560685e-01
6.8939630e-01
6.8458411e-01
4.2929088e-01
4.1454984e-02
-3.0005921e-01
-4.9011513e-01
-5.2589859e-01
-4.3947927e-01
-2.5321825e-01
9.4933795e-03
2.8720036e-01
4.7394413e-01
4.7924381e-01
2.9769069e-01
1.7723255e-02
-2.4389425e-01
-4.1372853e-01
-4.7437917e-01
-4.4099889e-01
-3.4214711e-01
-2.1382099e-01
-8.9463279e-02
2.0615050e-02
1.3375712e-01
2.7180497e-01
4.3399189e-01
5.8253551e-01
6.4357168e-01
5.4924063e-01
3.0373273e-01
-6.6147243e-03
-2.7711658e-01
-4.4774303e-01
-5.1006214e-01
-4.8412188e-01
-4.0381833e-01
-3.0801652e-01
-2.2594056e-01
-1.6351902e-01
-1.0347722e-01
-2.4261694e-02
8.8489915e-02
2.4204396e-01
4.2133625e-01
5.7174679e-01
6.1487697e-01
5.0282411e-01
2.6228703e-01
-1.8618114e-02
-2.5227555e-01
-3.9527589e-01
-4.4561431e-01
-4.2525600e-01
-3.5947238e-01
-2.6732819e-01
-1.6221204e-01
-5.2230732e-02
5.9875992e-02
1.7458407e-01
2.8911494e-01
3.8236597e-01
4.0984564e-01
3.3678673e-01
1.7045214e-01
-3.7300951e-02
-2.2027342e-01
-3.3716963e-01
-3.7925509e-01
-3.6054412e-01
-3.0497287e-01
-2.3097226e-01
-1.4010668e-01
-2.1077869e-02
1.3954849e-01
3.4184937e-01
5.4076275e-01
6.4240333e-01
5.6491562e-01
3.1676186e-01
2.5455726e-03
-2.5818216e-01
-4.0531140e-01
-4.4167415e-01
-3.9861379e-01
-3.1356103e-01
-2.2098297e-01
-1.4080186e-01
-7.0909651e-02
2.6096615e-03
9.1708667e-02
1.9778696e-01
3.0229174e-01
3.6647251e-01
3.5054434e-01
2.4730273e-01
9.0075790e-02
-6.8662637e-02
-1.8189235e-01
-2.2920079e-01
-2.1430845e-01
-1.5669308e-01
-9.0092958e-02
-4.6379550e-02
-3.7486413e-02
-5.1424758e-02
-6.3591321e-02
-5.6048421e-02
-2.6048552e-02
1.9266366e-02
7.0229940e-02
1.2089984e-01
1.6742334e-01
1.9619267e-01
1.8406106e-01
1.1650745e-01
1.2704968e-03
-1.3647525e-01
-2.6706943e-01
-3.5265560e-01
-3.5810717e-01
-2.7877048e-01
-1.2444406e-01
9.0653085e-02
3.1983561e-01
4.7677048e-01
4.7819365e-01
3.2357292e-01
1.0785609e-01
-6.7225720e-02
-1.5061964e-01
-1.4105536e-01
-8.1988534e-02
-3.5678233e-02
-4.1224903e-02
-9.2678992e-02
-1.5447581e-01
-1.9337744e-01
-1.9291338e-01
-1.5187395e-01
-7.7249915e-02
2.1870362e-02
1.3286957e-01
2.3341892e-01
2.8734470e-01
2.5985637e-01
1.4484865e-01
-1.6923880e-02
-1.5642376e-01
-2.2464610e-01
-2.0779804e-01
-1.1901207e-01
1.4356729e-03
9.5425605e-02
1.1717654e-01
7.2726510e-02
1.5323024e-02
-6.3046470e-03
2.4635180e-02
9.0806649e-02
1.4377197e-01
1.3401588e-01
4.7890707e-02
-8.3062770e-02
-2.0749498e-01
-2.8752109e-01
-3.0956077e-01
-2.7780751e-01
-2.0089627e-01
-8.6910140e-02
5.8027895e-02
2.2772842e-01
3.9904024e-01
5.1783387e-01
5.1751360e-01
3.7251346e-01
1.2879814e-01
-1.2053021e-01
-2.9677218e-01
-3.7723243e-01
-3.7309193e-01
-3.0360448e-01
-1.9911868e-01
-9.9537229e-02
-3.8640601e-02
-2.1822086e-02
-2.1794548e-02
-2.5175610e-03
6.0261144e-02
1.6725399e-01
2.8375977e-01
3.4889781e-01
3.0926810e-01
1.5786101e-01
-5.4331924e-02
-2.4977714e-01
-3.7105834e-01
-3.9992096e-01
-3.4053891e-01
-2.0361438e-01
-3.7118224e-03
2.2604145e-01
4.2006341e-01
5.0958577e-01
4.6651219e-01
3.1995083e-01
1.3544137e-01
-2.8561303e-02
-1.4205070e-01
-2.0144784e-01
-2.2464485e-01
-2.3683038e-01
-2.5409711e-01
-2.7675652e-01
-2.9410777e-01
-2.9401927e-01
-2.6841989e-01
-2.1507213e-01
-1.3517009e-01
-2.6834536e-02
1.1808498e-01
3.0313832e-01
5.0937711e-01
6.8074950e-01
7.2918611e-01
5.9036965e-01
2.9109360e-01
-5.7353111e-02
-3.4127987e-01
-5.0843354e-01
-5.5965592e-01
-5.1962572e-01
-4.2272970e-01
-3.0321803e-01
-1.8474445e-01
-7.1442215e-02
5.0583706e-02
1.9584893e-01
3.5611823e-01
4.9116765e-01
5.4010650e-01
4.5654067e-01
2.5219196e-01
-1.2113289e-03
-2.2086465e-01
-3.5703789e-01
-3.9936518e-01
-3.6414228e-01
-2.8322867e-01
-1.9398485e-01
-1.2326433e-01
-7.1884359e-02
-1.5178560e-02
7.5540540e-02
2.1335873e-01
3.7925167e-01
5.0477178e-01
5.0325705e-01
3.4266301e-01
8.2462473e-02
-1.7300496e-01
-3.5254808e-01
-4.3674198e-01
-4.3717444e-01
-3.7542739e-01
-2.6947246e-01
-1.3504153e-01
1.2585123e-02
1.5522910e-01
2.6179699e-01
2.9245710e-01
2.3540774e-01
1.2791849e-01
2.7809225e-02
-1.9493767e-02
1.1308880e-03
6.5796317e-02
1.1670597e-01
9.1296591e-02
-1.9396849e-02
-1.5727191e-01
-2.5471290e-01
-2.7422622e-01
-2.0872597e-01
-6.6378466e-02
1.2709376e-01
3.0896685e-01
3.9825365e-01
3.4866545e-01
1.8837090e-01
-1.5418940e-03
-1.4703446e-01
-2.1555660e-01
-2.1370260e-01
-1.6645338e-01
-1.0631966e-01
-6.8505905e-02
-8.0024554e-02
-1.4791832e-01
-2.2700788e-01
-2.4742568e-01
-1.9321269e-01
-7.7595316e-02
9.5959318e-02
3.1364603e-01
5.1842265e-01
6.0204788e-01
4.9417813e-01
2.4115056e-01
-3.9452804e-02
-2.4897256e-01
-3.5087944e-01
-3.5922978e-01
-3.1077473e-01
-2.4168941e-01
-1.7129696e-01
-9.7514224e-02
-8.7238677e-03
9.9109310e-02
2.1063997e-01
2.8806389e-01
2.9070550e-01
2.0556004e-01
6.1987180e-02
-8.4610858e-02
-1.8889053e-01
-2.3580378e-01
-2.3511709e-01
-2.1216499e-01
-1.8960213e-01
-1.6536555e-01
-1.1909001e-01
-2.9031837e-02
1.1919826e-01
3.2039283e-01
5.2227937e-01
6.1801627e-01
5.1735451e-01
2.3831210e-01
-9.6152255e-02
-3.5821917e-01
-4.9142119e-01
-4.9826721e-01
-4.0659542e-01
-2.5745558e-01
-1.0662211e-01
-1.0170450e-02
2.2825256e-02
3.9064646e-02
8.9393443e-02
1.9511605e-01
3.3792290e-01
4.5066014e-01
4.4871859e-01
2.9892242e-01
5.3717065e-02
-1.9475700e-01
-3.7571600e-01
-4.5567810e-01
-4.3614211e-01
-3.3498806e-01
-1.6993644e-01
3.4184826e-02
2.2821898e-01
3.3748600e-01
3.1321210e-01
1.8068890e-01
2.2183795e-02
-7.8604451e-02
-8.0220394e-02
1.1898721e-02
1.4894958e-01
2.4592438e-01
2.2816246e-01
8.8216440e-02
-1.1078662e-01
-2.8880466e-01
-3.9634128e-01
-4.1740101e-01
-3.5386603e-01
-2.1387376e-01
-1.1718376e-02
2.2078233e-01
4.2228745e-01
5.1662288e-01
4.6365875e-01
2.9073930e-01
7.2294403e-02
-1.1679572e-01
-2.3643863e-01
-2.8374662e-01
-2.8052313e-01
-2.6228283e-01
-2.5694516e-01
-2.6466444e-01
-2.6063486e-01
-2.1235376e-01
-9.8444521e-02
8.9087969e-02
3.3916660e-01
5.9271896e-01
7.3693261e-01
6.7169812e-01
4.0325802e-01
4.6315707e-02
-2.6575447e-01
-4.5710659e-01
-5.1914369e-01
-4.8055981e-01
-3.8265458e-01
-2.6698537e-01
-1.6020235e-01
-6.1324735e-02
4.3013596e-02
1.5905454e-01
2.7961481e-01
3.7559372e-01
4.0638519e-01
3.4841137e-01
2.1280967e-01
3.8365233e-02
-1.2930659e-01
-2.5562738e-01
-3.2330728e-01
-3.2753483e-01
-2.7327000e-01
-1.7142104e-01
-3.7046949e-02
1.0658897e-01
2.2673672e-01
2.8958079e-01
2.8150030e-01
2.1928818e-01
1.3373927e-01
4.5916026e-02
-3.7530284e-02
-1.1355861e-01
-1.7757241e-01
-2.2365430e-01
-2.4635428e-01
-2.4509566e-01
-2.2503312e-01
-1.9179070e-01
-1.4624985e-01
-8.0315871e-02
1.5960720e-02
1.4176576e-01
2.8277623e-01
4.0676530e-01
4.6885808e-01
4.3777075e-01
3.1799193e-01
1.4668620e-01
-2.5874187e-02
-1.5826933e-01
-2.3444323e-01
-2.6074402e-01
-2.5189821e-01
-2.2509979e-01
-1.9742828e-01
-1.7951955e-01
-1.7188415e-01
-1.6718953e-01
-1.5408866e-01
-1.2089171e-01
-6.2973899e-02
1.6177317e-02
1.0841875e-01
1.9821182e-01
2.6783930e-01
3.0574094e-01
3.1046161e-01
2.8460881e-01
2.2303126e-01
1.2034974e-01
-1.5515700e-02
-1.6243485e-01
-2.9123965e-01
-3.7259988e-01
-3.8222569e-01
-3.1456337e-01
-1.8391558e-01
-3.3130115e-03
2.1125786e-01
4.1369699e-01
5.2622867e-01
4.7898024e-01
2.7381220e-01
-9.4886430e-04
-2.3527708e-01
-3.6621421e-01
-3.9033617e-01
-3.2678352e-01
-1.9100360e-01
-8.4655659e-03
1.7167389e-01
2.8774000e-01
2.9816096e-01
2.1087164e-01
7.0778489e-02
-7.4383735e-02
-1.8882834e-01
-2.5026951e-01
-2.4953790e-01
-1.8521080e-01
-5.9771800e-02
9.6093026e-02
2.0750621e-01
2.0469825e-01
8.8677052e-02
-7.1458741e-02
-1.9817183e-01
-2.4603995e-01
-2.0036978e-01
-6.2683933e-02
1.3715881e-01
3.2360505e-01
4.0584562e-01
3.4240597e-01
1.7806198e-01
7.1876136e-03
-9.4968538e-02
-1.1020757e-01
-7.7629040e-02
-6.1765391e-02
-1.0141316e-01
-1.8025623e-01
-2.4949296e-01
-2.7084895e-01
-2.2841041e-01
-1.1937252e-01
3.3737701e-02
1.7447821e-01
2.4769371e-01
2.4311056e-01
1.9600065e-01
1.5384986e-01
1.4601981e-01
1.5732980e-01
1.3136317e-01
2.6462873e-02
-1.3740390e-01
-2.9520277e-01
-3.9031361e-01
-4.0503980e-01
-3.5197959e-01
-2.5265237e-01
-1.2510389e-01
2.3441506e-02
1.9391491e-01
3.8049544e-01
5.5127297e-01
6.3349249e-01
5.5189496e-01
3.0711211e-01
-7.6281151e-03
-2.7900717e-01
-4.4045831e-01
-4.7726640e-01
-4.1133267e-01
-2.9286372e-01
-1.8438022e-01
-1.2644556e-01
-1.1178056e-01
-9.5385067e-02
-2.8120936e-02
1.1632511e-01
3.2287610e-01
5.1324033e-01
5.6612934e-01
4.1534932e-01
1.2656121e-01
-1.5834575e-01
-3.3340455e-01
-3.6708770e-01
-2.7681402e-01
-1.1054487e-01
4.8121068e-02
1.1140235e-01
6.5344863e-02
-2.1131658e-02
-7.2230078e-02
-5.3603988e-02
3.0234236e-02
1.4930254e-01
2.4656498e-01
2.5129987e-01
1.4032771e-01
-3.6630483e-02
-2.0464174e-01
-3.1432341e-01
-3.5564401e-01
-3.3920991e-01
-2.7971069e-01
-1.9117305e-01
-7.8965981e-02
6.3044940e-02
2.3731938e-01
4.1565811e-01
5.2701142e-01
4.8877707e-01
2.8567822e-01
2.9973250e-03
-2.4232184e-01
-3.7629860e-01
-3.7766976e-01
-2.5470085e-01
-4.9889515e-02
1.4520070e-01
2.3419968e-01
1.9031763e-01
7.2732534e-02
-2.9058304e-02
-5.7844242e-02
-5.5750271e-03
9.2722909e-02
1.6799927e-01
1.5365182e-01
3.6584400e-02
-1.3210187e-01
-2.8256841e-01
-3.7121428e-01
-3.8559221e-01
-3.3270696e-01
-2.2601690e-01
-8.1725421e-02
8.1694221e-02
2.4973400e-01
4.0605271e-01
5.2337228e-01
5.6697728e-01
5.0912176e-01
3.4715981e-01
1.1594416e-01
-1.2478796e-01
-3.1903964e-01
-4.3443281e-01
-4.6850064e-01
-4.3880767e-01
-3.6852343e-01
-2.7790327e-01
-1.8627382e-01
-1.1220572e-01
-5.8801127e-02
-8.8922553e-03
5.9047105e-02
1.5882536e-01
2.8863015e-01
4.2414592e-01
5.2405979e-01
5.4744596e-01
4.7516918e-01
3.1605055e-01
1.0510610e-01
-1.0631527e-01
-2.7454447e-01
-3.7851571e-01
-4.1949177e-01
-4.1334919e-01
-3.7498909e-01
-3.1059086e-01
-2.2533007e-01
-1.2255229e-01
-6.0307344e-03
1.1296407e-01
2.0905048e-01
2.3615234e-01
1.6625987e-01
3.0438209e-02
-1.0905206e-01
-2.0282935e-01
-2.2830639e-01
-1.8393695e-01
-7.7702359e-02
8.7134750e-02
3.0505131e-01
5.3309015e-01
6.7702497e-01
6.3738410e-01
3.9925838e-01
6.0956050e-02
-2.4307102e-01
-4.3144843e-01
-4.9698722e-01
-4.6856025e-01
-3.7878633e-01
-2.5900412e-01
-1.4071229e-01
-5.3122775e-02
-1.0627255e-02
-4.2988477e-03
-6.9480070e-03
1.6008172e-02
8.9892818e-02
2.1716067e-01
3.6686941e-01
4.7121793e-01
4.5975959e-01
3.1619879e-01
9.5588922e-02
-1.2042753e-01
-2.7779538e-01
-3.6328787e-01
-3.9055376e-01
-3.8021336e-01
-3.4350259e-01
-2.8247439e-01
-1.9576900e-01
-7.7261275e-02
7.7599588e-02
2.5978563e-01
4.3502198e-01
5.4184174e-01
5.2482760e-01
3.7917584e-01
1.5862121e-01
-6.1612767e-02
-2.2628945e-01
-3.1386132e-01
-3.3085461e-01
-2.9547483e-01
-2.2611630e-01
-1.3882068e-01
-4.7452896e-02
3.3429030e-02
8.8598767e-02
1.0403288e-01
7.6393358e-02
1.8903757e-02
-4.7730685e-02
-1.0495160e-01
-1.3929332e-01
-1.3994555e-01
-9.6853740e-02
-1.6730593e-03
1.4403603e-01
3.1742088e-01
4.6250550e-01
5.0193421e-01
3.9211009e-01
1.6454116e-01
-9.3486828e-02
-3.0053245e-01
-4.2156789e-01
-4.6016815e-01
-4.3685733e-01
-3.7476184e-01
-2.9170316e-01
-1.9366665e-01
-7.8872849e-02
5.7954421e-02
2.2044458e-01
3.9405421e-01
5.3675518e-01
5.8968673e-01
5.1855189e-01
3.4388096e-01
1.2408566e-01
-8.0080101e-02
-2.3128052e-01
-3.1874286e-01
-3.4907597e-01
-3.3638778e-01
-2.9728083e-01
-2.4724282e-01
-1.9578074e-01
-1.4829770e-01
-1.0480862e-01
-5.8625591e-02
-3.9198963e-03
6.0035171e-02
1.2916746e-01
1.9768195e-01
2.5885786e-01
3.0359273e-01
3.1820070e-01
2.8043722e-01
1.7462792e-01
1.3257564e-02
-1.5949882e-01
-2.9082810e-01
-3.5104294e-01
-3.3484104e-01
-2.5185051e-01
-1.1909246e-01
3.9986224e-02
1.8860107e-01
2.8957122e-01
3.2002042e-01
2.7626081e-01
1.7358507e-01
3.8576100e-02
-9.7811960e-02
-2.0600228e-01
-2.6523008e-01
-2.6733553e-01
-2.1053647e-01
-1.0272407e-01
2.4551825e-02
1.1642720e-01
1.2453464e-01
5.3847115e-02
-3.8026991e-02
-9.0453462e-02
-6.6282766e-02
4.4788418e-02
2.1262769e-01
3.5697978e-01
3.8391303e-01
2.6148220e-01
4.7885598e-02
-1.6237717e-01
-3.0516466e-01
-3.6632959e-01
-3.6119854e-01
-3.1216824e-01
-2.3743447e-01
-1.4525611e-01
-3.3084358e-02
1.0546826e-01
2.6731106e-01
4.2246014e-01
5.1123295e-01
4.7781124e-01
3.1225107e-01
6.5571695e-02
-1.8128472e-01
-3.6319017e-01
-4.5152438e-01
-4.5144472e-01
-3.7967174e-01
-2.5040436e-01
-7.4241953e-02
1.3223225e-01
3.3128234e-01
4.6798726e-01
4.9066899e-01
3.7773990e-01
1.4738245e-01
-1.2006987e-01
-3.1712050e-01
-4.0880714e-01
-4.1376068e-01
-3.4952551e-01
-2.3410688e-01
-9.6725582e-02
1.2855271e-02
6.3730651e-02
8.1258878e-02
1.1521960e-01
2.0165797e-01
3.4460362e-01
4.9723814e-01
5.7206629e-01
4.9797652e-01
2.8345350e-01
9.1982151e-03
-2.3609623e-01
-4.0076684e-01
-4.7660564e-01
-4.8044336e-01
-4.3428463e-01
-3.5940841e-01
-2.7435658e-01
-1.8832905e-01
-1.0101597e-01
-5.7865671e-03
1.0810778e-01
2.4726368e-01
3.9883146e-01
5.1778004e-01
5.4260271e-01
4.3660401e-01
2.2095249e-01
-3.2876797e-02
-2.4526692e-01
-3.6997255e-01
-4.0491250e-01
-3.6736411e-01
-2.7423977e-01
-1.3875701e-01
1.5685089e-02
1.3730232e-01
1.7454935e-01
1.2204473e-01
2.6569202e-02
-5.0450761e-02
-7.3351971e-02
-3.8114456e-02
3.5279875e-02
1.1733381e-01
1.7991099e-01
2.0275188e-01
1.8556214e-01
1.4130135e-01
9.0060470e-02
5.0833707e-02
2.2568646e-02
-1.2873984e-02
-7.1044847e-02
-1.5079671e-01
-2.3226511e-01
-2.8699328e-01
-2.9564255e-01
-2.5330806e-01
-1.6508716e-01
-5.1681264e-02
4.7906355e-02
9.6965426e-02
9.3235642e-02
7.1852889e-02
7.1465707e-02
1.0566551e-01
1.5648335e-01
1.8731142e-01
1.7172420e-01
1.1115066e-01
2.8789115e-02
-5.3216488e-02
-1.2637838e-01
-1.8373222e-01
-2.1001671e-01
-1.8830170e-01
-1.1107413e-01
2.1332047e-02
1.9967605e-01
3.8440800e-01
4.9558317e-01
4.5403828e-01
2.5285871e-01
-2.7941525e-02
-2.8391225e-01
-4.5129192e-01
-5.2050543e-01
-5.0775976e-01
-4.3335075e-01
-3.1738878e-01
-1.7928011e-01
-3.3614022e-02
1.2117615e-01
2.9965235e-01
4.9798156e-01
6.6399157e-01
7.1262132e-01
5.8425325e-01
3.0253215e-01
-3.0741607e-02
-3.0629558e-01
-4.6750167e-01
-5.1634854e-01
-4.8531490e-01
-4.1285492e-01
-3.2838573e-01
-2.4141689e-01
-1.4032194e-01
-4.0916717e-03
1.7728109e-01
3.7551182e-01
5.1773994e-01
5.4180988e-01
4.4917967e-01
2.8872265e-01
1.1567193e-01
-3.7929216e-02
-1.6675799e-01
-2.6736068e-01
-3.3254833e-01
-3.6216636e-01
-3.5834756e-01
-3.2355798e-01
-2.6550327e-01
-1.9346181e-01
-1.0800743e-01
-2.3584549e-03
1.3338227e-01
3.0314767e-01
4.7871266e-01
5.8632172e-01
5.4055741e-01
3.2892214e-01
4.2142809e-02
-2.0449620e-01
-3.4631101e-01
-3.7779390e-01
-3.2505779e-01
-2.2562776e-01
-1.2040690e-01
-3.6081803e-02
2.5853981e-02
7.5812585e-02
1.2140092e-01
1.6060223e-01
1.7658046e-01
1.4944829e-01
7.4541495e-02
-2.9339901e-02
-1.2579308e-01
-1.8377734e-01
-1.9655169e-01
-1.8007293e-01
-1.6050524e-01
-1.5272871e-01
-1.4510297e-01
-1.1404579e-01
-3.9127195e-02
9.0281169e-02
2.6474288e-01
4.3913060e-01
5.3084173e-01
4.7813626e-01
2.9976519e-01
7.7391769e-02
-1.0933022e-01
-2.2682018e-01
-2.7808470e-01
-2.8278022e-01
-2.6931047e-01
-2.6256412e-01
-2.7556866e-01
-2.8530604e-01
-2.4496655e-01
-1.3978459e-01
2.4353778e-02
2.3463072e-01
4.3832460e-01
5.4621888e-01
4.9057925e-01
2.9162462e-01
4.7901675e-02
-1.4510702e-01
-2.4261288e-01
-2.4607779e-01
-1.9156793e-01
-1.3235119e-01
-1.0627275e-01
-1.1344431e-01
-1.2503900e-01
-1.0828506e-01
-4.7350214e-02
4.9310081e-02
1.4743902e-01
1.9880445e-01
1.7248320e-01
7.9800426e-02
-3.5765550e-02
-1.2986958e-01
-1.7290155e-01
-1.4973294e-01
-5.7228181e-02
8.6917549e-02
2.3036486e-01
3.0066965e-01
2.5360904e-01
1.1339194e-01
-4.6297131e-02
-1.5743138e-01
-1.8753812e-01
-1.3567236e-01
-2.7323587e-02
7.8902330e-02
1.1209984e-01
4.4572574e-02
-8.4094642e-02
-2.0637265e-01
-2.7441103e-01
-2.6834698e-01
-1.8575859e-01
-4.3451797e-02
1.1491835e-01
2.3034033e-01
2.6377062e-01
2.2661979e-01
1.7038770e-01
1.4237205e-01
1.5345816e-01
1.7401297e-01
1.5293250e-01
6.0220185e-02
-8.3403262e-02
-2.2382123e-01
-3.1745547e-01
-3.5116464e-01
-3.2905030e-01
-2.6287227e-01
-1.6639244e-01
-5.2367223e-02
6.9286536e-02
1.9423462e-01
3.1142876e-01
3.9281515e-01
4.0379353e-01
3.2568585e-01
1.7437157e-01
-2.4595475e-03
-1.5614416e-01
-2.5974145e-01
-3.0801492e-01
-3.1175658e-01
-2.8739487e-01
-2.4753534e-01
-1.9697409e-01
-1.3477393e-01
-5.4741498e-02
5.2374560e-02
1.9221733e-01
3.5065135e-01
4.7717442e-01
5.0572354e-01
4.0071639e-01
1.8944181e-01
-5.1370053e-02
-2.4748907e-01
-3.6297834e-01
-3.9909558e-01
-3.7567108e-01
-3.1804871e-01
-2.4851223e-01
-1.7764472e-01
-1.0113552e-01
-3.0619047e-03
1.3347144e-01
3.0974053e-01
4.9211913e-01
6.0647341e-01
5.7276249e-01
3.7067096e-01
6.8633008e-02
-2.2128995e-01
-4.1811454e-01
-5.0175197e-01
-4.8516589e-01
-3.9287164e-01
-2.5586385e-01
-1.0246851e-01
4.7746559e-02
1.8686392e-01
3.0958812e-01
3.9622588e-01
4.1178109e-01
3.3298067e-01
1.7408396e-01
-1.6303522e-02
-1.8380952e-01
-2.9703049e-01
-3.4957906e-01
-3.4810513e-01
-3.0245824e-01
-2.2149688e-01
-1.1302326e-01
1.3957302e-02
1.4911174e-01
2.7972905e-01
3.8278999e-01
4.2522800e-01
3.7862105e-01
2.4353585e-01
5.7253874e-02
-1.2653926e-01
-2.6637169e-01
-3.4740721e-01
-3.7436647e-01
-3.6013093e-01
-3.1615113e-01
-2.4633105e-01
-1.4490779e-01
-6.0764222e-03
1.6846112e-01
3.6331927e-01
5.2755077e-01
5.8465481e-01
4.8758087e-01
2.6423346e-01
4.0700695e-03
-2.0366237e-01
-3.1655302e-01
-3.3958990e-01
-3.0486258e-01
-2.5471871e-01
-2.2121991e-01
-2.0663429e-01
-1.8979496e-01
-1.4939832e-01
-6.9401336e-02
6.2204575e-02
2.4258719e-01
4.2902108e-01
5.3295045e-01
4.7847060e-01
2.7200074e-01
6.6511954e-03
-2.1057563e-01
-3.2755724e-01
-3.4266574e-01
-2.7571456e-01
-1.5724968e-01
-2.9653184e-02
6.0642709e-02
8.6248859e-02
5.4728631e-02
1.3669669e-02
1.5796484e-02
6.6325325e-02
1.3292056e-01
1.7299190e-01
1.5023128e-01
6.4767684e-02
-5.0352109e-02
-1.6056291e-01
-2.3863727e-01
-2.6782595e-01
-2.4898336e-01
-1.9734595e-01
-1.3010175e-01
-5.4959223e-02
3.2486259e-02
1.4211390e-01
2.7349008e-01
3.9852981e-01
4.6032337e-01
4.1134421e-01
2.5950363e-01
6.4627817e-02
-1.0836680e-01
-2.2463929e-01
-2.8271321e-01
-2.9842227e-01
-2.8647013e-01
-2.5663878e-01
-2.1243094e-01
-1.5108861e-01
-6.5771883e-02
4.1512061e-02
1.4016008e-01
1.8293586e-01
1.4177117e-01
3.9233716e-02
-6.5096101e-02
-1.2369259e-01
-1.1518936e-01
-3.7396610e-02
9.4862512e-02
2.4612543e-01
3.6058580e-01
3.8715243e-01
3.0965391e-01
1.6088805e-01
-3.6786749e-03
-1.4166755e-01
-2.3181296e-01
-2.8088229e-01
-3.0937062e-01
-3.2372069e-01
-3.1481137e-01
-2.6437435e-01
-1.5788694e-01
2.5417970e-03
1.8046431e-01
2.9297314e-01
2.6769961e-01
1.2564571e-01
-3.2874609e-02
-1.1817215e-01
-9.0440604e-02
5.0787014e-02
2.6270999e-01
4.4734041e-01
4.8907669e-01
3.4681559e-01
9.1684689e-02
-1.5674335e-01
-3.1890864e-01
-3.8519505e-01
-3.7871412e-01
-3.2231493e-01
-2.4042136e-01
-1.6353863e-01
-1.1627631e-01
-9.2349984e-02
-5.7472215e-02
1.2249695e-02
1.2443486e-01
2.8463637e-01
4.5873238e-01
5.4762059e-01
4.6482247e-01
2.2845880e-01
-5.7062904e-02
-2.9126675e-01
-4.3120827e-01
-4.8292675e-01
-4.7202372e-01
-4.2217362e-01
-3.4106549e-01
-2.1856198e-01
-4.1570485e-02
1.8471358e-01
4.2059519e-01
6.0055084e-01
6.6757942e-01
6.0778515e-01
4.5924963e-01
2.8069485e-01
1.0964459e-01
-4.4009104e-02
-1.8216768e-01
-3.0545983e-01
-4.0663158e-01
-4.7574331e-01
-5.0633823e-01
-4.9459493e-01
-4.4080782e-01
-3.5512268e-01
-2.5303412e-01
-1.4730588e-01
-4.0325305e-02
7.9924826e-02
2.3255516e-01
4.2971543e-01
6.4618084e-01
8.0906008e-01
8.3377161e-01
6.7630900e-01
3.7120299e-01
1.5422021e-02
-2.9278352e-01
-4.9952415e-01
-5.9642373e-01
-6.0093295e-01
-5.4458068e-01
-4.6123850e-01
-3.7181340e-01
-2.8394377e-01
-1.9249813e-01
-7.9960861e-02
7.2042103e-02
2.6564900e-01
4.5413048e-01
5.5199329e-01
5.1295342e-01
3.7419927e-01
2.2187314e-01
1.2668478e-01
1.0303365e-01
1.1619097e-01
1.1054030e-01
4.0296544e-02
-9.3969943e-02
-2.4063676e-01
-3.3938583e-01
-3.6088985e-01
-3.1178563e-01
-2.2214698e-01
-1.2574470e-01
-4.3445319e-02
1.2483489e-02
3.3786507e-02
2.4188109e-02
-3.4370642e-03
-4.0746534e-02
-8.0158695e-02
-1.0346489e-01
-9.2213579e-02
-3.5145314e-02
6.4738671e-02
1.7739460e-01
2.6336309e-01
2.9970215e-01
2.8451986e-01
2.3005985e-01
1.5236489e-01
5.8629741e-02
-5.2653926e-02
-1.7511318e-01
-2.9454942e-01
-3.9399755e-01
-4.4535911e-01
-4.1978545e-01
-2.9595859e-01
-5.0041360e-02
2.8625260e-01
5.8808953e-01
7.3449445e-01
6.8019893e-01
4.5719927e-01
1.5644466e-01
-1.1850469e-01
-2.9901294e-01
-3.7103094e-01
-3.5677707e-01
-2.8957537e-01
-2.0112510e-01
-1.1967080e-01
-6.5984701e-02
-4.1806990e-02
-3.3327785e-02
-2.5085616e-02
-8.7860584e-04
4.8853465e-02
1.0441470e-01
1.2376337e-01
7.7150152e-02
-2.8739394e-02
-1.5135159e-01
-2.4356617e-01
-2.7561441e-01
-2.2828066e-01
-9.4677590e-02
9.4882201e-02
2.6380960e-01
3.4400198e-01
3.3200562e-01
2.7569013e-01
2.3203533e-01
2.2640739e-01
2.3143325e-01
1.9240652e-01
7.3965957e-02
-1.0777671e-01
-2.9056831e-01
-4.1712300e-01
-4.6695452e-01
-4.3633887e-01
-3.3111515e-01
-1.7913890e-01
-3.4148680e-02
5.3139027e-02
8.3148687e-02
9.8613107e-02
1.4554205e-01
2.5762354e-01
4.2673790e-01
5.6970774e-01
5.6611352e-01
3.6401905e-01
3.9216781e-02
-2.7278539e-01
-4.8361424e-01
-5.7530017e-01
-5.6687880e-01
-4.8668865e-01
-3.5402601e-01
-1.8469659e-01
-1.9805672e-03
1.7282292e-01
3.2910666e-01
4.6459031e-01
5.5950546e-01
5.6873723e-01
4.5986295e-01
2.4071823e-01
-3.3825374e-02
-2.8054877e-01
-4.4481852e-01
-5.2433750e-01
-5.3592447e-01
-4.9464751e-01
-4.0493959e-01
-2.6508635e-01
-8.4833398e-02
1.2549944e-01
3.6440966e-01
6.1514652e-01
8.1091181e-01
8.4833276e-01
6.6851706e-01
3.2490858e-01
-4.6114901e-02
-3.2876557e-01
-4.8578020e-01
-5.2961341e-01
-4.9199201e-01
-4.1494952e-01
-3.3714815e-01
-2.8388756e-01
-2.5683181e-01
-2.3686885e-01
-2.0280969e-01
-1.4226306e-01
-4.6171256e-02
1.0094124e-01
3.1250116e-01
5.6914106e-01
7.8079248e-01
8.1903795e-01
6.2876293e-01
2.8184775e-01
-7.9601691e-02
-3.4408861e-01
-4.8022128e-01
-4.9846373e-01
-4.1384802e-01
-2.5344915e-01
-7.2463722e-02
5.1378084e-02
6.5703022e-02
-1.0964666e-02
-1.0994345e-01
-1.7100116e-01
-1.6423610e-01
-8.0590561e-02
7.2473423e-02
2.5298750e-01
3.7394775e-01
3.5641112e-01
2.0120758e-01
-3.1051146e-03
-1.5249539e-01
-1.9685481e-01
-1.4154596e-01
-2.8356709e-02
8.4561337e-02
1.4727713e-01
1.3658783e-01
6.6854303e-02
-2.3381054e-02
-9.7930749e-02
-1.3662959e-01
-1.3618113e-01
-1.0740337e-01
-6.4047220e-02
-1.2169191e-02
4.3404913e-02
9.4718403e-02
1.2961292e-01
1.3048857e-01
9.0492137e-02
2.1891393e-02
-5.3837977e-02
-1.1355067e-01
-1.4232760e-01
-1.4233131e-01
-1.3246627e-01
-1.3387373e-01
-1.5087447e-01
-1.6759820e-01
-1.6021354e-01
-1.0547459e-01
1.0864732e-02
1.7149548e-01
3.2054772e-01
3.9217872e-01
3.6089961e-01
2.6188474e-01
1.5528773e-01
8.0517936e-02
3.5945804e-02
-8.7944910e-03
-7.7797184e-02
-1.5812983e-01
-2.1043831e-01
-2.0553308e-01
-1.4352897e-01
-5.3517913e-02
2.0604852e-02
4.8555127e-02
3.6300028e-02
1.1573125e-02
-3.5914087e-03
-6.0105282e-03
