-2.3354432e-02
1.7803127e+00
3.6234936e+00
5.2141002e+00
6.1119414e+00
6.0432348e+00
4.9785137e+00
3.1179154e+00
9.3569931e-01
-9.0762958e-01
-1.9700100e+00
-2.2587747e+00
-2.0668873e+00
-1.7203854e+00
-1.4030222e+00
-1.0837007e+00
-6.4176242e-01
-8.3296199e-02
4.2231541e-01
6.7968754e-01
6.1685313e-01
3.0699625e-01
-1.1649629e-01
-5.4283481e-01
-9.1600817e-01
-1.2147488e+00
-1.4223011e+00
-1.5159133e+00
-1.4422845e+00
-1.1212960e+00
-4.8750970e-01
4.9016557e-01
1.7240504e+00
2.8672892e+00
3.4347008e+00
3.2071771e+00
2.3655507e+00
1.2245571e+00
3.4545112e-02
-1.0223153e+00
-1.7809478e+00
-2.1049960e+00
-1.9815902e+00
-1.5203776e+00
-8.8048342e-01
-2.6260134e-01
1.5473939e-01
3.3272900e-01
3.5499873e-01
3.0929351e-01
2.0799794e-01
5.7375919e-03
-2.8279044e-01
-5.3799746e-01
-6.6988703e-01
-7.0198854e-01
-6.8826678e-01
-6.3305231e-01
-5.3451635e-01
-4.1942217e-01
-2.7905895e-01
-2.4808086e-02
4.7642084e-01
1.3100396e+00
2.3628450e+00
3.2048270e+00
3.2786151e+00
2.3855455e+00
9.1968293e-01
-4.8006458e-01
-1.4119863e+00
-1.8305847e+00
-1.8716860e+00
-1.6915642e+00
-1.4481341e+00
-1.2597004e+00
-1.1202635e+00
-9.5655616e-01
-7.3250547e-01
-4.5623413e-01
-1.1535854e-01
3.5400987e-01
9.9647604e-01
1.7599900e+00
2.4291264e+00
2.6457256e+00
2.1279602e+00
9.5774832e-01
-3.7863887e-01
-1.3655616e+00
-1.8229189e+00
-1.8460117e+00
-1.5843558e+00
-1.1690085e+00
-7.1001947e-01
-2.6669815e-01
1.3894785e-01
4.6246979e-01
6.6198485e-01
7.4832602e-01
7.5139400e-01
6.6962460e-01
4.5624493e-01
6.7030362e-02
-4.5523882e-01
-9.6270745e-01
-1.2915414e+00
-1.3668247e+00
-1.2027816e+00
-8.5516086e-01
-4.2134143e-01
1.2276470e-03
4.0797548e-01
8.8890144e-01
1.5297620e+00
2.2940129e+00
2.8918451e+00
2.8373069e+00
1.8422099e+00
1.6228548e-01
-1.5218070e+00
-2.6161289e+00
-2.9653477e+00
-2.7218503e+00
-2.0805009e+00
-1.2101755e+00
-2.9927748e-01
5.4702900e-01
1.3513827e+00
2.0632873e+00
2.4462902e+00
2.2389913e+00
1.4450340e+00
3.6450750e-01
-6.2424596e-01
-1.2953624e+00
-1.6066460e+00
-1.5723297e+00
-1.2758773e+00
-8.7543117e-01
-4.8455691e-01
-1.2803099e-01
1.5711306e-01
3.1201075e-01
3.6231660e-01
4.3464607e-01
6.7159526e-01
1.1265709e+00
1.6587418e+00
1.8861252e+00
1.4100620e+00
2.6114711e-01
-1.0223627e+00
-1.8640167e+00
-2.0300920e+00
-1.6165890e+00
-8.8067286e-01
-1.2893676e-01
3.8394760e-01
6.1331527e-01
7.1128823e-01
8.1316956e-01
8.9563127e-01
8.1378536e-01
4.6976455e-01
-5.9981015e-02
-6.1438896e-01
-1.0851457e+00
-1.4036523e+00
-1.4944664e+00
-1.3249096e+00
-9.3144898e-01
-3.6688733e-01
2.9376543e-01
9.3661245e-01
1.4674429e+00
1.8263979e+00
1.9549333e+00
1.8094103e+00
1.3851543e+00
7.3267655e-01
-2.6221119e-02
-7.3218358e-01
-1.2554472e+00
-1.5295651e+00
-1.5554621e+00
-1.3762424e+00
-1.0157898e+00
-4.9211343e-01
8.3554632e-02
5.5253110e-01
8.4480567e-01
9.6366262e-01
8.8980909e-01
5.7335442e-01
3.1599008e-02
-5.7221517e-01
-1.0077404e+00
-1.1545222e+00
-1.0750291e+00
-9.2546785e-01
-8.2105658e-01
-7.8399471e-01
-7.3514827e-01
-5.2751779e-01
-4.9296560e-02
7.5514691e-01
1.8951091e+00
3.1568179e+00
3.9397003e+00
3.5648665e+00
1.9427715e+00
-2.1418560e-01
-1.9952608e+00
-2.9126382e+00
-2.9626465e+00
-2.4325629e+00
-1.7095458e+00
-1.1190342e+00
-7.6111478e-01
-4.8624302e-01
-9.6717051e-02
5.2970692e-01
1.4395606e+00
2.5254154e+00
3.3999166e+00
3.4555167e+00
2.3523557e+00
4.9157165e-01
-1.2871183e+00
-2.3939334e+00
-2.7162397e+00
-2.4285156e+00
-1.7830012e+00
-1.0483718e+00
-4.3517991e-01
8.6385757e-03
3.2684575e-01
5.6360409e-01
7.5678204e-01
9.1811154e-01
1.0206196e+00
1.0230599e+00
9.1524105e-01
7.4470150e-01
5.4068408e-01
2.2889746e-01
-2.4954342e-01
-7.7586539e-01
-1.1452286e+00
-1.2805419e+00
-1.2313412e+00
-1.0174912e+00
-6.4347223e-01
-2.5186555e-01
-5.2135835e-02
3.0445137e-02
3.1712671e-01
8.9852609e-01
1.5232967e+00
1.8024212e+00
1.4591064e+00
5.7884728e-01
-4.5862736e-01
-1.2668604e+00
-1.6391019e+00
-1.6097888e+00
-1.3963784e+00
-1.2174644e+00
-1.1426446e+00
-1.1037726e+00
-9.4703147e-01
-4.7459178e-01
4.5501501e-01
1.8366717e+00
3.4357000e+00
4.6802332e+00
4.8404392e+00
3.5760073e+00
1.3100089e+00
-1.0076602e+00
-2.5776146e+00
-3.1720262e+00
-2.9744977e+00
-2.2825551e+00
-1.4187251e+00
-6.8980492e-01
-2.4071035e-01
-4.6049127e-04
1.7420104e-01
3.6556888e-01
5.4842119e-01
6.3192031e-01
5.5886169e-01
3.0498193e-01
-1.1747879e-01
-5.7763620e-01
-8.6395007e-01
-8.4532595e-01
-5.4379860e-01
-7.5263008e-02
3.9331462e-01
6.6087006e-01
6.1697311e-01
3.3232603e-01
-7.9467035e-03
-1.9305597e-01
-8.9378621e-02
2.8166805e-01
7.2960517e-01
9.4352178e-01
7.0696271e-01
9.9543536e-02
-5.9845245e-01
-1.1414424e+00
-1.4355635e+00
-1.4958540e+00
-1.3599292e+00
-1.0605108e+00
-5.9915844e-01
7.0269789e-02
9.5315211e-01
1.8919382e+00
2.5863248e+00
2.7387432e+00
2.2230169e+00
1.1685372e+00
-1.1831636e-01
-1.2482744e+00
-1.8762122e+00
-1.9002504e+00
-1.4960169e+00
-9.4250443e-01
-4.4687966e-01
-1.0082708e-01
1.2844812e-01
3.5967104e-01
6.5685954e-01
9.5407614e-01
1.1146225e+00
1.0391928e+00
7.2134248e-01
2.0946776e-01
-4.2343667e-01
-1.0200564e+00
-1.3722364e+00
-1.4033718e+00
-1.2335900e+00
-1.0419374e+00
-9.2837048e-01
-8.8864884e-01
-8.0106618e-01
-4.5980352e-01
2.9368192e-01
1.4642936e+00
2.8282477e+00
3.8834886e+00
4.0314630e+00
2.9784868e+00
1.0122610e+00
-1.0902389e+00
-2.5542845e+00
-3.0723372e+00
-2.8211187e+00
-2.1895353e+00
-1.5316781e+00
-1.0526637e+00
-7.3577990e-01
-3.9552168e-01
1.2849840e-01
8.8166778e-01
1.7952448e+00
2.6493955e+00
3.0625518e+00
2.6463833e+00
1.3517446e+00
-3.3411805e-01
-1.7363104e+00
-2.4806996e+00
-2.5390188e+00
-2.0200844e+00
-1.0681302e+00
3.5743252e-02
9.0882459e-01
1.4034309e+00
1.5854009e+00
1.4331459e+00
9.3592458e-01
2.4672951e-01
-4.3213751e-01
-9.5476680e-01
-1.2620448e+00
-1.3427225e+00
-1.1997894e+00
-9.1873563e-01
-6.6943452e-01
-5.7796495e-01
-6.3304546e-01
-7.3213257e-01
-7.4821212e-01
-5.2846006e-01
8.5296966e-02
1.1671033e+00
2.5832381e+00
3.8748711e+00
4.3506311e+00
3.5149507e+00
1.5306102e+00
-7.6036297e-01
-2.4404615e+00
-3.1128017e+00
-2.9268392e+00
-2.2772348e+00
-1.5416505e+00
-9.7109375e-01
-6.1228506e-01
-3.2582942e-01
3.9647834e-02
5.4949720e-01
1.1824748e+00
1.8198762e+00
2.2429391e+00
2.1715650e+00
1.4632282e+00
3.5882718e-01
-6.4839373e-01
-1.2265875e+00
-1.3884879e+00
-1.3082929e+00
-1.1113391e+00
-8.8759691e-01
-7.1378511e-01
-6.1931218e-01
-6.1623489e-01
-7.0193994e-01
-8.0919226e-01
-7.7612920e-01
-4.1509468e-01
3.6842114e-01
1.5168068e+00
2.7602866e+00
3.5955334e+00
3.4801440e+00
2.2392720e+00
3.6205267e-01
-1.3041404e+00
-2.2124074e+00
-2.3344049e+00
-1.9136494e+00
-1.2221282e+00
-5.1779169e-01
-2.1247388e-02
1.9207323e-01
1.8940664e-01
8.5686739e-02
-7.9172624e-03
-3.7364058e-03
1.2190633e-01
2.7362972e-01
3.0254932e-01
1.8495894e-01
4.4479760e-02
-3.6261729e-02
-1.1419215e-01
-2.6082503e-01
-4.4183374e-01
-5.8483945e-01
-6.7967451e-01
-7.5862375e-01
-8.4832600e-01
-9.4632372e-01
-9.7755454e-01
-7.7230058e-01
-1.5126970e-01
9.5492442e-01
2.4113841e+00
3.7465173e+00
4.2311307e+00
3.3714938e+00
1.4061929e+00
-7.6283651e-01
-2.2499841e+00
-2.7351968e+00
-2.4262658e+00
-1.7442945e+00
-1.0610730e+00
-5.9083274e-01
-3.2847839e-01
-1.1003844e-01
1.8490230e-01
5.5943628e-01
9.2389618e-01
1.1415750e+00
1.1048945e+00
7.4848592e-01
9.3497332e-02
-6.7351914e-01
-1.2991240e+00
-1.6634290e+00
-1.8152238e+00
-1.8258373e+00
-1.6995531e+00
-1.4236976e+00
-9.7436966e-01
-2.8313186e-01
7.1689474e-01
1.9973863e+00
3.3265363e+00
4.2472171e+00
4.2767488e+00
3.2859414e+00
1.6472099e+00
-1.8909805e-02
-1.2669743e+00
-2.0703581e+00
-2.5826892e+00
-2.8747072e+00
-2.9559604e+00
-2.8285713e+00
-2.5073999e+00
-1.9810209e+00
-1.1855931e+00
-8.3960415e-02
1.2579890e+00
2.6307991e+00
3.7066030e+00
4.1839182e+00
3.9235011e+00
2.9949671e+00
1.6262893e+00
7.9227323e-02
-1.4056155e+00
-2.5312333e+00
-2.9916312e+00
-2.7200238e+00
-1.9521448e+00
-1.0384714e+00
-2.8594331e-01
1.3675798e-01
2.8571124e-01
3.6597538e-01
5.1015795e-01
6.6718954e-01
6.9308078e-01
5.5012536e-01
3.5226373e-01
1.7837284e-01
-4.7585215e-02
-4.0824767e-01
-8.2781263e-01
-1.1731695e+00
-1.3883394e+00
-1.4681716e+00
-1.4155975e+00
-1.2254300e+00
-8.5102622e-01
-2.0902692e-01
7.4631573e-01
1.9577652e+00
3.2105761e+00
4.0885973e+00
4.0900219e+00
2.9332249e+00
8.7285788e-01
-1.3039922e+00
-2.7839387e+00
-3.2246250e+00
-2.7827181e+00
-1.8408081e+00
-7.5696619e-01
2.1376522e-01
9.3916930e-01
1.3419215e+00
1.3290113e+00
8.9427146e-01
2.0442229e-01
-4.4995062e-01
-8.2554216e-01
-8.9839007e-01
-8.4076619e-01
-8.0553831e-01
-7.9079438e-01
-7.4975124e-01
-6.6976288e-01
-5.1290103e-01
-2.1173516e-01
2.5708742e-01
8.3346824e-01
1.4014835e+00
1.8309877e+00
1.9928261e+00
1.7892427e+00
1.2572239e+00
5.6668719e-01
-1.6893703e-01
-9.3668262e-01
-1.6281919e+00
-2.0077757e+00
-1.9395497e+00
-1.4817863e+00
-7.9669190e-01
-8.0827537e-02
5.1043817e-01
9.4117165e-01
1.2461905e+00
1.4029851e+00
1.3011392e+00
8.6887648e-01
2.2326541e-01
-3.8932570e-01
-8.1049007e-01
-1.0611040e+00
-1.1952609e+00
-1.1683327e+00
-9.4430972e-01
-6.0584848e-01
-2.8971129e-01
-8.2876101e-02
1.7977574e-02
1.1400649e-01
3.5509099e-01
8.2387847e-01
1.4693224e+00
2.0877531e+00
2.3554670e+00
1.9667093e+00
8.2106998e-01
-8.2911238e-01
-2.4374206e+00
-3.4911259e+00
-3.7887286e+00
-3.4270215e+00
-2.6473719e+00
-1.6919257e+00
-6.8276961e-01
4.2336074e-01
1.6516726e+00
2.7528358e+00
3.3778286e+00
3.5919087e+00
3.8146465e+00
4.1112037e+00
3.9948765e+00
2.9899198e+00
1.1267257e+00
-1.0383284e+00
-2.8002730e+00
-3.7300772e+00
-3.7489987e+00
-3.0055818e+00
-1.8703453e+00
-8.5518600e-01
-2.8189047e-01
-9.0949473e-02
-3.4717403e-02
7.9778875e-02
3.0471543e-01
5.6372559e-01
7.0279248e-01
6.0166265e-01
3.0770222e-01
-1.9887103e-02
-2.8274713e-01
-4.9236144e-01
-6.9882811e-01
-8.9597167e-01
-1.0064842e+00
-9.5272886e-01
-7.0647870e-01
-2.8403491e-01
2.9616119e-01
1.0449974e+00
1.9169769e+00
2.6494094e+00
2.7943272e+00
2.0764544e+00
7.4943798e-01
-5.6740998e-01
-1.4367904e+00
-1.8693596e+00
-2.0851411e+00
-2.1621463e+00
-2.0138154e+00
-1.5564312e+00
-7.9576953e-01
1.6432544e-01
1.2069472e+00
2.2385849e+00
3.0352851e+00
3.1790073e+00
2.3385910e+00
6.7573866e-01
-1.1051217e+00
-2.2609112e+00
-2.4957193e+00
-1.9824871e+00
-1.1050305e+00
-2.2136946e-01
4.0939734e-01
6.9842297e-01
7.2378675e-01
5.7474991e-01
2.8428591e-01
-9.6771209e-02
-4.2600363e-01
-5.4244735e-01
-4.0915767e-01
-1.5376619e-01
3.3557708e-02
3.8159210e-02
-1.5133928e-01
-4.5882363e-01
-7.4700079e-01
-9.0060472e-01
-8.5467882e-01
-5.4479599e-01
9.2258015e-02
1.0197630e+00
1.9956579e+00
2.6385630e+00
2.6540750e+00
2.0017331e+00
8.9083430e-01
-3.5297131e-01
-1.3817318e+00
-1.8962916e+00
-1.8248219e+00
-1.4005119e+00
-9.6064114e-01
-7.1421245e-01
-6.9199027e-01
-7.4272967e-01
-6.0886935e-01
-1.2415367e-01
6.7218864e-01
1.5491752e+00
2.2003344e+00
2.3657112e+00
1.8705869e+00
7.2532104e-01
-7.4255510e-01
-2.0092248e+00
-2.6980686e+00
-2.7420945e+00
-2.2427381e+00
-1.3296957e+00
-1.1906380e-01
1.3071933e+00
2.7743817e+00
3.8241327e+00
3.8561455e+00
2.6546589e+00
7.1902613e-01
-1.0929959e+00
-2.2098542e+00
-2.5919714e+00
-2.4644624e+00
-1.9984181e+00
-1.3251959e+00
-6.2800761e-01
-1.2518784e-01
-5.2656208e-03
-2.7316920e-01
-6.4189387e-01
-6.7593168e-01
-9.4805100e-02
9.9701696e-01
2.1607481e+00
2.9991742e+00
3.2212723e+00
2.5708524e+00
1.2076704e+00
-2.7267514e-01
-1.3332621e+00
-1.7774440e+00
-1.7273391e+00
-1.4476950e+00
-1.1397396e+00
-8.7493634e-01
-6.3205458e-01
-3.6747538e-01
-8.6077269e-02
1.9525309e-01
4.9358775e-01
8.2545401e-01
1.1191680e+00
1.1542368e+00
7.3871771e-01
-1.7320218e-02
-7.6292479e-01
-1.2201499e+00
-1.3599189e+00
-1.2988591e+00
-1.1143395e+00
-8.3164618e-01
-4.7718487e-01
-6.4950548e-02
4.1573564e-01
9.9999802e-01
1.7262304e+00
2.4963890e+00
2.9413146e+00
2.5964501e+00
1.3573387e+00
-3.0647253e-01
-1.7021776e+00
-2.3752720e+00
-2.2739499e+00
-1.6437315e+00
-8.3595244e-01
-1.7097263e-01
2.0535347e-01
3.6283055e-01
4.1577540e-01
3.7316137e-01
1.8383435e-01
-1.1952148e-01
-3.9861792e-01
-5.7017499e-01
-6.7939587e-01
-7.6175402e-01
-7.6288427e-01
-6.6119952e-01
-5.3537076e-01
-4.0782828e-01
-1.3777886e-01
4.3230716e-01
1.2851253e+00
2.1991133e+00
2.8259410e+00
2.7814074e+00
1.8389854e+00
2.1841865e-01
-1.4372089e+00
-2.5166506e+00
-2.7628710e+00
-2.2298022e+00
-1.1441601e+00
2.0710907e-01
1.5196249e+00
2.4196356e+00
2.5275116e+00
1.7722992e+00
5.8122748e-01
-4.6234178e-01
-1.0750181e+00
-1.2662106e+00
-1.1453316e+00
-8.3699677e-01
-4.2992619e-01
9.2043635e-03
3.9366018e-01
5.9755618e-01
4.7321867e-01
-3.6280302e-02
-7.7880267e-01
-1.4292804e+00
-1.7181483e+00
-1.6285111e+00
-1.3026889e+00
-7.9495029e-01
-4.8306773e-02
9.1473863e-01
1.8999819e+00
2.5983368e+00
2.7200839e+00
2.1496748e+00
1.0401869e+00
-2.0134884e-01
-1.1413768e+00
-1.6108408e+00
-1.7315469e+00
-1.7090424e+00
-1.6378734e+00
-1.4961076e+00
-1.2340836e+00
-8.2220824e-01
-2.6978681e-01
3.9607022e-01
1.1294012e+00
1.7744052e+00
2.0624606e+00
1.8783715e+00
1.4844483e+00
1.2618517e+00
1.2164872e+00
9.7799973e-01
2.9127064e-01
-6.8957055e-01
-1.5952947e+00
-2.1835063e+00
-2.3852041e+00
-2.1750304e+00
-1.5966583e+00
-8.4366876e-01
-1.1414441e-01
6.8464263e-01
1.7286185e+00
2.7418006e+00
3.1292432e+00
2.5621145e+00
1.2597322e+00
-2.1155401e-01
-1.3306933e+00
-1.8493300e+00
-1.8247150e+00
-1.4939480e+00
-1.0818296e+00
-6.6015354e-01
-1.8880431e-01
3.0921069e-01
6.9976314e-01
8.5073705e-01
7.4748358e-01
4.6420180e-01
8.5913158e-02
-2.9136302e-01
-5.6935708e-01
-6.8615327e-01
-6.4435729e-01
-4.9781153e-01
-3.1845984e-01
-1.8195047e-01
-1.1390709e-01
-7.1279883e-02
-2.8496318e-02
-1.5692098e-02
-5.6180696e-02
-8.9555353e-02
3.8175897e-02
4.6131220e-01
1.1057204e+00
1.6723453e+00
1.8661338e+00
1.5860426e+00
9.3055995e-01
9.4049578e-02
-7.5388601e-01
-1.5225765e+00
-2.1520903e+00
-2.5589104e+00
-2.6759584e+00
-2.4916832e+00
-1.9954081e+00
-1.1172683e+00
2.2432115e-01
2.0041205e+00
3.9614877e+00
5.4618566e+00
5.6728155e+00
4.1773547e+00
1.4692695e+00
-1.2770293e+00
-3.0459270e+00
-3.5072301e+00
-2.9220943e+00
-1.8283330e+00
-7.8870428e-01
-2.2245075e-01
-1.8995420e-01
-4.3502438e-01
-7.0736734e-01
-9.1888796e-01
-1.1048025e+00
-1.2686509e+00
-1.2934035e+00
-1.0680291e+00
-5.6027460e-01
2.5303497e-01
1.3900597e+00
2.7141631e+00
3.8117011e+00
4.1606070e+00
3.4853060e+00
1.9414491e+00
-2.4514611e-03
-1.7732717e+00
-2.8740498e+00
-3.1132947e+00
-2.6618051e+00
-1.8415082e+00
-9.3593384e-01
-1.2451191e-01
5.5104990e-01
1.1110302e+00
1.4914658e+00
1.5309479e+00
1.1499543e+00
5.3832780e-01
2.1469379e-02
-2.5225764e-01
-3.9073116e-01
-5.2743263e-01
-6.3501807e-01
-6.6852674e-01
-7.1418134e-01
-8.8595163e-01
-1.1677257e+00
-1.4172688e+00
-1.4661164e+00
-1.1692705e+00
-4.3764021e-01
7.2943845e-01
2.2020430e+00
3.6296257e+00
4.4340005e+00
4.0600975e+00
2.4243646e+00
1.7880870e-01
-1.7106803e+00
-2.7070157e+00
-2.9078247e+00
-2.6798379e+00
-2.2851813e+00
-1.8778867e+00
-1.5788497e+00
-1.4278445e+00
-1.3900801e+00
-1.3663631e+00
-1.1593331e+00
-4.8075726e-01
9.1321837e-01
2.9785166e+00
5.3427064e+00
7.1720062e+00
7.1696677e+00
4.6925513e+00
7.2237200e-01
-2.9656304e+00
-5.2695634e+00
-6.0250834e+00
-5.4935748e+00
-4.0504254e+00
-2.0865498e+00
3.3627827e-02
1.9904228e+00
3.3964684e+00
3.7819806e+00
2.9063878e+00
1.1305029e+00
-6.8466798e-01
-1.8018630e+00
-2.0337382e+00
-1.6608876e+00
-1.0837263e+00
-5.4353596e-01
-1.8248487e-01
-9.5251437e-02
-2.4022849e-01
-4.7777825e-01
-6.5925018e-01
-6.4807421e-01
-3.0960091e-01
4.3353032e-01
1.4692228e+00
2.4511767e+00
2.9681087e+00
2.7668269e+00
1.8245926e+00
3.5198782e-01
-1.2177685e+00
-2.3991632e+00
-2.9274641e+00
-2.8515928e+00
-2.3541671e+00
-1.5708777e+00
-5.8673653e-01
5.5928019e-01
1.8263893e+00
3.0048543e+00
3.6494913e+00
3.3345247e+00
2.1128645e+00
5.7167467e-01
-6.8098181e-01
-1.4298839e+00
-1.7448340e+00
-1.7147493e+00
-1.4469485e+00
-1.1010653e+00
-8.1727394e-01
-7.0053821e-01
-7.8123157e-01
-9.5664567e-01
-1.0760141e+00
-1.0749091e+00
-9.6223532e-01
-7.3719221e-01
-3.3782586e-01
3.5849134e-01
1.4419896e+00
2.8095397e+00
4.0091597e+00
4.3274962e+00
3.2806119e+00
1.1329397e+00
-1.1777470e+00
-2.7309276e+00
-3.1565370e+00
-2.6319615e+00
-1.6410876e+00
-7.1137589e-01
-1.7357567e-01
7.1888219e-03
1.1354034e-01
3.4462586e-01
6.6645373e-01
9.0777745e-01
9.3219891e-01
7.3170323e-01
3.6851031e-01
-9.8656809e-02
-5.7469194e-01
-9.2234029e-01
-1.0770860e+00
-1.0937223e+00
-1.0561076e+00
-1.0120785e+00
-9.8396270e-01
-9.3369449e-01
-7.2929822e-01
-2.2015061e-01
6.6254745e-01
1.8256309e+00
2.9630541e+00
3.6040329e+00
3.3025592e+00
1.9759291e+00
1.3523720e-01
-1.3959058e+00
-2.0593415e+00
-1.8733905e+00
-1.2489378e+00
-5.9626711e-01
-1.8624640e-01
-1.3608085e-01
-3.7894765e-01
-7.6131659e-01
-1.1576362e+00
-1.4529069e+00
-1.4509881e+00
-9.3127779e-01
1.6142659e-01
1.6032801e+00
2.8998598e+00
3.4690300e+00
2.9726133e+00
1.5995944e+00
6.3027722e-03
-1.1343072e+00
-1.5483957e+00
-1.5030400e+00
-1.3480934e+00
-1.0901327e+00
-7.7638331e-01
-6.1190853e-01
-6.8539147e-01
-9.2425724e-01
-1.1419087e+00
-1.1279311e+00
-7.2535805e-01
1.1117286e-01
1.2478947e+00
2.3685006e+00
3.0711512e+00
3.0407726e+00
2.2284071e+00
8.8770597e-01
-5.2509764e-01
-1.5763363e+00
-2.1027757e+00
-2.2181446e+00
-2.0881293e+00
-1.8027368e+00
-1.4534372e+00
-1.1072299e+00
-6.9663554e-01
-7.1509970e-02
8.4059286e-01
1.9278784e+00
2.9067046e+00
3.4218738e+00
3.1775615e+00
2.0936746e+00
4.8614589e-01
-1.0279466e+00
-1.9708266e+00
-2.2737554e+00
-2.1443161e+00
-1.8126893e+00
-1.4391382e+00
-1.1134528e+00
-8.6538961e-01
-7.0002365e-01
-5.6872925e-01
-3.4037625e-01
1.3587122e-01
9.0532217e-01
1.8136942e+00
2.5639641e+00
2.9090169e+00
2.7483598e+00
2.0574118e+00
8.8016408e-01
-5.4017601e-01
-1.7828726e+00
-2.5390708e+00
-2.7880396e+00
-2.6799445e+00
-2.3905625e+00
-2.0492284e+00
-1.6260657e+00
-9.0424888e-01
3.3106328e-01
2.0690211e+00
3.9233400e+00
5.1502324e+00
5.0507319e+00
3.4837307e+00
1.0282241e+00
-1.3258187e+00
-2.7777989e+00
-3.0965721e+00
-2.5486519e+00
-1.6017319e+00
-7.2717964e-01
-3.0026643e-01
-3.7010294e-01
-6.5683448e-01
-9.1169407e-01
-1.0931495e+00
-1.2514624e+00
-1.3430852e+00
-1.2017793e+00
-7.0972031e-01
1.3288382e-01
1.2721972e+00
2.5671413e+00
3.6639162e+00
4.0538999e+00
3.4323975e+00
1.9888574e+00
2.6706669e-01
-1.2205484e+00
-2.1847800e+00
-2.4998751e+00
-2.1675114e+00
-1.3271137e+00
-3.0097441e-01
4.6346245e-01
7.0821768e-01
5.4773097e-01
2.2971217e-01
-1.2309113e-01
-4.4691945e-01
-6.5769935e-01
-7.2022794e-01
-6.9040756e-01
-6.5901366e-01
-6.5240476e-01
-6.1864566e-01
-4.9828703e-01
-2.7602242e-01
4.6375097e-03
2.6259474e-01
4.1653088e-01
4.2157392e-01
3.2748689e-01
2.7576809e-01
3.7502992e-01
5.8991221e-01
7.7272879e-01
8.0268690e-01
6.1974271e-01
1.6249284e-01
-5.1651886e-01
-1.1038397e+00
-1.1924044e+00
-6.4314101e-01
2.7712702e-01
1.2407621e+00
2.0617842e+00
2.4472475e+00
2.1173603e+00
1.1173266e+00
-2.1523374e-01
-1.4594371e+00
-2.3081352e+00
-2.6232073e+00
-2.4254450e+00
-1.9041781e+00
-1.3281340e+00
-8.5388454e-01
-4.6989961e-01
-9.7704266e-02
3.4772274e-01
9.4739969e-01
1.7310515e+00
2.5756063e+00
3.1604625e+00
3.1650492e+00
2.5121173e+00
1.3484793e+00
-8.1161005e-02
-1.4513382e+00
-2.4077396e+00
-2.7654856e+00
-2.5937458e+00
-2.0923709e+00
-1.4658887e+00
-8.3897158e-01
-2.0030228e-01
5.1758541e-01
1.2425470e+00
1.7102265e+00
1.6956848e+00
1.2574768e+00
6.6184051e-01
1.0092064e-01
-4.1736555e-01
-8.8840879e-01
-1.1651122e+00
-1.0767749e+00
-5.8647927e-01
1.3816509e-01
7.4047850e-01
8.7989098e-01
5.0897749e-01
-1.0064085e-01
-5.8818923e-01
-6.9917833e-01
-3.6673017e-01
2.8122587e-01
9.4340551e-01
1.2375612e+00
9.7341758e-01
3.2767928e-01
-3.6583102e-01
-9.2495292e-01
-1.3874352e+00
-1.8280039e+00
-2.1711365e+00
-2.2611313e+00
-2.0091594e+00
-1.3752988e+00
-3.1300752e-01
1.1943747e+00
3.0133613e+00
4.6885010e+00
5.4644419e+00
4.7039819e+00
2.4684571e+00
-3.0048090e-01
-2.4390053e+00
-3.3933091e+00
-3.3569616e+00
-2.8478050e+00
-2.2679856e+00
-1.8148364e+00
-1.4964657e+00
-1.1382052e+00
-5.2880131e-01
4.6682037e-01
1.8512096e+00
3.3863303e+00
4.5281142e+00
4.5863537e+00
3.2049738e+00
8.7048822e-01
-1.3513938e+00
-2.7171267e+00
-3.1836714e+00
-3.0626987e+00
-2.6311533e+00
-2.0649769e+00
-1.4516969e+00
-7.6531347e-01
4.7102735e-02
9.7797776e-01
1.9298036e+00
2.6956017e+00
2.9976905e+00
2.5995141e+00
1.4988178e+00
9.4188109e-02
-1.0371921e+00
-1.6006150e+00
-1.7039977e+00
-1.5817048e+00
-1.3336338e+00
-9.7389883e-01
-5.5639048e-01
-1.4482135e-01
2.2022676e-01
4.9240428e-01
6.4628185e-01
7.4127271e-01
8.4983575e-01
8.8717706e-01
6.4818800e-01
8.4043170e-02
-6.1316036e-01
-1.2346063e+00
-1.6801175e+00
-1.8486414e+00
-1.6032706e+00
-9.9385753e-01
-3.5341496e-01
2.2275656e-01
1.0278563e+00
2.0739117e+00
2.9451621e+00
3.1600255e+00
2.4583814e+00
1.0041384e+00
-6.3205265e-01
-1.7549969e+00
-1.9601293e+00
-1.3572312e+00
-4.7602162e-01
1.3505309e-01
2.8607937e-01
7.4881190e-02
-3.4270861e-01
-8.0304410e-01
-1.1435177e+00
-1.2535970e+00
-1.0719403e+00
-5.3438358e-01
3.5951808e-01
1.3621537e+00
2.0276635e+00
2.0762682e+00
1.6027988e+00
8.8861214e-01
1.0242798e-01
-6.8873512e-01
-1.3107144e+00
-1.5679850e+00
-1.4674519e+00
-1.1685228e+00
-8.2692276e-01
-5.6366044e-01
-4.1945754e-01
-2.8349254e-01
2.5189982e-02
5.7275952e-01
1.2413911e+00
1.8503165e+00
2.2573777e+00
2.2950728e+00
1.7842754e+00
8.0268413e-01
-2.5002900e-01
-1.0305678e+00
-1.5086010e+00
-1.8136949e+00
-1.9893189e+00
-1.9676568e+00
-1.6763667e+00
-1.0879728e+00
-2.5515449e-01
6.7592339e-01
1.5075860e+00
2.0338212e+00
2.0647253e+00
1.4812124e+00
3.7111356e-01
-8.7186478e-01
-1.7610204e+00
-2.0836932e+00
-1.9808266e+00
-1.6753181e+00
-1.2190738e+00
-5.6350401e-01
3.0375678e-01
1.3334601e+00
2.3849636e+00
3.1938147e+00
3.4285930e+00
2.9118703e+00
1.7697092e+00
3.0912570e-01
-1.1599364e+00
-2.3439421e+00
-2.9795209e+00
-2.9953113e+00
-2.5583384e+00
-1.8873415e+00
-1.1072029e+00
-2.5786398e-01
6.8493656e-01
1.7473777e+00
2.7575938e+00
3.2389501e+00
2.7299375e+00
1.3314693e+00
-2.6506093e-01
-1.3738925e+00
-1.7663581e+00
-1.5766186e+00
-1.0452417e+00
-4.6743631e-01
-1.4806319e-01
-1.9682861e-01
-4.5791474e-01
-6.8298708e-01
-6.5802077e-01
-2.4986353e-01
5.0563453e-01
1.3410204e+00
1.8576689e+00
1.8245395e+00
1.3282090e+00
5.8062266e-01
-2.5863203e-01
-1.0338249e+00
-1.5373265e+00
-1.6339069e+00
-1.3784651e+00
-9.2714202e-01
-4.1496100e-01
5.4570465e-02
4.3433222e-01
7.7120041e-01
1.0923495e+00
1.2298538e+00
9.5135932e-01
3.2034980e-01
-3.0276176e-01
-6.2486081e-01
-6.1462124e-01
-3.4168707e-01
1.7908708e-01
7.6683698e-01
9.0479436e-01
2.7803082e-01
-8.4140504e-01
-1.9713247e+00
-2.6793664e+00
-2.7078959e+00
-2.0644817e+00
-8.6451090e-01
7.4588498e-01
2.4713679e+00
3.8007543e+00
4.1511598e+00
3.2780013e+00
1.6260943e+00
3.2145723e-03
-1.0696338e+00
-1.5872605e+00
-1.7874436e+00
-1.8002051e+00
-1.6427148e+00
-1.3077424e+00
-7.7328059e-01
-9.5858301e-02
5.3337741e-01
9.2328423e-01
1.0563924e+00
1.0162339e+00
7.8761527e-01
2.7759429e-01
-4.5303721e-01
-1.1257958e+00
-1.5031669e+00
-1.5884453e+00
-1.4952127e+00
-1.2553914e+00
-8.3578057e-01
-2.1289299e-01
6.0926141e-01
1.5638135e+00
2.4600020e+00
3.0184161e+00
3.0562124e+00
2.5605157e+00
1.5783679e+00
2.1482737e-01
-1.2090432e+00
-2.2161527e+00
-2.5291616e+00
-2.2417907e+00
-1.6384520e+00
-9.7715177e-01
-4.2292901e-01
-1.3336365e-02
3.1986904e-01
6.1104509e-01
7.6862164e-01
6.7366075e-01
3.7713851e-01
8.2808651e-02
-6.6425327e-02
-9.9068950e-02
-1.1212966e-01
-1.6299644e-01
-3.3717617e-01
-7.2474245e-01
-1.2323244e+00
-1.5945639e+00
-1.5778946e+00
-1.0637838e+00
-4.5240890e-02
1.3488483e+00
2.8116994e+00
3.8501781e+00
3.9983870e+00
3.1333778e+00
1.5278261e+00
-3.2689503e-01
-1.8963515e+00
-2.7777261e+00
-2.8843508e+00
-2.4577235e+00
-1.8148326e+00
-1.1312600e+00
-4.9635917e-01
1.8361716e-02
3.9541392e-01
6.7074004e-01
8.6636846e-01
9.8057388e-01
1.0829844e+00
1.2627810e+00
1.4067740e+00
1.2052908e+00
5.5350262e-01
-2.4155476e-01
-8.3703811e-01
-1.1863488e+00
-1.3998987e+00
-1.4993102e+00
-1.4314876e+00
-1.1789515e+00
-7.4399068e-01
-1.3618497e-01
5.7723834e-01
1.2730306e+00
1.8217507e+00
2.0876808e+00
1.9043731e+00
1.1995857e+00
2.1162644e-01
-6.1361986e-01
-1.0257530e+00
-1.1615431e+00
-1.2800738e+00
-1.4292400e+00
-1.4970922e+00
-1.3719659e+00
-9.5954663e-01
-2.0911499e-01
8.3010004e-01
1.9716950e+00
2.8599945e+00
3.0720950e+00
2.4177341e+00
1.1540053e+00
-1.5970388e-01
-1.0575009e+00
-1.4469294e+00
-1.7019296e+00
-2.1457133e+00
-2.5737301e+00
-2.7274275e+00
-2.5329931e+00
-1.9517515e+00
-1.0039278e+00
2.7601868e-01
1.8229224e+00
3.3596555e+00
4.3105275e+00
4.0684063e+00
2.5411427e+00
4.1260165e-01
-1.3720481e+00
-2.3110904e+00
-2.5008463e+00
-2.3483406e+00
-2.2015238e+00
-2.1705258e+00
-2.0992338e+00
-1.6346800e+00
-4.6645612e-01
1.4340861e+00
3.6560725e+00
5.3775361e+00
5.7816057e+00
4.5708741e+00
2.1736174e+00
-4.1906308e-01
-2.2444209e+00
-2.9809771e+00
-2.9327363e+00
-2.5638895e+00
-2.1421613e+00
-1.7154964e+00
-1.1995137e+00
-5.0633820e-01
2.7123020e-01
9.0357272e-01
1.2105590e+00
1.1711242e+00
8.9697757e-01
4.9293177e-01
6.9351159e-03
-4.5396032e-01
-7.1790178e-01
-7.5455385e-01
-7.4161332e-01
-8.4007163e-01
-1.0077529e+00
-1.1076665e+00
-1.0683442e+00
-8.6594832e-01
-4.5650524e-01
2.0336190e-01
1.1060318e+00
2.1841288e+00
3.2440835e+00
3.8612897e+00
3.5497252e+00
2.2412184e+00
4.7314633e-01
-1.0668453e+00
-2.0769257e+00
-2.5889082e+00
-2.6446820e+00
-2.2950906e+00
-1.6797020e+00
-9.4872308e-01
-2.1240514e-01
4.4842254e-01
9.9335563e-01
1.3971916e+00
1.5663052e+00
1.3432487e+00
6.8982021e-01
-1.4536098e-01
-7.9278667e-01
-1.0839503e+00
-1.1136933e+00
-1.0420349e+00
-9.3271711e-01
-7.9693887e-01
-6.4883036e-01
-4.5639246e-01
-1.4579512e-01
3.1757696e-01
9.0177193e-01
1.5210964e+00
2.0067073e+00
2.0921008e+00
1.5447561e+00
4.4268346e-01
-7.7483791e-01
-1.6514637e+00
-2.0163711e+00
-1.9579792e+00
-1.6487258e+00
-1.2207519e+00
-6.8544275e-01
6.9684250e-02
1.0905908e+00
2.1236857e+00
2.7100775e+00
2.5688604e+00
1.8349511e+00
8.9158039e-01
1.6862211e-02
-6.5594612e-01
-1.0022612e+00
-9.8157868e-01
-7.2256584e-01
-4.5705715e-01
-4.0928049e-01
-6.9932848e-01
-1.2582830e+00
-1.8666385e+00
-2.3378566e+00
-2.6140467e+00
-2.6872737e+00
-2.4646629e+00
-1.7523857e+00
-3.9316108e-01
1.5993187e+00
3.9053833e+00
5.7797786e+00
6.4171275e+00
5.7015986e+00
4.2630923e+00
2.6196029e+00
7.7012941e-01
-1.2476986e+00
-3.0886980e+00
-4.3568847e+00
-4.8007869e+00
-4.4160293e+00
-3.3772882e+00
-1.9115987e+00
-2.5566670e-01
1.3393633e+00
2.5501522e+00
3.0042048e+00
2.4887070e+00
1.1808231e+00
-3.5762825e-01
-1.5321781e+00
-2.0667549e+00
-2.0060795e+00
-1.5276843e+00
-8.1634098e-01
-6.0990201e-02
6.0080264e-01
1.1621504e+00
1.6401273e+00
1.8980717e+00
1.6819674e+00
9.1983508e-01
-9.1473018e-02
-8.8241233e-01
-1.1446210e+00
-8.4823677e-01
-1.6672605e-01
5.8041086e-01
1.0211229e+00
9.1931249e-01
3.1025794e-01
-5.3640760e-01
-1.2926341e+00
-1.7762552e+00
-1.9965878e+00
-1.9952434e+00
-1.7362963e+00
-1.1482362e+00
-2.0946281e-01
1.0214101e+00
2.3683029e+00
3.4260767e+00
3.6528796e+00
2.7709080e+00
1.0786401e+00
-6.8949446e-01
-1.8560422e+00
-2.1600286e+00
-1.7802675e+00
-1.0877675e+00
-3.6458375e-01
2.0650830e-01
5.1312416e-01
5.5538831e-01
4.0946389e-01
1.8812616e-01
2.9061669e-02
4.3614196e-02
2.1093320e-01
3.4564280e-01
2.5055659e-01
-7.1839432e-02
-4.4426219e-01
-7.2973706e-01
-9.0313422e-01
-9.7815733e-01
-9.7112511e-01
-9.0689594e-01
-7.9826349e-01
-6.0205930e-01
-2.1929516e-01
4.2478457e-01
1.3107240e+00
2.2852307e+00
2.9910461e+00
2.9609031e+00
2.0085660e+00
5.2690986e-01
-7.8490904e-01
-1.4970464e+00
-1.6751888e+00
-1.6448886e+00
-1.6185889e+00
-1.5744710e+00
-1.3758907e+00
-9.3468124e-01
-3.1692407e-01
3.4920197e-01
9.8306262e-01
1.4986004e+00
1.7011712e+00
1.3280763e+00
3.5765351e-01
-7.7896458e-01
-1.5088701e+00
-1.5704484e+00
-1.1442996e+00
-6.4532319e-01
-3.8059388e-01
-4.0903030e-01
-5.5878038e-01
-5.1063953e-01
1.0405951e-02
1.0804227e+00
2.4725028e+00
3.6376020e+00
3.9370068e+00
3.0201160e+00
1.1219342e+00
-9.8228766e-01
-2.5075077e+00
-3.1597968e+00
-3.1592263e+00
-2.9132501e+00
-2.6876718e+00
-2.5276006e+00
-2.2611907e+00
-1.5712343e+00
-2.6846735e-01
1.3856039e+00
2.8129596e+00
3.8717540e+00
4.8048590e+00
5.3872475e+00
5.0192050e+00
3.3796552e+00
7.8562322e-01
-1.9097839e+00
-3.8791061e+00
-4.7131573e+00
-4.4324393e+00
-3.3666167e+00
-1.9731719e+00
-6.0407618e-01
5.7499970e-01
1.4365334e+00
1.8566511e+00
1.8445295e+00
1.5274142e+00
9.9350805e-01
2.6950896e-01
-5.0605705e-01
-1.0744312e+00
-1.3199451e+00
-1.3771269e+00
-1.4048372e+00
-1.4052920e+00
-1.3114710e+00
-1.0554549e+00
-5.2453973e-01
3.9927433e-01
1.6930879e+00
3.0461826e+00
3.8779385e+00
3.6529511e+00
2.2958960e+00
3.1362037e-01
-1.4740733e+00
-2.4169160e+00
-2.3704746e+00
-1.6913023e+00
-9.2276128e-01
-4.2147723e-01
-2.7934950e-01
-3.7993175e-01
-4.9157979e-01
-4.5063503e-01
-2.5595179e-01
-1.2085796e-02
2.2973854e-01
5.4315048e-01
9.7650025e-01
1.3942880e+00
1.5744605e+00
1.3925818e+00
8.1919633e-01
-9.0450982e-02
-1.0900221e+00
-1.7822921e+00
-1.8747927e+00
-1.3411446e+00
-3.8178317e-01
6.4627268e-01
1.3481694e+00
1.5190043e+00
1.2566994e+00
7.9324774e-01
2.6967346e-01
-2.9772750e-01
-8.7098835e-01
-1.3101195e+00
-1.5173843e+00
-1.5574332e+00
-1.5451714e+00
-1.4987420e+00
-1.3611969e+00
-1.0490917e+00
-4.3681067e-01
6.0209667e-01
2.0548233e+00
3.5773736e+00
4.4863959e+00
4.1476654e+00
2.5041958e+00
2.5446931e-01
-1.6132028e+00
-2.5130445e+00
-2.4516026e+00
-1.8187236e+00
-1.0848081e+00
-5.4374308e-01
-2.8446454e-01
-2.1562188e-01
-1.3672280e-01
5.3288680e-02
2.4209350e-01
2.4521218e-01
6.3515219e-02
-1.1884327e-01
-1.9314263e-01
-1.9219743e-01
-1.0703097e-01
1.4401635e-01
4.8587360e-01
6.1012572e-01
2.7081320e-01
-4.2388276e-01
-1.1181722e+00
-1.4878673e+00
-1.3559801e+00
-7.0881408e-01
3.1429101e-01
1.4523669e+00
2.3912441e+00
2.8260640e+00
2.4909070e+00
1.3716280e+00
-7.3426999e-02
-1.1903023e+00
-1.6330942e+00
-1.5296862e+00
-1.2237100e+00
-9.3657689e-01
-7.1177322e-01
-4.4920099e-01
3.1784730e-02
7.3275278e-01
1.2237429e+00
8.9211104e-01
-1.8553166e-01
-1.2782865e+00
-2.0038820e+00
-2.3609787e+00
-2.3381077e+00
-1.9087946e+00
-1.0046391e+00
4.6359668e-01
2.4356324e+00
4.4409931e+00
5.5978037e+00
5.1669637e+00
3.2534409e+00
7.9110059e-01
-1.2722956e+00
-2.5513044e+00
-3.0379546e+00
-2.8430098e+00
-2.2295209e+00
-1.5449642e+00
-1.0117583e+00
-6.6206943e-01
-4.3506203e-01
-2.5609338e-01
-3.6711197e-02
2.8557356e-01
6.7681081e-01
1.0375717e+00
1.3097919e+00
1.4629486e+00
1.3669107e+00
8.5881964e-01
1.7753747e-02
-7.9153191e-01
-1.2306094e+00
-1.2478819e+00
-1.0210434e+00
-7.6102961e-01
-6.1055550e-01
-5.8225407e-01
-5.3769849e-01
-3.2950063e-01
4.0954070e-02
4.4728006e-01
8.1661967e-01
1.2042132e+00
1.5981879e+00
1.7710941e+00
1.5032512e+00
8.4339728e-01
-1.3817177e-02
-9.1230014e-01
-1.6677611e+00
-2.0483691e+00
-1.9328737e+00
-1.3858594e+00
-5.7313366e-01
3.3684015e-01
1.2004230e+00
1.8735103e+00
2.1689085e+00
1.9216109e+00
1.1340381e+00
1.7072383e-02
-1.0447091e+00
-1.6826998e+00
-1.8109499e+00
-1.6331345e+00
-1.3860414e+00
-1.1568591e+00
-9.7882489e-01
-8.9592565e-01
-8.3315801e-01
-5.4501732e-01
2.3175682e-01
1.5568984e+00
3.1323537e+00
4.3149137e+00
4.4221344e+00
3.2098475e+00
1.1683997e+00
-8.0330026e-01
-2.1228121e+00
-2.7756199e+00
-2.9903118e+00
-2.9055087e+00
-2.5693250e+00
-2.0328176e+00
-1.3315793e+00
-4.9628712e-01
4.3484516e-01
1.4240569e+00
2.3782085e+00
3.0525889e+00
3.0642280e+00
2.1922313e+00
7.4655536e-01
-6.1512513e-01
-1.4829328e+00
-1.9115622e+00
-2.0818200e+00
-1.9979894e+00
-1.6187545e+00
-1.0100434e+00
-2.7786561e-01
5.0490565e-01
1.2922015e+00
2.0197238e+00
2.5428008e+00
2.6238565e+00
2.0590001e+00
9.0731418e-01
-4.0781799e-01
-1.3956353e+00
-1.8900375e+00
-2.0874119e+00
-2.2485805e+00
-2.4385995e+00
-2.5995455e+00
-2.6678203e+00
-2.5303365e+00
-2.0163223e+00
-9.8717463e-01
5.9673406e-01
2.5964709e+00
4.4975499e+00
5.5126412e+00
5.2389713e+00
4.2045265e+00
3.1922866e+00
2.2424624e+00
1.0112179e+00
-6.0263524e-01
-2.3776396e+00
-3.8913819e+00
-4.7938720e+00
-4.9373825e+00
-4.3611197e+00
-3.2471473e+00
-1.8065847e+00
-1.5298981e-01
1.7072973e+00
3.6994721e+00
5.4316654e+00
6.1917229e+00
5.3990338e+00
3.1638219e+00
3.3126499e-01
-2.0719444e+00
-3.4116549e+00
-3.5885141e+00
-2.9042207e+00
-1.8294114e+00
-8.4280881e-01
-3.6287361e-01
-4.9636652e-01
-9.4200614e-01
-1.3518270e+00
-1.6248437e+00
-1.8342102e+00
-1.9997453e+00
-1.9914466e+00
-1.6542814e+00
-8.9562539e-01
3.4071728e-01
2.0339849e+00
3.9420326e+00
5.5045634e+00
6.0483417e+00
5.2212234e+00
3.2577959e+00
8.1528026e-01
-1.3740564e+00
-2.7238685e+00
-3.0169011e+00
-2.4797120e+00
-1.6018325e+00
-8.9121779e-01
-6.2261890e-01
-7.0650014e-01
-8.5068856e-01
-8.5580379e-01
-6.9335418e-01
-4.0672843e-01
-3.3032770e-02
3.8483613e-01
7.2395747e-01
8.1173722e-01
5.6999209e-01
7.2652460e-02
-5.3725724e-01
-1.1230858e+00
-1.5428978e+00
-1.6803899e+00
-1.5141391e+00
-1.0754110e+00
-3.5410564e-01
6.9719102e-01
2.0370868e+00
3.3740604e+00
4.1825521e+00
3.9936914e+00
2.6983693e+00
6.7174280e-01
-1.3359300e+00
-2.6004193e+00
-2.8131506e+00
-2.1502909e+00
-1.1099354e+00
-2.3350171e-01
1.8232790e-01
2.0201925e-01
4.1753221e-02
-1.9325133e-01
-4.5738636e-01
-6.4915234e-01
-6.5650781e-01
-4.6526903e-01
-2.0955479e-01
-9.5393095e-02
-2.0881405e-01
-4.2267830e-01
-5.5936688e-01
-5.2729128e-01
-2.7425425e-01
2.4480417e-01
9.7135769e-01
1.6591454e+00
2.0218017e+00
1.9602952e+00
1.5526603e+00
9.4067199e-01
3.3071871e-01
-6.8600765e-02
-2.4621124e-01
-3.9936889e-01
-6.5964902e-01
-9.4298328e-01
-1.1155960e+00
-1.1237014e+00
-9.9889433e-01
-8.4864922e-01
-7.6716020e-01
-7.4516925e-01
-6.7858401e-01
-4.7062827e-01
-1.0350010e-01
3.6470703e-01
7.8352600e-01
9.3352401e-01
6.7843674e-01
1.5304496e-01
-2.4464075e-01
-1.2128595e-01
5.9484793e-01
1.4692934e+00
1.9535742e+00
1.8201600e+00
1.0300481e+00
-1.8804615e-01
-1.3210324e+00
-1.9466462e+00
-1.9329907e+00
-1.4203765e+00
-6.9797688e-01
-3.3914216e-02
3.8498812e-01
4.9004357e-01
3.9720776e-01
2.8574241e-01
1.9753654e-01
1.7694035e-02
-3.3549867e-01
-7.6449613e-01
-1.1109408e+00
-1.3063837e+00
-1.3208869e+00
-1.0607432e+00
-4.0625456e-01
6.7392772e-01
2.0164365e+00
3.1967656e+00
3.6485013e+00
3.0529823e+00
1.6827404e+00
2.0017893e-01
-9.2133923e-01
-1.6533842e+00
-2.0962665e+00
-2.1915292e+00
-1.8967347e+00
-1.3368182e+00
-6.9807776e-01
-1.0952640e-01
3.9911428e-01
8.3620555e-01
1.1317924e+00
1.1447412e+00
8.1923278e-01
2.9458395e-01
-1.3916478e-01
-2.6081274e-01
-1.3496872e-01
-4.8252617e-02
-1.8568391e-01
-4.5411914e-01
-6.6982541e-01
-7.5594571e-01
-7.2327881e-01
-5.7717864e-01
-2.9997152e-01
1.0152113e-01
5.8025806e-01
1.0405459e+00
1.3108322e+00
1.2443919e+00
8.9683954e-01
4.7905273e-01
1.0830017e-01
-3.1154956e-01
-8.6655125e-01
-1.4052212e+00
-1.6984287e+00
-1.6552488e+00
-1.3006158e+00
-6.9627760e-01
9.0367543e-02
9.9612381e-01
1.9014267e+00
2.5629822e+00
2.6700830e+00
2.0455413e+00
8.7897250e-01
-3.5154732e-01
-1.2733793e+00
-1.8378133e+00
-2.1475967e+00
-2.2237404e+00
-2.0347491e+00
-1.5932080e+00
-9.3106469e-01
-7.9177368e-02
8.9772083e-01
1.8652223e+00
2.5844291e+00
2.7551757e+00
2.2055787e+00
1.0904478e+00
-1.1158453e-01
-9.2924625e-01
-1.2552859e+00
-1.3152892e+00
-1.3184217e+00
-1.2583372e+00
-1.0725802e+00
-7.8884771e-01
-4.8916506e-01
-2.0927442e-01
1.1646476e-01
5.8044429e-01
1.1943244e+00
1.8169710e+00
2.1450042e+00
1.8967502e+00
1.1076694e+00
1.2673517e-01
-7.1475812e-01
-1.3107296e+00
-1.6619422e+00
-1.7305569e+00
-1.5257665e+00
-1.1820751e+00
-8.3659844e-01
-5.1802392e-01
-2.0522643e-01
1.1869194e-01
4.6334958e-01
7.7004291e-01
8.8883886e-01
7.3248904e-01
4.7321755e-01
4.3848313e-01
7.4129744e-01
1.0798312e+00
1.1987469e+00
1.1669370e+00
9.2089039e-01
3.0446750e-01
-6.1111733e-01
-1.5679358e+00
-2.2464855e+00
-2.4199248e+00
-2.0289052e+00
-1.1659096e+00
-5.3269279e-02
1.0261814e+00
1.8418196e+00
2.2478613e+00
2.1452989e+00
1.4922911e+00
4.2460456e-01
-7.1109606e-01
-1.5860149e+00
-2.0700557e+00
-2.1292046e+00
-1.7268252e+00
-8.9407885e-01
2.1644653e-01
1.3682937e+00
2.2847602e+00
2.6614016e+00
2.3210672e+00
1.4216325e+00
3.4748637e-01
-6.0582787e-01
-1.3649784e+00
-1.8999074e+00
-2.0821673e+00
-1.8423353e+00
-1.2934963e+00
-6.2688804e-01
1.6058529e-02
5.7509965e-01
1.0563821e+00
1.4618281e+00
1.6949292e+00
1.5847371e+00
1.0682674e+00
3.5999214e-01
-2.0678458e-01
-5.2692256e-01
-7.7545490e-01
-1.0827559e+00
-1.3121947e+00
-1.2726797e+00
-9.5962426e-01
-5.1917393e-01
-9.9757719e-02
2.3821233e-01
5.3817348e-01
8.8636691e-01
1.2456857e+00
1.3689147e+00
1.0195870e+00
2.9870123e-01
-4.1864480e-01
-8.5304229e-01
-1.0156067e+00
-1.0726111e+00
-1.1143391e+00
-1.1434934e+00
-1.1374408e+00
-1.0023864e+00
-6.0199276e-01
1.4813909e-01
1.2499416e+00
2.5546102e+00
3.6419523e+00
3.8831005e+00
2.8904958e+00
1.0078791e+00
-8.9459382e-01
-2.1354660e+00
-2.5865814e+00
-2.4769098e+00
-2.0753260e+00
-1.6262519e+00
-1.3271500e+00
-1.2279178e+00
-1.2504097e+00
-1.2590985e+00
-1.0608255e+00
-4.1342606e-01
8.3914898e-01
2.5744938e+00
4.2852560e+00
5.2311081e+00
4.8508449e+00
3.1195813e+00
6.2281759e-01
-1.7416511e+00
-3.2832153e+00
-3.7973757e+00
-3.4395877e+00
-2.5113941e+00
-1.3780802e+00
-3.6813207e-01
3.9420680e-01
9.4587175e-01
1.2637598e+00
1.2262207e+00
7.8928596e-01
1.3705465e-01
-4.1189161e-01
-6.7454185e-01
-7.2776122e-01
-7.3301217e-01
-7.1346040e-01
-5.9297720e-01
-3.3053354e-01
7.3628816e-02
5.7966628e-01
1.0424585e+00
1.2448177e+00
1.0854580e+00
6.6013602e-01
1.2728629e-01
-3.6073451e-01
-5.9238497e-01
-3.6585449e-01
2.2636270e-01
6.2590622e-01
5.6078282e-01
4.5025112e-01
4.3940522e-01
2.3186669e-01
-2.8986541e-01
-9.4352125e-01
-1.4075479e+00
-1.4331384e+00
-9.6539195e-01
-1.8126611e-01
5.3080025e-01
7.7980285e-01
5.1973365e-01
7.2861259e-02
-2.0284241e-01
-1.4233042e-01
2.3193349e-01
7.5829776e-01
1.1332252e+00
1.0337731e+00
3.7341210e-01
-5.8318996e-01
-1.3839651e+00
-1.6809659e+00
-1.3883179e+00
-6.6532481e-01
1.8473450e-01
8.5903836e-01
1.1536444e+00
9.9682849e-01
4.9231841e-01
-1.0187614e-01
-5.0439913e-01
-5.3536396e-01
-1.9157486e-01
3.2000223e-01
7.3632936e-01
9.2921364e-01
8.7730589e-01
6.1517274e-01
2.4442635e-01
-1.0893817e-01
-4.0172307e-01
-6.9576015e-01
-1.0255482e+00
-1.2987005e+00
-1.3647762e+00
-1.1254312e+00
-5.8445163e-01
1.0114170e-01
6.6014079e-01
9.0571618e-01
8.7999712e-01
7.7559167e-01
7.1245998e-01
5.8988502e-01
2.2106023e-01
-3.6597291e-01
-8.6596975e-01
-9.7146163e-01
-6.0221788e-01
5.1485690e-02
5.9051775e-01
7.0149850e-01
4.1022285e-01
-4.0827646e-02
-3.9351982e-01
-4.7737681e-01
-2.9285826e-01
-1.1686083e-02
1.5915626e-01
1.4196379e-01
-4.1785296e-02
-4.0424418e-01
-9.4310145e-01
-1.4808935e+00
-1.6610727e+00
-1.1633198e+00
1.2209822e-01
2.0495952e+00
4.0678525e+00
5.1977263e+00
4.6084069e+00
2.4067441e+00
-3.3069081e-01
-2.4422188e+00
-3.4121033e+00
-3.2987434e+00
-2.4238613e+00
-1.2561584e+00
-3.1186568e-01
1.2826135e-01
1.4944729e-01
-1.7585047e-02
-1.5890561e-01
-1.5625480e-01
-3.8995947e-02
7.3319369e-02
3.3413904e-02
-2.6484211e-01
-8.0435929e-01
-1.4384553e+00
-1.9779492e+00
-2.2276765e+00
-1.9796228e+00
-1.0674345e+00
5.6360760e-01
2.7066835e+00
4.7333485e+00
5.7767620e+00
5.2828283e+00
3.4562985e+00
1.1231040e+00
-8.6894845e-01
-2.1045204e+00
-2.6355427e+00
-2.7101407e+00
-2.5207103e+00
-2.2024351e+00
-1.8517006e+00
-1.4828431e+00
-1.0440212e+00
-4.6547783e-01
2.8462157e-01
1.1301428e+00
1.7805482e+00
1.8009744e+00
1.0112774e+00
-1.4717039e-01
-9.4178719e-01
-1.0243506e+00
-4.6717528e-01
3.7154990e-01
8.4407524e-01
4.3661352e-01
-6.7661342e-01
-1.7402152e+00
-2.0531830e+00
-1.2980807e+00
4.7372949e-01
2.7728261e+00
4.6342073e+00
5.0780176e+00
3.8533340e+00
1.5800422e+00
-8.1134827e-01
-2.6675180e+00
-3.7841873e+00
-4.2179936e+00
-4.1034175e+00
-3.6139449e+00
-2.8730336e+00
-1.8658477e+00
-5.0330196e-01
1.2737255e+00
3.3442448e+00
5.0851298e+00
5.4615504e+00
3.9315811e+00
1.1518842e+00
-1.4681189e+00
-2.8564141e+00
-2.7658817e+00
-1.5137177e+00
2.7628716e-01
1.7347017e+00
2.0772306e+00
1.2367289e+00
-1.1727426e-01
-1.2575613e+00
-1.8271135e+00
-1.7963888e+00
-1.3106564e+00
-5.9017222e-01
1.1729168e-01
6.3842966e-01
9.3182188e-01
9.6950458e-01
6.8139367e-01
9.6986121e-02
-5.8116462e-01
-1.1158962e+00
-1.3685774e+00
-1.3098317e+00
-9.8280138e-01
-4.7442774e-01
1.2447952e-01
7.7935685e-01
1.4656627e+00
2.0373684e+00
2.2486154e+00
1.9410266e+00
1.1906005e+00
2.5713159e-01
-6.1208519e-01
-1.3033280e+00
-1.7798760e+00
-2.0064569e+00
-1.9928075e+00
-1.7930151e+00
-1.4449543e+00
-9.8245107e-01
-4.3854838e-01
1.9822369e-01
9.3385527e-01
1.6986702e+00
2.4077676e+00
2.9551879e+00
3.1130522e+00
2.6129607e+00
1.4211549e+00
-1.2019850e-01
-1.4819114e+00
-2.3024021e+00
-2.5465819e+00
-2.3637053e+00
-1.9313054e+00
-1.4023846e+00
-8.6470430e-01
-3.2124423e-01
2.4737043e-01
8.1254940e-01
1.3296740e+00
1.7538740e+00
1.9585233e+00
1.7302147e+00
9.4741529e-01
-2.1341095e-01
-1.3063598e+00
-1.9183316e+00
-1.9106849e+00
-1.4173330e+00
-7.4679365e-01
-2.2377738e-01
3.3898625e-02
2.0703700e-01
5.3939986e-01
1.0149401e+00
1.3314763e+00
1.2048257e+00
7.0499109e-01
1.8557379e-01
-5.3548090e-02
6.5437007e-02
3.7620409e-01
4.8758315e-01
-3.2586502e-02
-1.2424876e+00
-2.6857192e+00
-3.8226727e+00
-4.3726759e+00
-4.2451279e+00
-3.4492879e+00
-2.2212811e+00
-1.0790194e+00
-3.1223635e-01
