5.2381316e-02
1.8218287e-02
1.6215407e-02
5.9188081e-02
1.4996313e-01
2.8202974e-01
4.3225905e-01
5.5282396e-01
5.8014289e-01
4.7316181e-01
2.5101321e-01
-1.2938021e-02
-2.3502545e-01
-3.6572935e-01
-4.0344750e-01
-3.7420100e-01
-3.0327036e-01
-2.1157773e-01
-1.2361407e-01
-5.6714640e-02
-9.0992513e-03
2.7320641e-02
5.3748284e-02
6.6764165e-02
6.3999991e-02
4.9003639e-02
2.9291891e-02
1.1796103e-02
-3.9317742e-03
-2.2154117e-02
-3.1091101e-02
-3.9321993e-03
7.4541197e-02
1.9512293e-01
3.2605178e-01
4.1868837e-01
4.2212969e-01
3.1563555e-01
1.3202996e-01
-6.2738204e-02
-2.1091723e-01
-2.8891648e-01
-3.0476385e-01
-2.7924747e-01
-2.3122995e-01
-1.7879390e-01
-1.3830597e-01
-1.1689331e-01
-1.0802376e-01
-9.6011137e-02
-6.8000129e-02
-1.7564181e-02
5.4443097e-02
1.3457494e-01
1.9562292e-01
2.0780254e-01
1.6429429e-01
9.3090344e-02
3.0962618e-02
7.7321200e-04
4.0207523e-03
2.0016325e-02
2.3637367e-02
1.8011319e-03
-3.7605943e-02
-7.0232656e-02
-7.6646242e-02
-5.3306181e-02
-1.0051962e-02
3.3601244e-02
5.8785133e-02
5.6305801e-02
2.8750811e-02
-9.7053467e-03
-4.3420635e-02
-6.5110072e-02
-7.6367440e-02
-8.5392193e-02
-9.9061995e-02
-1.1489540e-01
-1.2346581e-01
-1.1852939e-01
-9.9474097e-02
-6.4290904e-02
-8.1245286e-03
6.9874953e-02
1.6777676e-01
2.7707672e-01
3.6564550e-01
3.9157038e-01
3.3557490e-01
2.1324416e-01
6.3303791e-02
-7.4800851e-02
-1.7624238e-01
-2.3535290e-01
-2.6071317e-01
-2.6596528e-01
-2.5824737e-01
-2.3261042e-01
-1.7768346e-01
-9.0090247e-02
1.8503790e-02
1.2416452e-01
1.9649216e-01
2.1163759e-01
1.6764564e-01
8.6884906e-02
-2.2560161e-03
-7.9560174e-02
-1.3573910e-01
-1.6908699e-01
-1.7876258e-01
-1.6637574e-01
-1.3183902e-01
-6.7049209e-02
3.5081858e-02
1.6989494e-01
3.1857944e-01
4.4751893e-01
5.0740531e-01
4.5778940e-01
3.0210607e-01
8.7630386e-02
-1.2258984e-01
-2.7907196e-01
-3.5939305e-01
-3.6689441e-01
-3.2159322e-01
-2.4769232e-01
-1.6861190e-01
-1.0501883e-01
-6.4278954e-02
-4.2976177e-02
-3.8717253e-02
-4.8010937e-02
-6.1272142e-02
-6.8532077e-02
-6.8312272e-02
-6.4859407e-02
-5.8933232e-02
-4.6433844e-02
-1.8787361e-02
3.7161157e-02
1.2771969e-01
2.4188954e-01
3.5554870e-01
4.3799681e-01
4.5357863e-01
3.8511063e-01
2.5132311e-01
9.0713389e-02
-5.6465101e-02
-1.6384633e-01
-2.2442626e-01
-2.4130135e-01
-2.2344512e-01
-1.8891827e-01
-1.5920802e-01
-1.5241840e-01
-1.6088131e-01
-1.5004079e-01
-1.0600943e-01
-4.1129829e-02
2.5844609e-02
7.2922746e-02
8.7918136e-02
7.4774336e-02
4.7011098e-02
1.7195276e-02
-1.2680297e-02
-4.8551297e-02
-9.1749569e-02
-1.3370635e-01
-1.5986955e-01
-1.5343736e-01
-9.7466046e-02
1.7408161e-02
1.8642845e-01
3.7968721e-01
5.2595189e-01
5.4276587e-01
4.0193289e-01
1.5744802e-01
-9.2651374e-02
-2.7177052e-01
-3.5644082e-01
-3.6043925e-01
-3.1126038e-01
-2.3928640e-01
-1.6748576e-01
-1.0321608e-01
-3.5583825e-02
5.0576662e-02
1.5000482e-01
2.2717898e-01
2.3586362e-01
1.5651682e-01
1.6557416e-02
-1.2449025e-01
-2.1494915e-01
-2.3566649e-01
-1.9543019e-01
-1.1792024e-01
-2.8341391e-02
4.8241188e-02
9.7588447e-02
1.2888236e-01
1.6047406e-01
2.0388750e-01
2.5132889e-01
2.7120341e-01
2.2424833e-01
1.0200236e-01
-5.1212229e-02
-1.7208158e-01
-2.2279532e-01
-2.0245113e-01
-1.3898169e-01
-7.5560043e-02
-4.6601967e-02
-5.9633956e-02
-9.6681195e-02
-1.2545490e-01
-1.1624423e-01
-5.8464454e-02
3.8504237e-02
1.4629063e-01
2.1670321e-01
2.0760674e-01
1.2127251e-01
6.2031876e-03
-8.0826049e-02
-1.0835171e-01
-8.0889171e-02
-2.6602635e-02
2.1379374e-02
3.5215749e-02
7.2347543e-03
-4.2106691e-02
-7.8179932e-02
-7.4106491e-02
-2.1135258e-02
7.4293951e-02
1.8406630e-01
2.5344844e-01
2.2978184e-01
1.0409834e-01
-7.2428766e-02
-2.2073493e-01
-2.9315677e-01
-2.8687345e-01
-2.1435463e-01
-9.2637900e-02
5.3252820e-02
1.8533206e-01
2.5712195e-01
2.4323896e-01
1.6243968e-01
6.2448828e-02
-1.6837941e-02
-5.8919347e-02
-6.6903798e-02
-5.5289893e-02
-4.1117310e-02
-3.9659064e-02
-5.7434179e-02
-8.6728457e-02
-1.1172399e-01
-1.2187831e-01
-1.1558428e-01
-9.4058867e-02
-5.6822809e-02
-3.0855424e-03
7.1683210e-02
1.7031705e-01
2.7150866e-01
3.3430337e-01
3.2591150e-01
2.4054524e-01
1.0370887e-01
-4.1001387e-02
-1.5538715e-01
-2.2096327e-01
-2.4134270e-01
-2.3418138e-01
-2.1688895e-01
-2.0007198e-01
-1.8357995e-01
-1.6089964e-01
-1.2913821e-01
-8.8140680e-02
-3.3698914e-02
3.8796520e-02
1.2867604e-01
2.2849000e-01
3.1793668e-01
3.6333588e-01
3.3038822e-01
2.0742214e-01
1.9797539e-02
-1.7384864e-01
-3.1238800e-01
-3.6434546e-01
-3.2633239e-01
-2.1551479e-01
-6.2914652e-02
9.6396221e-02
2.3223437e-01
3.2781422e-01
3.7721533e-01
3.7572487e-01
3.1113428e-01
1.7903650e-01
1.0709296e-02
-1.3573323e-01
-2.1611440e-01
-2.2833226e-01
-2.0445797e-01
-1.9310239e-01
-2.1107306e-01
-2.2215069e-01
-2.0341279e-01
-1.6082261e-01
-9.7717292e-02
-1.7738333e-02
7.1117734e-02
1.5357679e-01
2.0375314e-01
1.9741165e-01
1.3022482e-01
2.4538120e-02
-8.0936735e-02
-1.4994847e-01
-1.6645508e-01
-1.3414720e-01
-6.0228042e-02
4.4699090e-02
1.6042572e-01
2.5661541e-01
2.9567719e-01
2.5573739e-01
1.5437108e-01
3.6416032e-02
-6.0427469e-02
-1.2192300e-01
-1.5267015e-01
-1.6463774e-01
-1.6752206e-01
-1.6589896e-01
-1.5857646e-01
-1.4028320e-01
-1.0131482e-01
-3.3712214e-02
6.2212494e-02
1.7349744e-01
2.6567475e-01
2.9764686e-01
2.5200898e-01
1.4612444e-01
1.8663577e-02
-9.2627414e-02
-1.6602921e-01
-1.9555673e-01
-1.8574802e-01
-1.5020947e-01
-1.0532544e-01
-6.3808240e-02
-2.9699859e-02
1.0580487e-03
3.5641742e-02
7.8200665e-02
1.2302139e-01
1.5787137e-01
1.6985471e-01
1.4776510e-01
8.7459464e-02
2.8113680e-04
-8.8017079e-02
-1.5025924e-01
-1.7144094e-01
-1.5351998e-01
-1.0981705e-01
-5.7668862e-02
-9.1338196e-03
3.1799346e-02
6.4889755e-02
8.9152900e-02
9.9828778e-02
9.3780808e-02
7.5697381e-02
5.3949006e-02
3.1036948e-02
3.6992773e-03
-3.1060814e-02
-7.0888488e-02
-1.0950849e-01
-1.4068805e-01
-1.5701013e-01
-1.5185802e-01
-1.2005525e-01
-6.0812801e-02
2.3519230e-02
1.2967741e-01
2.4164438e-01
3.2555542e-01
3.4409286e-01
2.7856907e-01
1.4089523e-01
-2.7969214e-02
-1.7570544e-01
-2.6502570e-01
-2.8796961e-01
-2.5898652e-01
-2.0133600e-01
-1.3958259e-01
-8.5781507e-02
-3.6925915e-02
1.6090566e-02
8.1837289e-02
1.5669512e-01
2.2446561e-01
2.6628828e-01
2.6302800e-01
1.9943166e-01
8.3398382e-02
-4.6925193e-02
-1.4638339e-01
-1.9113218e-01
-1.8545051e-01
-1.4977537e-01
-1.0748879e-01
-7.2418157e-02
-4.6533173e-02
-2.8195691e-02
-1.6471450e-02
-1.2094327e-02
-1.6444503e-02
-2.3730875e-02
-2.2991636e-02
-4.4812337e-03
4.1625771e-02
1.1555092e-01
1.9965116e-01
2.5477043e-01
2.3557046e-01
1.3379680e-01
-8.2177191e-03
-1.3299748e-01
-2.0552249e-01
-2.2307714e-01
-2.0048279e-01
-1.5053298e-01
-8.4726713e-02
-1.6703182e-02
4.2177450e-02
8.5392879e-02
1.1422421e-01
1.3391511e-01
1.4413827e-01
1.3246967e-01
8.7963326e-02
1.8157912e-02
-5.4591158e-02
-1.0678060e-01
-1.2661256e-01
-1.1675981e-01
-8.5520796e-02
-3.7528967e-02
2.2692561e-02
8.3271044e-02
1.2550898e-01
1.3307662e-01
1.0400843e-01
5.3398631e-02
5.7777268e-03
-1.7943484e-02
-1.2896211e-02
1.8588831e-03
-2.0111311e-02
-8.8943676e-02
-1.4666383e-01
-1.6018987e-01
-1.4165973e-01
-1.0534137e-01
-6.5452961e-02
-3.5428074e-02
-2.3913796e-02
-2.5870920e-02
-2.5388450e-02
-8.9352523e-03
3.0861821e-02
9.0418859e-02
1.5491979e-01
2.0780367e-01
2.3426047e-01
2.2132315e-01
1.6363123e-01
7.0542827e-02
-3.3487442e-02
-1.2294997e-01
-1.8303454e-01
-2.0948266e-01
-2.0608104e-01
-1.7593530e-01
-1.2110118e-01
-4.6831003e-02
3.9201150e-02
1.2084964e-01
1.6972550e-01
1.6346355e-01
1.0653823e-01
2.9188178e-02
-2.8096526e-02
-4.0585967e-02
-1.1094202e-02
3.7144960e-02
7.0235167e-02
5.9861264e-02
2.4887892e-03
-7.8917834e-02
-1.5397335e-01
-1.9997935e-01
-2.0593652e-01
-1.6899349e-01
-9.2810981e-02
1.7905564e-02
1.5818102e-01
3.0183681e-01
3.9398042e-01
3.8081871e-01
2.5074664e-01
5.0085231e-02
-1.4212442e-01
-2.6494516e-01
-3.0163518e-01
-2.6751363e-01
-1.9224059e-01
-1.0786408e-01
-3.8885098e-02
6.8187716e-03
3.5944761e-02
5.9079852e-02
8.2562837e-02
1.0565817e-01
1.2215401e-01
1.2384514e-01
1.0263478e-01
5.4789124e-02
-1.0485076e-02
-7.5749216e-02
-1.2415120e-01
-1.4429249e-01
-1.3764998e-01
-1.1417690e-01
-8.0952102e-02
-3.8222052e-02
1.6839989e-02
8.3327401e-02
1.5096073e-01
1.9727962e-01
1.9851904e-01
1.5091491e-01
7.3283186e-02
-6.2702400e-03
-6.2938558e-02
-8.6147926e-02
-7.9956014e-02
-5.8793831e-02
-4.0876643e-02
-4.0079602e-02
-6.1168155e-02
-9.6409784e-02
-1.2898493e-01
-1.4162203e-01
-1.2461405e-01
-7.0337046e-02
2.8216948e-02
1.6212577e-01
2.9125791e-01
3.4754156e-01
2.7905293e-01
1.0042187e-01
-1.0797065e-01
-2.6011554e-01
-3.1816359e-01
-2.9160907e-01
-2.0942704e-01
-9.4853251e-02
3.7818918e-02
1.7558936e-01
2.9806023e-01
3.6712446e-01
3.4438811e-01
2.2937809e-01
6.6336600e-02
-8.9537558e-02
-2.0164832e-01
-2.5816470e-01
-2.6453935e-01
-2.3423866e-01
-1.8250360e-01
-1.2134919e-01
-5.7802601e-02
9.9074813e-03
8.6658886e-02
1.6718765e-01
2.2885442e-01
2.3888054e-01
1.8187798e-01
7.7220902e-02
-3.3825440e-02
-1.1703908e-01
-1.6059320e-01
-1.6997454e-01
-1.5817123e-01
-1.3623345e-01
-1.1160041e-01
-9.0496994e-02
-7.4537724e-02
-5.3322455e-02
-9.7157193e-03
6.9215803e-02
1.8552677e-01
3.1272756e-01
3.9194964e-01
3.6623407e-01
2.2790990e-01
2.9558079e-02
-1.5193224e-01
-2.6082091e-01
-2.8351377e-01
-2.3423574e-01
-1.3702425e-01
-2.3547291e-02
7.2632448e-02
1.3138044e-01
1.5099184e-01
1.3583305e-01
8.0900554e-02
-5.5958454e-03
-8.2107862e-02
-1.1795855e-01
-1.1264335e-01
-7.9108519e-02
-4.1995001e-02
-2.5001502e-02
-3.6380711e-02
-6.8131404e-02
-1.0153222e-01
-1.1832301e-01
-1.1060804e-01
-7.9029729e-02
-3.0299248e-02
2.4292095e-02
7.3057095e-02
1.0938095e-01
1.3754275e-01
1.6646311e-01
1.9530681e-01
2.0407035e-01
1.6586200e-01
7.3446000e-02
-4.7998366e-02
-1.5610189e-01
-2.1943984e-01
-2.2844048e-01
-1.8966602e-01
-1.1625084e-01
-2.5594305e-02
6.3928994e-02
1.3879143e-01
1.9010898e-01
2.1368830e-01
2.0188799e-01
1.4274138e-01
3.8938864e-02
-8.1783366e-02
-1.7784652e-01
-2.1791678e-01
-2.0051020e-01
-1.4820207e-01
-8.7524483e-02
-3.7239393e-02
7.9316916e-04
3.8918488e-02
8.9194729e-02
1.5310610e-01
2.0786701e-01
2.1254363e-01
1.4392342e-01
2.1465118e-02
-1.0413437e-01
-1.8651274e-01
-2.0858518e-01
-1.7954743e-01
-1.1840696e-01
-4.5194515e-02
2.3396200e-02
7.3913243e-02
9.4893876e-02
8.6824168e-02
6.7641994e-02
5.9503156e-02
7.0034833e-02
8.9078888e-02
9.7138885e-02
7.7602975e-02
2.4194659e-02
-5.3987671e-02
-1.3199811e-01
-1.8430198e-01
-1.9619350e-01
-1.6720237e-01
-1.0820103e-01
-3.0806477e-02
6.0007938e-02
1.6016281e-01
2.4577702e-01
2.7089692e-01
2.0373773e-01
6.2957324e-02
-8.7094854e-02
-1.8252584e-01
-2.0159701e-01
-1.6020126e-01
-8.7669898e-02
-2.0762560e-02
3.8810812e-03
-2.7307487e-02
-9.0605972e-02
-1.3879461e-01
-1.3130137e-01
-5.3981062e-02
8.1491824e-02
2.4442952e-01
3.8131913e-01
4.2996002e-01
3.5720383e-01
1.8442634e-01
-2.6190860e-02
-2.0926138e-01
-3.1950417e-01
-3.4258012e-01
-2.9078912e-01
-1.9134039e-01
-7.6824459e-02
2.3991504e-02
9.5752434e-02
1.4069988e-01
1.6432474e-01
1.6069810e-01
1.1756934e-01
3.7078873e-02
-5.2211079e-02
-1.1279995e-01
-1.2904162e-01
-1.1206498e-01
-8.2718161e-02
-5.9625756e-02
-5.3764470e-02
-6.6785736e-02
-9.2032113e-02
-1.1586536e-01
-1.1785871e-01
-8.0469327e-02
8.7820584e-03
1.6028910e-01
3.5407503e-01
5.2070551e-01
5.6228237e-01
4.1720671e-01
1.3101592e-01
-1.7143345e-01
-3.8222638e-01
-4.6161915e-01
-4.2506171e-01
-3.1014709e-01
-1.6067939e-01
-2.7761728e-02
4.4747827e-02
4.5746524e-02
5.7086813e-03
-2.1407809e-02
4.6253393e-03
9.1124464e-02
2.1013832e-01
3.0647159e-01
3.2341252e-01
2.3711405e-01
7.7347040e-02
-8.7599165e-02
-1.9544042e-01
-2.2407908e-01
-1.8847494e-01
-1.2153742e-01
-5.0673597e-02
1.0630129e-02
4.9655117e-02
4.4622496e-02
2.5709184e-03
-2.5681925e-02
-1.2517050e-02
2.9973878e-02
7.5394044e-02
9.3091405e-02
6.7210250e-02
3.7267939e-03
-7.4057059e-02
-1.3638296e-01
-1.6507216e-01
-1.5841085e-01
-1.2478081e-01
-8.2031169e-02
-4.8505018e-02
-2.7972625e-02
-7.2517964e-03
3.0963871e-02
8.8231398e-02
1.4100593e-01
1.4686562e-01
7.4292710e-02
-5.4566027e-02
-1.6821284e-01
-1.9760881e-01
-1.1137132e-01
7.9794499e-02
3.2467862e-01
5.2958897e-01
5.9338839e-01
4.7575110e-01
2.2708682e-01
-4.6837474e-02
-2.5486834e-01
-3.5557986e-01
-3.5272763e-01
-2.8124295e-01
-1.8100223e-01
-8.6717645e-02
-3.0097661e-02
-3.0549414e-02
-8.4171969e-02
-1.6344655e-01
-2.3280416e-01
-2.6127897e-01
-2.3127099e-01
-1.4666647e-01
-3.3539333e-02
7.6212805e-02
1.7070005e-01
2.5659296e-01
3.3617670e-01
3.8844824e-01
3.7064373e-01
2.5077358e-01
4.9338324e-02
-1.6150958e-01
-3.0723528e-01
-3.5345579e-01
-3.0576537e-01
-1.8504088e-01
-1.7800539e-02
1.5981591e-01
3.0657400e-01
3.8304441e-01
3.6348559e-01
2.5734572e-01
1.0496734e-01
-5.3072144e-02
-1.9017933e-01
-2.9203310e-01
-3.5200797e-01
-3.6574522e-01
-3.2981360e-01
-2.4671648e-01
-1.2957807e-01
1.2363633e-02
1.7638815e-01
3.4054658e-01
4.5502242e-01
4.6168958e-01
3.3299936e-01
1.0748293e-01
-1.2789196e-01
-3.0035814e-01
-3.8095648e-01
-3.7114336e-01
-2.9136731e-01
-1.6596563e-01
-1.1468605e-02
1.5845823e-01
3.1945985e-01
4.2278998e-01
4.1518682e-01
2.8508988e-01
8.1219324e-02
-1.1713407e-01
-2.4872390e-01
-2.9292300e-01
-2.6417581e-01
-1.9227815e-01
-1.0206901e-01
-1.5831284e-02
4.1176499e-02
5.1764542e-02
1.3336831e-02
-5.7899273e-02
-1.2891642e-01
-1.7071649e-01
-1.7019419e-01
-1.2548322e-01
-3.8079652e-02
9.4385340e-02
2.6380897e-01
4.2178486e-01
4.8412014e-01
3.8435587e-01
1.4144874e-01
-1.2546846e-01
-2.8690183e-01
-2.9445057e-01
-1.6864681e-01
3.3929123e-02
2.1765756e-01
2.6871388e-01
1.3655444e-01
-1.0497023e-01
-3.1213134e-01
-3.8593315e-01
-3.2290623e-01
-1.7215873e-01
1.5280227e-02
1.9635607e-01
3.3199093e-01
3.8354997e-01
3.2585929e-01
1.6949589e-01
-3.5175893e-02
-2.1830625e-01
-3.2561650e-01
-3.4374700e-01
-2.9351390e-01
-2.0842705e-01
-1.2138453e-01
-5.1653716e-02
-2.3386771e-03
3.7081463e-02
8.7000580e-02
1.6381946e-01
2.7005233e-01
3.8132551e-01
4.4298423e-01
3.9829776e-01
2.3835770e-01
2.5833803e-02
-1.4910617e-01
-2.3460127e-01
-2.3892602e-01
-2.0752969e-01
-1.9988426e-01
-2.3539080e-01
-2.6686216e-01
-2.5851164e-01
-2.1384574e-01
-1.4319291e-01
-6.2986224e-02
9.9093645e-03
6.9219568e-02
1.2233928e-01
1.8675650e-01
2.7192887e-01
3.6097901e-01
4.0332255e-01
3.4316489e-01
1.7578613e-01
-3.8283302e-02
-2.1989831e-01
-3.2182262e-01
-3.4001996e-01
-2.9635955e-01
-2.1658701e-01
-1.2420566e-01
-4.0454558e-02
2.2436766e-02
6.6987147e-02
1.0738466e-01
1.5717815e-01
2.1387504e-01
2.4892506e-01
2.2672850e-01
1.4102289e-01
2.3444446e-02
-8.0550547e-02
-1.4067153e-01
-1.5497717e-01
-1.4117158e-01
-1.2241461e-01
-1.1498700e-01
-1.1921817e-01
-1.2219999e-01
-1.0608461e-01
-6.1508426e-02
9.7138750e-03
9.7570866e-02
1.8277581e-01
2.4596727e-01
2.7042906e-01
2.4087523e-01
1.5214549e-01
2.1468405e-02
-1.1054799e-01
-2.0103715e-01
-2.3204781e-01
-2.1491024e-01
-1.7342822e-01
-1.3062437e-01
-9.9359762e-02
-8.0177866e-02
-6.2065842e-02
-2.4299877e-02
5.1750434e-02
1.7246946e-01
3.2021724e-01
4.3942400e-01
4.5093845e-01
3.1009472e-01
5.8149843e-02
-1.9734526e-01
-3.6250317e-01
-4.0861817e-01
-3.5807377e-01
-2.5302333e-01
-1.2989866e-01
-1.0856566e-02
9.2328352e-02
1.7367300e-01
2.2537632e-01
2.4004983e-01
2.1618290e-01
1.5713623e-01
6.9274221e-02
-3.3944075e-02
-1.2837725e-01
-1.8955763e-01
-2.0716888e-01
-1.8784875e-01
-1.4802170e-01
-1.0627487e-01
-7.4344288e-02
-5.2185227e-02
-3.3121112e-02
-1.0200320e-02
2.1934823e-02
6.5131403e-02
1.2101444e-01
1.9021799e-01
2.5864667e-01
3.0066905e-01
2.9337773e-01
2.2302235e-01
9.0755733e-02
-7.9705801e-02
-2.4220941e-01
-3.4716521e-01
-3.6731221e-01
-3.0795445e-01
-1.9710621e-01
-6.6905000e-02
6.3871250e-02
1.8551871e-01
2.6892136e-01
2.6366762e-01
1.4620311e-01
-4.0423665e-02
-2.0836678e-01
-2.8777347e-01
-2.5488947e-01
-1.1562003e-01
9.6067352e-02
3.0283852e-01
4.0000780e-01
3.2290403e-01
1.1056519e-01
-1.1658913e-01
-2.5747230e-01
-2.8694379e-01
-2.3077248e-01
-1.3254265e-01
-3.1318385e-02
4.9578540e-02
1.0753072e-01
1.5732939e-01
2.0560127e-01
2.4068603e-01
2.4282918e-01
1.9218314e-01
8.3548527e-02
-6.3921646e-02
-2.1313603e-01
-3.2276443e-01
-3.6878299e-01
-3.5121763e-01
-2.8359486e-01
-1.8569912e-01
-6.9815873e-02
5.4745308e-02
1.7674641e-01
2.8736682e-01
3.6937894e-01
4.0524716e-01
3.8458954e-01
3.0069498e-01
1.5736528e-01
-1.7544740e-02
-1.7138359e-01
-2.5725775e-01
-2.6219395e-01
-2.0784276e-01
-1.3614929e-01
-9.9226535e-02
-1.0959706e-01
-1.1924587e-01
-9.6797443e-02
-5.0450250e-02
2.3276181e-03
4.3842915e-02
6.6798364e-02
7.3553135e-02
7.1117495e-02
6.8505075e-02
6.7087148e-02
6.0279435e-02
4.1810111e-02
1.0890902e-02
-2.6843275e-02
-6.3312672e-02
-9.1510472e-02
-1.0723220e-01
-1.0902075e-01
-9.7327039e-02
-7.2494064e-02
-3.5780251e-02
1.5759049e-02
9.2551975e-02
1.9703706e-01
3.0748453e-01
3.7057602e-01
3.2417980e-01
1.5420806e-01
-7.6853153e-02
-2.7350275e-01
-3.7134931e-01
-3.5904759e-01
-2.6554848e-01
-1.3708923e-01
-1.8382883e-02
6.0939787e-02
9.2926961e-02
9.2051582e-02
8.4894873e-02
9.0192021e-02
1.1276115e-01
1.4375946e-01
1.6217335e-01
1.4470912e-01
8.3778387e-02
-9.4060502e-04
-7.7225586e-02
-1.2360133e-01
-1.3584717e-01
-1.2462857e-01
-1.1180031e-01
-1.1718653e-01
-1.4264642e-01
-1.6974358e-01
-1.7353750e-01
-1.3542361e-01
-5.0341541e-02
7.6268544e-02
2.2797226e-01
3.6602321e-01
4.4031979e-01
4.1598681e-01
2.9351959e-01
1.1152724e-01
-7.2171566e-02
-2.0940684e-01
-2.7885044e-01
-2.8516068e-01
-2.4997411e-01
-1.9734191e-01
-1.4178013e-01
-8.4521718e-02
-2.0291158e-02
4.7080535e-02
9.4926819e-02
9.6140084e-02
4.4854791e-02
-3.0933116e-02
-8.4395754e-02
-8.4564222e-02
-2.8872391e-02
6.6349710e-02
1.6854040e-01
2.3132330e-01
2.1598393e-01
1.1897387e-01
-2.3132880e-02
-1.5601046e-01
-2.3778367e-01
-2.5535410e-01
-2.1732893e-01
-1.3783844e-01
-3.2656043e-02
9.0073311e-02
2.3008434e-01
3.6305238e-01
4.3389371e-01
3.9600863e-01
2.5032362e-01
5.2855459e-02
-1.2215634e-01
-2.3119209e-01
-2.7065158e-01
-2.6250989e-01
-2.3787076e-01
-2.1790508e-01
-2.0651732e-01
-1.9469914e-01
-1.7315704e-01
-1.4067100e-01
-1.0338514e-01
-6.6461047e-02
-2.7328542e-02
2.3734159e-02
1.0412166e-01
2.2603212e-01
3.7864678e-01
5.2658763e-01
6.1480002e-01
5.7790256e-01
3.8662971e-01
8.9425732e-02
-2.1468498e-01
-4.3577843e-01
-5.3626722e-01
-5.2693031e-01
-4.4325183e-01
-3.3366871e-01
-2.3452769e-01
-1.5176811e-01
-7.3313833e-02
1.9826619e-02
1.4234216e-01
2.8552980e-01
4.0785164e-01
4.4640103e-01
3.6166884e-01
1.7814360e-01
-2.9015459e-02
-1.8754662e-01
-2.6290779e-01
-2.6076045e-01
-2.1246586e-01
-1.4790009e-01
-8.1592547e-02
-1.1407335e-02
7.5531019e-02
1.8396935e-01
2.9842033e-01
3.6974450e-01
3.3251163e-01
1.7802645e-01
-2.3981426e-02
-1.8838674e-01
-2.7385026e-01
-2.8387876e-01
-2.3788554e-01
-1.6618437e-01
-1.2800220e-01
-1.4295635e-01
-1.4651433e-01
-9.7664950e-02
-4.9997349e-03
1.1688489e-01
2.3858014e-01
3.1138256e-01
2.8458780e-01
1.5136139e-01
-3.1566990e-02
-1.8621558e-01
-2.6009636e-01
-2.3792880e-01
-1.3435083e-01
1.6546653e-02
1.6998911e-01
2.7803056e-01
3.0473514e-01
2.4056892e-01
1.0702317e-01
-4.8505280e-02
-1.7296106e-01
-2.3096128e-01
-2.1718233e-01
-1.5209928e-01
-6.6272954e-02
9.4810191e-03
5.0005505e-02
4.7844031e-02
1.5573412e-02
-2.6106227e-02
-5.7215887e-02
-6.8450112e-02
-6.7976699e-02
-7.2293781e-02
-9.3384528e-02
-1.2805670e-01
-1.5512827e-01
-1.4147475e-01
-5.1771946e-02
1.3625467e-01
4.0916114e-01
6.8203018e-01
8.0553427e-01
6.5664648e-01
2.5458825e-01
-2.1672975e-01
-5.4835960e-01
-6.5446805e-01
-5.7350508e-01
-3.8829178e-01
-1.7240430e-01
2.5344465e-02
1.7954102e-01
2.7045897e-01
2.7673366e-01
1.9100005e-01
3.7183732e-02
-1.2761920e-01
-2.4225482e-01
-2.7733180e-01
-2.3922725e-01
-1.5633305e-01
-6.4846582e-02
1.3034132e-02
7.3374036e-02
1.2570987e-01
1.8950053e-01
2.6775346e-01
3.3616455e-01
3.5608841e-01
2.9184650e-01
1.3844378e-01
-6.2908420e-02
-2.4358955e-01
-3.4844086e-01
-3.6281154e-01
-3.0652495e-01
-2.1411860e-01
-1.2030731e-01
-4.8736402e-02
-9.8499015e-03
2.5912694e-03
1.2600793e-02
4.7088747e-02
1.2273127e-01
2.3462217e-01
3.4506840e-01
3.9139091e-01
3.2588736e-01
1.5599505e-01
-5.7009470e-02
-2.4067881e-01
-3.5132814e-01
-3.8039618e-01
-3.4259735e-01
-2.6047274e-01
-1.5865346e-01
-5.6306421e-02
4.0308689e-02
1.3439205e-01
2.3408572e-01
3.3786256e-01
4.1539445e-01
4.0980043e-01
2.8073088e-01
5.3830417e-02
-1.8484303e-01
-3.5009797e-01
-4.0666639e-01
-3.6779085e-01
-2.7076503e-01
-1.4988491e-01
-2.9196183e-02
7.8021484e-02
1.7410732e-01
2.5860175e-01
3.1372038e-01
3.0900439e-01
2.1976151e-01
5.9392781e-02
-1.1555981e-01
-2.4135586e-01
-2.8573789e-01
-2.5343553e-01
-1.6696877e-01
-5.9667265e-02
2.4718801e-02
5.3757190e-02
2.9185326e-02
-1.5521678e-02
-3.7081016e-02
-7.6458776e-03
7.5074252e-02
1.8730806e-01
2.8104253e-01
3.0029280e-01
2.1514416e-01
4.9077552e-02
-1.3137354e-01
-2.6131872e-01
-3.1188285e-01
-2.8961355e-01
-2.1965076e-01
-1.2663847e-01
-3.0910019e-02
5.4585692e-02
1.3189883e-01
2.0592749e-01
2.7253133e-01
3.1141421e-01
2.8932551e-01
1.9032034e-01
4.2645954e-02
-9.4824636e-02
-1.7380760e-01
-1.8249786e-01
-1.4260781e-01
-9.5079345e-02
-9.0354428e-02
-1.3606738e-01
-1.7664889e-01
-1.7514150e-01
-1.3352650e-01
-5.7165325e-02
4.0870656e-02
1.3314335e-01
1.8329696e-01
1.6790413e-01
9.8682414e-02
1.2915615e-02
-5.0842909e-02
-6.9909196e-02
-4.6399111e-02
-2.7641513e-03
3.2182280e-02
3.7724482e-02
1.1980888e-02
-2.7812431e-02
-5.7916152e-02
-6.1783366e-02
-3.5687794e-02
1.1321117e-02
6.2769065e-02
1.0052913e-01
1.1076233e-01
9.4376521e-02
6.5663696e-02
3.8270837e-02
1.6349916e-02
-5.4540819e-03
-3.3664474e-02
-7.0224285e-02
-1.1148559e-01
-1.4677478e-01
-1.6289481e-01
-1.4790309e-01
-9.5884219e-02
-5.9578221e-03
1.1601162e-01
2.4186990e-01
3.2377184e-01
3.1678190e-01
2.0813604e-01
3.1205904e-02
-1.5257344e-01
-2.8570101e-01
-3.3777693e-01
-3.0883076e-01
-2.2204179e-01
-1.0796170e-01
1.1897904e-02
1.3043426e-01
2.4486911e-01
3.3604121e-01
3.6222433e-01
2.8414471e-01
1.0914966e-01
-9.4864476e-02
-2.4497823e-01
-3.0067517e-01
-2.7145693e-01
-1.9115269e-01
-9.8250837e-02
-1.9844506e-02
2.9558093e-02
4.3080343e-02
2.5551104e-02
-2.8270042e-03
-1.1822871e-02
2.0890901e-02
9.7321306e-02
1.8880327e-01
2.4284623e-01
2.1848207e-01
1.1480899e-01
-2.7957950e-02
-1.5569709e-01
-2.3156386e-01
-2.4404142e-01
-1.9905210e-01
-1.1636178e-01
-2.0172116e-02
7.2695337e-02
1.5109093e-01
2.0451002e-01
2.2142127e-01
1.9055632e-01
1.1046827e-01
2.9083224e-03
-9.3879073e-02
-1.4886633e-01
-1.5589276e-01
-1.2955286e-01
-8.9805686e-02
-5.3738085e-02
-2.9481182e-02
-1.7545788e-02
-1.5601929e-02
-1.8889831e-02
-2.0143738e-02
-1.0114378e-02
2.2787820e-02
8.4914076e-02
1.6119838e-01
2.1798429e-01
2.2085481e-01
1.5386354e-01
3.3559409e-02
-9.8681118e-02
-2.0082502e-01
-2.4788493e-01
-2.3527260e-01
-1.7760679e-01
-1.0066488e-01
-3.0998872e-02
1.7516107e-02
5.1025008e-02
8.4888517e-02
1.2850533e-01
1.7198065e-01
1.9131815e-01
1.6892902e-01
1.0489024e-01
1.6244877e-02
-7.1122430e-02
-1.3515027e-01
-1.6350996e-01
-1.5394384e-01
-1.1612355e-01
-6.8890648e-02
-3.2334461e-02
-1.4197276e-02
-6.3067880e-03
7.5380910e-03
4.3208243e-02
1.0362690e-01
1.7209732e-01
2.1681364e-01
2.0283015e-01
1.1289437e-01
-3.1293234e-02
-1.7678178e-01
-2.7235488e-01
-2.9505503e-01
-2.5471293e-01
-1.7636432e-01
-8.1319274e-02
2.5405765e-02
1.5062202e-01
2.8742473e-01
3.9761536e-01
4.2224876e-01
3.2652650e-01
1.4335124e-01
-4.4514363e-02
-1.6765127e-01
-2.0953467e-01
-2.0022443e-01
-1.9739078e-01
-2.2560981e-01
-2.4302123e-01
-2.1877366e-01
-1.6074731e-01
-7.9161004e-02
1.5538265e-02
1.1132021e-01
1.9340573e-01
2.4283094e-01
2.5107827e-01
2.2192764e-01
1.6314577e-01
8.2849937e-02
-1.0565091e-02
-9.8738337e-02
-1.5796096e-01
-1.7587022e-01
-1.5616462e-01
-1.1438520e-01
-7.0005556e-02
-3.6269789e-02
-1.8009783e-02
-1.2775180e-02
-1.2328954e-02
-5.6048803e-03
1.6043896e-02
5.1352240e-02
8.6571232e-02
1.0055873e-01
8.1669759e-02
3.8761859e-02
-5.8531921e-03
-3.2929850e-02
-3.6654479e-02
-2.1478571e-02
3.4106597e-03
3.0262823e-02
5.4472298e-02
7.0639129e-02
7.2008551e-02
5.2626312e-02
1.2791653e-02
-3.6338972e-02
-7.7396976e-02
-9.6884993e-02
-9.1443789e-02
-6.6740207e-02
-3.3759610e-02
-5.1821587e-03
8.1765332e-03
1.9921180e-03
-1.7559483e-02
-3.4179718e-02
-2.9980533e-02
4.0283285e-03
6.3001950e-02
1.2332183e-01
1.5090517e-01
1.2560834e-01
5.7531756e-02
-2.1204170e-02
-8.1880971e-02
-1.1379240e-01
-1.1952563e-01
-1.0765378e-01
-8.7567172e-02
-6.4228452e-02
-3.7517176e-02
-3.3951398e-03
4.0452364e-02
8.9956353e-02
1.3372435e-01
1.5677576e-01
1.5022020e-01
1.1091384e-01
4.3934615e-02
-3.2977635e-02
-9.6714904e-02
-1.2844193e-01
-1.2288391e-01
-9.1888681e-02
-5.6036890e-02
-3.1676168e-02
-2.6239712e-02
-3.6803781e-02
-5.0996479e-02
-5.4777147e-02
-4.0640501e-02
-9.2348167e-03
3.5117749e-02
9.0928794e-02
1.5905865e-01
2.2672038e-01
2.6288888e-01
2.3468146e-01
1.3173724e-01
-1.9520367e-02
-1.7101405e-01
-2.7938387e-01
-3.2199178e-01
-2.9889991e-01
-2.2651391e-01
-1.2648071e-01
-1.6983814e-02
9.3813863e-02
2.0189189e-01
2.9299547e-01
3.4012416e-01
3.1080489e-01
1.9529755e-01
2.8781707e-02
-1.2948318e-01
-2.3672392e-01
-2.8027836e-01
-2.6598606e-01
-2.1058830e-01
-1.3320216e-01
-5.1430136e-02
2.0243919e-02
7.8842803e-02
1.3297118e-01
1.9039442e-01
2.4366182e-01
2.6243689e-01
2.0885023e-01
7.8398261e-02
-8.1784760e-02
-2.0530666e-01
-2.5227845e-01
-2.2326545e-01
-1.4485577e-01
-5.3149761e-02
2.3618879e-02
7.3138539e-02
9.3733332e-02
9.0876246e-02
7.2100599e-02
4.2794993e-02
6.1118273e-03
-3.6905503e-02
-8.2687909e-02
-1.2044185e-01
-1.3646160e-01
-1.2157477e-01
-7.1870665e-02
6.7028425e-03
9.2575949e-02
1.5250160e-01
1.6111874e-01
1.2434750e-01
7.3488065e-02
4.0498762e-02
3.7697981e-02
5.3348892e-02
6.6195721e-02
6.4590134e-02
5.1771273e-02
3.3074664e-02
2.1359886e-03
-6.4041633e-02
-1.6230095e-01
-2.4058000e-01
-2.6474337e-01
-2.4067273e-01
-1.8185645e-01
-1.0207370e-01
-8.9320663e-03
9.6391311e-02
2.0842082e-01
3.0980605e-01
3.6408551e-01
3.3069837e-01
1.9986141e-01
1.2746021e-02
-1.5754308e-01
-2.5430718e-01
-2.6395932e-01
-2.0704518e-01
-1.2093268e-01
-4.5247580e-02
-5.7337740e-03
-6.8895655e-03
-3.6590461e-02
-7.6097315e-02
-1.0741432e-01
-1.1412838e-01
-7.9917832e-02
1.0126868e-02
1.5792342e-01
3.3543077e-01
4.8161542e-01
5.2614019e-01
4.2287672e-01
1.8573672e-01
-1.0378393e-01
-3.4700276e-01
-4.8766598e-01
-5.2274409e-01
-4.7549844e-01
-3.7524811e-01
-2.4647708e-01
-1.0422182e-01
5.0217294e-02
2.2773157e-01
4.2770797e-01
6.0394716e-01
6.6184678e-01
5.2254035e-01
2.0103252e-01
-1.7880687e-01
-4.6369917e-01
-5.7497536e-01
-5.2580905e-01
-3.7045924e-01
-1.6154113e-01
5.2389784e-02
2.2045746e-01
3.0661343e-01
3.0574132e-01
2.4300372e-01
1.5132472e-01
5.0281874e-02
-4.3985251e-02
-1.1453595e-01
-1.5410735e-01
-1.5920857e-01
-1.2769060e-01
-6.8425189e-02
-1.0331572e-02
3.5794292e-03
-4.7073628e-02
-1.3004044e-01
-1.8182604e-01
-1.5965070e-01
-6.1973189e-02
9.1415449e-02
2.7597893e-01
4.5335715e-01
5.5663693e-01
5.1278415e-01
2.9995821e-01
-1.3306926e-02
-3.0145448e-01
-4.6737751e-01
-4.8686307e-01
-3.8880280e-01
-2.2576864e-01
-6.4815130e-02
3.3667449e-02
5.2173271e-02
1.7825680e-02
-2.4244068e-02
-3.6601973e-02
-5.2798137e-03
6.1846327e-02
1.4276215e-01
2.1057622e-01
2.4459721e-01
2.3395310e-01
1.7521374e-01
7.0029572e-02
-6.5567597e-02
-1.9857017e-01
-2.9234416e-01
-3.2462031e-01
-2.9989643e-01
-2.3800704e-01
-1.5440117e-01
-5.0104872e-02
7.9196935e-02
2.3541580e-01
4.0594260e-01
5.3804405e-01
5.5684051e-01
4.1855267e-01
1.5298225e-01
-1.4123426e-01
-3.6106699e-01
-4.5590553e-01
-4.3242502e-01
-3.3155108e-01
-2.0080025e-01
-8.1012803e-02
-5.3001327e-03
1.6513827e-02
5.9183371e-03
-4.8237146e-04
3.0129653e-02
1.1254393e-01
2.3296220e-01
3.4153591e-01
3.6882568e-01
2.7362957e-01
8.3747187e-02
-1.1906253e-01
-2.5859658e-01
-3.0490520e-01
-2.6870195e-01
-1.8167167e-01
-8.8817513e-02
-3.1309331e-02
-2.2636367e-02
-4.0659632e-02
-4.4194663e-02
-2.2484652e-03
8.9681794e-02
2.0590250e-01
2.9741909e-01
3.1505465e-01
2.4205898e-01
1.0634957e-01
-3.7092155e-02
-1.3838193e-01
-1.7693505e-01
-1.6093184e-01
-1.1506218e-01
-6.1925865e-02
-1.4137151e-02
1.5852621e-02
4.5727466e-03
-4.8060608e-02
-9.6549435e-02
-1.1190491e-01
-1.0049530e-01
-7.2474529e-02
-3.9045004e-02
-1.2317793e-02
-1.4321812e-03
-6.6395144e-03
-1.7397388e-02
-2.1815538e-02
-1.2228686e-02
1.6135077e-02
6.5478090e-02
1.3306010e-01
2.0536929e-01
2.5104557e-01
2.3569260e-01
1.5128166e-01
2.7028121e-02
-8.8870840e-02
-1.6211204e-01
-1.8491957e-01
-1.6604039e-01
-1.1999855e-01
-6.3340720e-02
-1.2319023e-02
1.9387050e-02
2.8055557e-02
2.5669444e-02
3.1933718e-02
5.8429685e-02
9.4189526e-02
1.1139452e-01
8.9299827e-02
3.0447795e-02
-4.2349221e-02
-1.0348296e-01
-1.4047314e-01
-1.5261002e-01
-1.4428929e-01
-1.2294104e-01
-9.9202127e-02
-8.4093936e-02
-7.8460395e-02
-7.2505441e-02
-4.6236054e-02
2.7757484e-02
1.6646573e-01
3.5567176e-01
5.2795456e-01
5.7735138e-01
4.3370288e-01
1.3231022e-01
-1.9783348e-01
-4.2485324e-01
-4.9508136e-01
-4.3006323e-01
-2.8324626e-01
-1.1327758e-01
3.3963812e-02
1.3218672e-01
1.7236174e-01
1.5846855e-01
1.0339209e-01
2.7666656e-02
-4.6009189e-02
-9.9777514e-02
-1.2682456e-01
-1.3190382e-01
-1.2577923e-01
-1.1855422e-01
-1.0940597e-01
-8.9802570e-02
-5.1506837e-02
1.3846738e-02
1.1410884e-01
2.5076260e-01
3.9960540e-01
4.9669786e-01
4.6116416e-01
2.6520328e-01
-1.4783219e-02
-2.5299861e-01
-3.7273906e-01
-3.7168651e-01
-2.8973778e-01
-1.7778681e-01
-7.7154416e-02
-1.1866909e-02
1.3902738e-02
1.3278516e-02
4.7114397e-03
3.0827719e-03
2.0472776e-02
6.1245098e-02
1.1264019e-01
1.5326351e-01
1.6580089e-01
1.4215036e-01
8.7932411e-02
1.7333512e-02
-5.5571630e-02
-1.1697047e-01
-1.6053550e-01
-1.8842926e-01
-1.9953907e-01
-1.8874977e-01
-1.4838474e-01
-7.4971562e-02
2.8773073e-02
1.5578701e-01
2.8115895e-01
3.6167931e-01
3.5466878e-01
2.4572747e-01
6.8510331e-02
-1.1090988e-01
-2.3266552e-01
-2.6964566e-01
-2.2937781e-01
-1.4180788e-01
-4.4910185e-02
2.6616657e-02
5.5936791e-02
4.8608193e-02
1.9054301e-02
-1.9565636e-02
-5.7810548e-02
-8.8139613e-02
-1.0251893e-01
-9.4351068e-02
-6.1753504e-02
-1.0743456e-02
4.9397935e-02
1.0909030e-01
1.5681017e-01
1.8671928e-01
1.9957054e-01
1.9285643e-01
1.5438852e-01
7.5491986e-02
-2.8840422e-02
-1.2492302e-01
-1.8355541e-01
-1.9585014e-01
-1.7063869e-01
-1.2293504e-01
-6.4842267e-02
-5.7490024e-03
4.3576992e-02
7.2791934e-02
7.9189438e-02
7.0203236e-02
5.6109471e-02
4.4546368e-02
4.2059671e-02
5.1689590e-02
6.0829144e-02
2.9818208e-02
-4.5989380e-02
-1.0542223e-01
-1.1720046e-01
-9.6803531e-02
-6.2925287e-02
-3.4743513e-02
-2.6144471e-02
-4.4235793e-02
-7.9491559e-02
-1.0537410e-01
-9.9489021e-02
-5.0907533e-02
4.1170768e-02
1.6205972e-01
2.7835942e-01
3.4260229e-01
3.1108076e-01
1.7764741e-01
-1.0278230e-02
-1.7974897e-01
-2.7933663e-01
-3.0023095e-01
-2.6055985e-01
-1.8503203e-01
-9.1582248e-02
7.7724501e-03
1.0397903e-01
1.9087988e-01
2.5620698e-01
2.8648180e-01
2.7200225e-01
2.0470577e-01
8.6794781e-02
-5.8604191e-02
-1.8885251e-01
-2.6548506e-01
-2.7627793e-01
-2.3243743e-01
-1.5862051e-01
-8.2690115e-02
-2.5685649e-02
9.5295319e-04
1.1285098e-03
-9.5609178e-03
-1.2967416e-02
9.0126558e-03
6.8038798e-02
1.6013267e-01
2.5187003e-01
2.9090391e-01
2.4478926e-01
1.2406389e-01
-2.6479639e-02
-1.5683919e-01
-2.3811862e-01
-2.6576835e-01
-2.4913445e-01
-2.0588876e-01
-1.5216566e-01
-9.1231830e-02
-1.3474902e-02
9.2783234e-02
2.2595625e-01
3.5680977e-01
4.2452834e-01
3.7252218e-01
2.0286633e-01
-1.4378092e-02
-1.9213949e-01
-2.8318758e-01
-2.8895164e-01
-2.3490650e-01
-1.4805000e-01
-5.2213259e-02
2.9459599e-02
7.5971451e-02
7.9012828e-02
5.2669903e-02
2.1599740e-02
2.3100413e-03
-4.8906545e-03
-8.6565149e-03
-1.4961094e-02
-2.4599300e-02
-3.6232793e-02
-4.7968234e-02
-5.8197999e-02
-6.5629499e-02
-6.6134532e-02
-5.6483541e-02
-3.4270541e-02
7.0910435e-03
7.3321958e-02
1.6102180e-01
2.4857004e-01
2.9478361e-01
2.6019745e-01
1.4231003e-01
-1.3192013e-02
-1.4428716e-01
-2.1517281e-01
-2.2760114e-01
-2.0349668e-01
-1.6725524e-01
-1.3548019e-01
-1.1470604e-01
-1.0205526e-01
-8.7243806e-02
-5.5466631e-02
7.0530199e-03
1.0716210e-01
2.3628092e-01
3.5515628e-01
4.0591412e-01
3.4642561e-01
1.8144768e-01
-3.2935067e-02
-2.2510359e-01
-3.4436751e-01
-3.7500161e-01
-3.2895994e-01
-2.3301308e-01
-1.1789498e-01
-8.5702238e-03
8.4129399e-02
1.5729119e-01
1.9703620e-01
1.8218647e-01
1.0564612e-01
-8.0070361e-03
-1.0831747e-01
-1.4958899e-01
-1.1292060e-01
-3.1564514e-03
1.5889426e-01
3.3058491e-01
4.4153142e-01
4.2319267e-01
2.6172884e-01
1.7775598e-02
-2.1365107e-01
-3.6509369e-01
-4.1880116e-01
-3.9082739e-01
-3.0684256e-01
-1.9183339e-01
-7.0095723e-02
3.5983768e-02
1.1051534e-01
1.4851303e-01
1.5297154e-01
1.3432674e-01
1.0806334e-01
8.7829352e-02
8.1971089e-02
9.1266275e-02
1.0930782e-01
1.2425576e-01
1.1009087e-01
2.1203505e-02
-1.3706251e-01
-2.7957176e-01
-3.5047396e-01
-3.4841081e-01
-2.7503666e-01
-1.3917314e-01
4.0946412e-02
2.3531771e-01
3.8948264e-01
4.4428063e-01
3.6883379e-01
1.8637655e-01
-2.6523649e-02
-1.8946854e-01
-2.6286927e-01
-2.5013315e-01
-1.8188483e-01
-9.8926307e-02
-3.5156177e-02
-6.4682388e-03
-3.8468109e-03
-2.8137512e-03
1.8903036e-02
7.0916752e-02
1.3925709e-01
1.9213380e-01
2.0127260e-01
1.5584110e-01
6.4569350e-02
-4.8206979e-02
-1.5188457e-01
-2.2102180e-01
-2.4815113e-01
-2.4364872e-01
-2.1701189e-01
-1.7138692e-01
-1.0257339e-01
-1.2550253e-03
1.3722939e-01
3.0077085e-01
4.4307024e-01
4.9729307e-01
4.2313098e-01
2.3770098e-01
1.7234999e-03
-2.0967621e-01
-3.3780922e-01
-3.6783624e-01
-3.2215833e-01
-2.3586650e-01
-1.4235790e-01
-6.6149922e-02
-1.5505456e-02
1.4262153e-02
3.1498838e-02
4.6407979e-02
7.0463135e-02
1.1052619e-01
1.5849282e-01
1.8691999e-01
1.5939357e-01
6.5212618e-02
-5.6342412e-02
-1.4771567e-01
-1.7466506e-01
-1.3376409e-01
-4.8502167e-02
3.6364647e-02
7.8034709e-02
6.5196897e-02
2.3309491e-02
-6.6280053e-03
5.6896405e-03
6.6467851e-02
1.5538704e-01
2.2694487e-01
2.2765006e-01
1.3410168e-01
-2.5007480e-02
-1.8568713e-01
-2.9327105e-01
-3.3271447e-01
-3.1454392e-01
-2.5571267e-01
-1.7329466e-01
-8.2388909e-02
1.0584916e-02
1.0916235e-01
2.1519529e-01
3.2083235e-01
3.9849161e-01
4.0163846e-01
2.9649974e-01
1.0482139e-01
-9.7477315e-02
-2.3419129e-01
-2.7616747e-01
-2.3971281e-01
-1.6025904e-01
-7.7010101e-02
-1.8640774e-02
6.5482832e-03
7.3696603e-03
1.9676865e-03
8.0203855e-03
3.3273485e-02
6.8387736e-02
8.7734447e-02
6.6977508e-02
4.9386821e-03
-7.4482392e-02
-1.3708521e-01
-1.5894538e-01
-1.3843220e-01
-9.2404151e-02
-4.5800416e-02
-1.2552990e-02
1.1454646e-02
4.0123138e-02
8.8390925e-02
1.5598396e-01
2.2277888e-01
2.5823726e-01
2.3520516e-01
1.5097113e-01
3.4980939e-02
-6.8933501e-02
-1.2838338e-01
-1.3700563e-01
-1.1010300e-01
-7.3946179e-02
-5.5589812e-02
-6.9543515e-02
-1.0961536e-01
-1.5135035e-01
-1.6663412e-01
-1.3634408e-01
-5.6093078e-02
6.2992710e-02
1.9270706e-01
2.8467507e-01
2.9349139e-01
2.0939116e-01
6.6049393e-02
-7.9818953e-02
-1.8151300e-01
-2.2079905e-01
-2.0399957e-01
-1.4821325e-01
-7.3584236e-02
3.5101139e-03
7.7014462e-02
1.4567545e-01
2.0162571e-01
2.2599526e-01
2.0065110e-01
1.2968159e-01
4.0256176e-02
-4.3777269e-02
-1.2461141e-01
-2.0321392e-01
-2.5144742e-01
-2.5086095e-01
-2.0820992e-01
-1.3592582e-01
-5.1335986e-02
2.6978904e-02
8.1380947e-02
1.0470270e-01
1.0941135e-01
1.1086386e-01
1.1580598e-01
1.2163622e-01
1.1858280e-01
9.8748868e-02
6.0126101e-02
5.6926963e-03
-5.5811458e-02
-1.1156107e-01
-1.4858189e-01
-1.5737018e-01
-1.3999717e-01
-1.0562635e-01
-6.0847792e-02
-7.6111082e-03
5.8657438e-02
1.4311144e-01
2.3163290e-01
2.7939775e-01
2.4278094e-01
1.2499683e-01
-2.1513647e-02
-1.3810883e-01
-1.9710157e-01
-2.0248841e-01
-1.7444775e-01
-1.3527603e-01
-1.0123247e-01
-7.6327819e-02
-5.2149967e-02
-1.3241209e-02
5.4252285e-02
1.4965474e-01
2.4987384e-01
3.0957560e-01
2.8404050e-01
1.6859922e-01
8.1829790e-03
-1.3819479e-01
-2.3345281e-01
-2.7005101e-01
-2.5920578e-01
-2.1501211e-01
-1.5149733e-01
-8.0292594e-02
-5.4525120e-03
7.4985063e-02
1.6443248e-01
2.5449390e-01
3.1474996e-01
3.0398264e-01
2.0407684e-01
4.2736187e-02
-1.2008756e-01
-2.3277268e-01
-2.7840270e-01
-2.6618167e-01
-2.1679148e-01
-1.4864417e-01
-7.4019201e-02
1.7486494e-03
8.0074484e-02
1.5950568e-01
2.3420468e-01
2.8954096e-01
2.9568779e-01
2.2359058e-01
7.7984062e-02
-9.2366945e-02
-2.2468188e-01
-2.8338791e-01
-2.7355022e-01
-2.2165084e-01
-1.5469630e-01
-8.8660406e-02
-2.9427180e-02
2.4505201e-02
7.9184512e-02
1.3624859e-01
1.9186499e-01
2.3528187e-01
2.4497455e-01
1.9836375e-01
9.7361238e-02
-2.3772942e-02
-1.2235812e-01
-1.7283296e-01
-1.7492855e-01
-1.4637651e-01
-1.0907272e-01
-8.1006038e-02
-7.2347731e-02
-7.7991616e-02
-8.1391120e-02
-6.3098618e-02
-8.8463366e-03
8.3619692e-02
1.9912200e-01
2.9536486e-01
3.1979360e-01
2.4533499e-01
9.0614227e-02
-9.0525233e-02
-2.4193559e-01
-3.2911622e-01
-3.4228466e-01
-2.8956138e-01
-1.9421535e-01
-8.1380728e-02
3.7183106e-02
1.6323474e-01
3.0262024e-01
4.3626323e-01
4.9797030e-01
4.1533440e-01
1.9084608e-01
-7.9201429e-02
-2.7895347e-01
-3.5546593e-01
-3.2484567e-01
-2.3256140e-01
-1.3135829e-01
-6.3061656e-02
-4.1175955e-02
-5.1559287e-02
-6.4792798e-02
-5.2402799e-02
4.5414356e-04
9.3301589e-02
2.0554802e-01
2.8666968e-01
2.8334145e-01
1.8534526e-01
3.5562048e-02
-9.9656959e-02
-1.7694828e-01
-1.9273978e-01
-1.6746535e-01
-1.3176056e-01
-1.0829260e-01
-9.7407477e-02
-8.4781704e-02
-5.1501488e-02
1.4231082e-02
1.0355735e-01
1.8628538e-01
2.2620440e-01
2.0617330e-01
1.3349615e-01
1.8937017e-02
-1.0953121e-01
-2.0142610e-01
-2.3734204e-01
-2.2800796e-01
-1.8202071e-01
-1.0798967e-01
-8.7400584e-03
1.1658647e-01
2.5392369e-01
3.6535452e-01
3.8973617e-01
2.7983117e-01
6.0805699e-02
-1.7287129e-01
-3.2565113e-01
-3.5719524e-01
-2.7893053e-01
-1.2278627e-01
7.4949407e-02
2.5981346e-01
3.5796465e-01
3.2187412e-01
1.7545232e-01
3.0005404e-03
-1.1579465e-01
-1.5046192e-01
-1.1404211e-01
-4.4426532e-02
9.9684272e-03
9.5942055e-03
-4.9318388e-02
-1.2625819e-01
-1.6915117e-01
-1.5541276e-01
-9.2381157e-02
-2.6863342e-03
7.5337123e-02
9.6061165e-02
3.8412056e-02
-6.7553740e-02
-1.6019687e-01
-1.9308132e-01
-1.5526746e-01
-5.9122233e-02
7.2342091e-02
1.9178158e-01
2.3528166e-01
1.7555524e-01
4.5915723e-02
-8.9524292e-02
-1.8113994e-01
-2.0812513e-01
-1.6786960e-01
-7.0440700e-02
7.7962375e-02
2.7178832e-01
4.7018265e-01
5.9686609e-01
5.8112963e-01
4.0707597e-01
1.3829664e-01
-1.2139430e-01
-2.9643482e-01
-3.7057557e-01
-3.7228975e-01
-3.4104794e-01
-3.0317348e-01
-2.6692191e-01
-2.2850202e-01
-1.8415627e-01
-1.3379958e-01
-8.3267474e-02
-4.6989315e-02
-3.4881229e-02
-4.1735517e-02
-5.1566620e-02
-4.3000712e-02
5.0171484e-03
1.1690348e-01
3.1076125e-01
5.4913094e-01
7.1628416e-01
6.7452154e-01
3.9098662e-01
-1.0491891e-03
-3.2505667e-01
-4.9540810e-01
-5.2004489e-01
-4.4918310e-01
-3.3947514e-01
-2.3994671e-01
-1.7390773e-01
-1.3039358e-01
-8.6901641e-02
-2.2065593e-02
8.5208685e-02
2.4688876e-01
4.3628030e-01
5.6273008e-01
5.2334815e-01
3.0252891e-01
-5.1062343e-04
-2.4870766e-01
-3.5583304e-01
-3.1471923e-01
-1.7636271e-01
-7.7864212e-03
1.3895434e-01
2.2774790e-01
2.3427726e-01
1.5283507e-01
9.3411016e-03
-1.3999005e-01
-2.4334133e-01
-2.8088463e-01
-2.6191514e-01
-2.0818462e-01
-1.3788724e-01
-6.2457752e-02
7.1389767e-03
6.0650469e-02
9.2294430e-02
1.0689762e-01
1.1706333e-01
1.2787828e-01
1.3600630e-01
1.3229940e-01
1.0681945e-01
5.5982190e-02
-1.1603986e-02
-7.2045383e-02
-1.0017259e-01
-8.3874828e-02
-2.7539852e-02
3.9393486e-02
6.7509430e-02
2.6174022e-02
-7.1587983e-02
-1.7815129e-01
-2.3796209e-01
-2.2086957e-01
-1.2628088e-01
3.6737725e-02
2.4180783e-01
4.2060765e-01
4.7977515e-01
3.6939326e-01
1.3838270e-01
-9.7137348e-02
-2.4465195e-01
-2.8074585e-01
-2.2832479e-01
-1.2904611e-01
-2.8160715e-02
4.1149359e-02
7.0215781e-02
7.1421611e-02
5.5456574e-02
1.8619461e-02
-5.5168917e-02
-1.5190058e-01
-2.1428452e-01
-2.1642993e-01
-1.7922856e-01
-1.2904553e-01
-8.1340829e-02
-3.8600688e-02
-4.4344565e-03
5.3769264e-03
-2.2411593e-02
-6.6336695e-02
-7.5870694e-02
-7.4258680e-03
1.5938343e-01
4.1153327e-01
6.7620836e-01
8.1229775e-01
6.9701239e-01
3.4093106e-01
-1.0377923e-01
-4.5662184e-01
-6.3130032e-01
-6.4332101e-01
-5.4903344e-01
-4.0424745e-01
-2.5232909e-01
-1.2232621e-01
-2.9384856e-02
2.5569902e-02
6.0530110e-02
1.1002058e-01
2.0969742e-01
3.6529231e-01
5.2734147e-01
5.9676750e-01
4.8437864e-01
2.0198054e-01
-1.3245263e-01
-3.9290122e-01
-5.1922209e-01
-5.2153311e-01
-4.4522945e-01
-3.3265359e-01
-2.1293333e-01
-9.6215880e-02
2.4922291e-02
1.6746714e-01
3.5256900e-01
5.5792677e-01
6.8416563e-01
6.1304786e-01
3.1342947e-01
-1.0253647e-01
-4.6160838e-01
-6.5730181e-01
-6.7234342e-01
-5.4625610e-01
-3.4728917e-01
-1.3428119e-01
6.5610278e-02
2.5303436e-01
4.3744729e-01
6.0818944e-01
7.0413878e-01
6.2981141e-01
3.5481467e-01
-2.1741284e-02
-3.4407227e-01
-5.1343325e-01
-5.2463662e-01
-4.2903085e-01
-2.8940709e-01
-1.5598765e-01
-6.1151532e-02
-2.0885151e-02
-2.7606932e-02
-5.6836908e-02
-8.6478263e-02
-9.4239550e-02
-5.8192961e-02
3.4606049e-02
1.9610899e-01
4.2261230e-01
6.3995838e-01
6.9971422e-01
4.9657594e-01
9.3558463e-02
-3.0613067e-01
-5.2858955e-01
-5.4434571e-01
-4.2079958e-01
-2.3271047e-01
-2.7024598e-02
1.6827011e-01
3.1738711e-01
3.6508454e-01
2.7109658e-01
6.3634437e-02
-1.6294188e-01
-3.1398086e-01
-3.5324344e-01
-2.9919943e-01
-1.8979671e-01
-6.9996076e-02
1.6879874e-02
4.9424701e-02
3.9368272e-02
2.6579500e-02
5.2615160e-02
1.3508051e-01
2.6025039e-01
3.7270191e-01
3.9158282e-01
2.8116414e-01
8.9407565e-02
-9.5399577e-02
-2.0874350e-01
-2.3603696e-01
-2.0075464e-01
-1.4365870e-01
-1.0194095e-01
-9.0646658e-02
-9.8333888e-02
-9.9882810e-02
-7.3584820e-02
-1.5393334e-02
6.1893209e-02
1.3361453e-01
1.6414912e-01
1.2633065e-01
2.6057517e-02
-9.6499482e-02
-1.9585575e-01
-2.4549698e-01
-2.4015637e-01
-1.9009562e-01
-1.0785856e-01
-6.0123946e-03
1.0771066e-01
2.3895413e-01
3.8009692e-01
4.8336952e-01
4.7518131e-01
3.0787928e-01
2.2134927e-02
-2.6441062e-01
-4.4660396e-01
-4.8634810e-01
-4.0085324e-01
-2.3665223e-01
-4.7924451e-02
1.2144642e-01
2.4199154e-01
2.9230743e-01
2.6092490e-01
1.6602249e-01
5.9804408e-02
-4.1183997e-03
1.3409759e-03
6.4016090e-02
