6.5301686e-02
5.5505325e-01
9.6701145e-01
1.2369109e+00
1.3415594e+00
1.3256253e+00
1.2013295e+00
8.7661944e-01
3.0126216e-01
-3.7177443e-01
-8.9604427e-01
-1.1447972e+00
-1.1286291e+00
-8.8106212e-01
-4.0333097e-01
2.9261841e-01
1.1289307e+00
1.9059758e+00
2.2838238e+00
1.9405251e+00
8.8584278e-01
-4.0822423e-01
-1.3716832e+00
-1.7701415e+00
-1.7032385e+00
-1.3913042e+00
-1.0320700e+00
-7.6112050e-01
-6.4010706e-01
-5.8928396e-01
-4.0653330e-01
5.4663456e-02
7.2666656e-01
1.3056609e+00
1.4437853e+00
1.0403013e+00
3.2109283e-01
-3.5552436e-01
-7.6139583e-01
-8.6095045e-01
-6.8376270e-01
-2.4256210e-01
4.2776194e-01
1.1555376e+00
1.6257260e+00
1.5863487e+00
1.0411753e+00
2.2591083e-01
-5.9110736e-01
-1.2583453e+00
-1.7411143e+00
-2.0542695e+00
-2.1855042e+00
-2.0321613e+00
-1.3854888e+00
-5.3489948e-02
1.9485575e+00
4.1330385e+00
5.5320546e+00
5.3124637e+00
3.4379235e+00
7.7975973e-01
-1.5451561e+00
-2.9567526e+00
-3.4658706e+00
-3.3502466e+00
-2.9183126e+00
-2.3983342e+00
-1.9281011e+00
-1.5661428e+00
-1.3006034e+00
-1.0668469e+00
-7.7443721e-01
-3.1497363e-01
4.5917223e-01
1.6902659e+00
3.3372018e+00
4.9259074e+00
5.6295560e+00
4.8599600e+00
2.8376443e+00
4.4695081e-01
-1.5224536e+00
-2.7603164e+00
-3.2726860e+00
-3.1897293e+00
-2.6799208e+00
-1.9451614e+00
-1.2155859e+00
-6.8482097e-01
-4.0705834e-01
-2.8691737e-01
-1.8012203e-01
2.7820065e-02
3.8530500e-01
8.3311898e-01
1.1935597e+00
1.2596315e+00
9.4108913e-01
3.1786244e-01
-4.0960581e-01
-9.6429610e-01
-1.0790900e+00
-6.4178414e-01
2.4299754e-01
1.2413262e+00
1.8380533e+00
1.5971565e+00
5.0928485e-01
-9.3495458e-01
-2.1214688e+00
-2.7046584e+00
-2.6323815e+00
-1.9888331e+00
-8.7040448e-01
6.1942279e-01
2.2964992e+00
3.8283719e+00
4.7257757e+00
4.4755609e+00
2.9130585e+00
6.1669903e-01
-1.4253685e+00
-2.6034977e+00
-2.8846160e+00
-2.5529588e+00
-1.9699265e+00
-1.4329636e+00
-1.1294650e+00
-1.0346445e+00
-8.6689967e-01
-3.3328646e-01
6.2795781e-01
1.7171297e+00
2.3548547e+00
2.1923123e+00
1.4598176e+00
6.3460492e-01
-2.5669168e-02
-5.1607604e-01
-8.5881634e-01
-1.0153758e+00
-1.0252828e+00
-1.0597286e+00
-1.1569514e+00
-1.1157932e+00
-8.3787609e-01
-4.4346449e-01
-4.4101210e-02
3.5114434e-01
7.1636736e-01
9.9238518e-01
1.1517613e+00
1.1331579e+00
8.8877409e-01
5.0670517e-01
1.0829162e-01
-2.5691834e-01
-5.2692355e-01
-6.2111911e-01
-5.6622001e-01
-5.3884876e-01
-6.4434084e-01
-7.1461490e-01
-4.4638447e-01
2.9353823e-01
1.2279306e+00
1.6311490e+00
9.3910746e-01
-4.3495721e-01
-1.5357411e+00
-1.8593408e+00
-1.4258241e+00
-4.2255968e-01
9.0946685e-01
2.2688166e+00
3.1154945e+00
2.8177233e+00
1.4581347e+00
-1.6115815e-01
-1.4298306e+00
-2.1882327e+00
-2.4268705e+00
-2.1807762e+00
-1.5729163e+00
-7.8605511e-01
3.7854707e-02
8.0233978e-01
1.4411678e+00
1.9058573e+00
2.0825372e+00
1.8332246e+00
1.1448158e+00
2.1802924e-01
-6.2484228e-01
-1.1736104e+00
-1.4443204e+00
-1.5509358e+00
-1.5264279e+00
-1.3571046e+00
-1.0862219e+00
-7.8906891e-01
-5.0697202e-01
-2.4309523e-01
5.7860559e-03
3.2375914e-01
8.9498029e-01
1.8072354e+00
2.8144435e+00
3.2712089e+00
2.6784067e+00
1.3115943e+00
-8.9699858e-02
-1.0202113e+00
-1.4352805e+00
-1.6101028e+00
-1.7641464e+00
-1.8258781e+00
-1.6690407e+00
-1.3306153e+00
-9.1884469e-01
-4.7716129e-01
-6.2584679e-02
2.4032511e-01
4.5319750e-01
6.6826711e-01
8.8354643e-01
9.9735648e-01
9.3512954e-01
6.8731983e-01
3.2646211e-01
-6.3187232e-03
-2.2662849e-01
-3.2614873e-01
-2.6401064e-01
4.4150657e-03
4.1012586e-01
6.7866478e-01
5.4394587e-01
9.5570008e-02
-3.2959788e-01
-4.8652147e-01
-3.7745412e-01
-2.7470454e-01
-4.1673755e-01
-6.2810859e-01
-6.1599879e-01
-3.7700728e-01
-6.4041987e-02
2.2791804e-01
4.3515485e-01
5.2395023e-01
5.2506896e-01
5.0129208e-01
5.0583760e-01
5.8760576e-01
6.4356342e-01
3.9852268e-01
-1.4691066e-01
-6.9485465e-01
-1.0251472e+00
-1.0826258e+00
-9.2616368e-01
-7.0470834e-01
-5.6191728e-01
-4.9025677e-01
-3.3920231e-01
3.1102459e-02
6.2003137e-01
1.2365193e+00
1.5643495e+00
1.3555875e+00
6.4784177e-01
-2.1934189e-01
-8.8637282e-01
-1.2068231e+00
-1.2091870e+00
-9.7505420e-01
-5.9602784e-01
-1.8311932e-01
1.9372002e-01
5.5059791e-01
8.9377396e-01
1.1093843e+00
1.0601718e+00
7.7732595e-01
3.9981301e-01
1.1885649e-02
-3.5803668e-01
-6.5601997e-01
-7.8812483e-01
-6.8249079e-01
-3.2364666e-01
2.3780371e-01
8.4038202e-01
1.2040972e+00
1.1348513e+00
7.2334781e-01
1.8983898e-01
-3.4715829e-01
-8.5440763e-01
-1.2579662e+00
-1.4437109e+00
-1.3698480e+00
-1.0912501e+00
-6.8629088e-01
-2.2037728e-01
2.5571340e-01
7.2743302e-01
1.1854308e+00
1.5216044e+00
1.5253487e+00
1.1040841e+00
4.9819563e-01
9.7377955e-02
3.0436719e-02
8.4435253e-02
3.5031022e-03
-2.5738875e-01
-5.9487877e-01
-9.0216540e-01
-1.0779389e+00
-1.0480775e+00
-8.2702569e-01
-4.9448262e-01
-1.2302168e-01
2.4293927e-01
5.3017139e-01
6.1820672e-01
4.5786486e-01
1.4436525e-01
-2.0265405e-01
-5.4801319e-01
-8.5327927e-01
-9.8312658e-01
-8.0188792e-01
-2.9414099e-01
4.2175728e-01
1.1121084e+00
1.4875509e+00
1.4128721e+00
1.0424361e+00
6.1595695e-01
2.4833322e-01
-1.1299392e-02
-8.2439227e-02
4.8851883e-02
2.0529858e-01
1.4581118e-01
-1.5097529e-01
-4.7074278e-01
-6.3860066e-01
-6.5832327e-01
-6.0736375e-01
-5.1020362e-01
-3.6299728e-01
-1.9861430e-01
-7.3328643e-02
-4.3263032e-02
-1.5084145e-01
-3.9098231e-01
-6.7613885e-01
-8.7989192e-01
-9.2827763e-01
-8.1657153e-01
-5.7014235e-01
-2.4255390e-01
9.6356180e-02
4.7071792e-01
1.0249053e+00
1.7948678e+00
2.4921851e+00
2.6885811e+00
2.3127002e+00
1.7015934e+00
1.0490196e+00
1.8923792e-01
-9.0780679e-01
-1.8552421e+00
-2.2620478e+00
-2.0637227e+00
-1.4545643e+00
-7.0275764e-01
-2.1960692e-02
3.7319941e-01
3.0734207e-01
-9.7639554e-02
-4.9406354e-01
-6.3098201e-01
-4.3789906e-01
2.1559865e-02
5.3996524e-01
8.3057844e-01
7.4941596e-01
4.1735611e-01
5.2287781e-02
-2.6004699e-01
-5.4940691e-01
-8.1905575e-01
-1.0188526e+00
-1.0876194e+00
-9.6990207e-01
-6.3401739e-01
-8.7701058e-02
6.4100646e-01
1.4509295e+00
2.0575875e+00
2.0784930e+00
1.4220249e+00
4.7920823e-01
-2.6919032e-01
-6.2886824e-01
-6.4319039e-01
-4.2349749e-01
-1.1275752e-01
1.0863551e-01
1.2071885e-01
-4.0862942e-02
-2.3672433e-01
-3.6825438e-01
-4.3076355e-01
-4.5689445e-01
-4.8647338e-01
-5.5831850e-01
-6.6098325e-01
-6.9176499e-01
-5.1326359e-01
-5.8780074e-02
6.2600860e-01
1.3610089e+00
1.8284983e+00
1.7101893e+00
9.5966872e-01
-6.9040298e-02
-9.0476542e-01
-1.3299454e+00
-1.3973845e+00
-1.2205109e+00
-8.3769722e-01
-2.5481793e-01
4.6354692e-01
1.1610409e+00
1.5992914e+00
1.5275365e+00
8.6287653e-01
-1.3305729e-01
-1.0141156e+00
-1.5000621e+00
-1.5571674e+00
-1.2659759e+00
-7.1792657e-01
-2.2736085e-02
6.6273166e-01
1.1634911e+00
1.3378743e+00
1.1260804e+00
6.0718276e-01
1.2270351e-02
-4.3543980e-01
-6.7040409e-01
-7.3579921e-01
-6.8389798e-01
-5.5958251e-01
-4.1150491e-01
-2.5870302e-01
-5.6319234e-02
2.4349409e-01
5.6294758e-01
7.4407905e-01
7.1882515e-01
5.2356348e-01
2.0968743e-01
-1.7046857e-01
-4.9887889e-01
-6.2300931e-01
-4.4101168e-01
7.6258490e-02
8.0072867e-01
1.3503563e+00
1.2681625e+00
4.6008992e-01
-6.4975065e-01
-1.5224040e+00
-1.9145757e+00
-1.8575080e+00
-1.4495400e+00
-7.5038275e-01
1.9765463e-01
1.2798552e+00
2.1937667e+00
2.4956757e+00
1.9068636e+00
6.3788194e-01
-6.7746693e-01
-1.4725839e+00
-1.5538170e+00
-1.0097080e+00
-8.1535387e-02
8.6310837e-01
1.3891040e+00
1.2250983e+00
5.1356259e-01
-3.1734613e-01
-9.7783204e-01
-1.4477818e+00
-1.7263693e+00
-1.6787266e+00
-1.1777121e+00
-2.7345179e-01
7.7986350e-01
1.6125935e+00
1.9367133e+00
1.8513936e+00
1.6079548e+00
1.0996517e+00
2.0242043e-01
-8.1476375e-01
-1.5324145e+00
-1.7322307e+00
-1.4694100e+00
-9.0417539e-01
-1.9127544e-01
4.8048572e-01
8.5530585e-01
7.6868620e-01
3.1859126e-01
-2.5038939e-01
-7.5717510e-01
-1.1070877e+00
-1.1791272e+00
-8.2415485e-01
1.9314790e-02
1.2471854e+00
2.4138494e+00
2.8246320e+00
2.2138979e+00
1.0666070e+00
4.3009925e-02
-6.0082016e-01
-9.6553199e-01
-1.1679542e+00
-1.2075289e+00
-1.1256998e+00
-1.0872084e+00
-1.1363776e+00
-1.0846799e+00
-8.2474733e-01
-4.5762534e-01
-8.1105425e-02
3.0019320e-01
6.5054609e-01
8.9524132e-01
1.0059012e+00
9.5833647e-01
7.4412132e-01
4.3963786e-01
1.3663944e-01
-1.2132595e-01
-2.6623989e-01
-2.2223815e-01
-3.0398831e-02
1.0034924e-01
1.6409765e-03
-2.3956918e-01
-4.3213208e-01
-4.7707847e-01
-3.6756659e-01
-1.5243919e-01
6.3772470e-02
2.1904293e-01
3.7758700e-01
5.7246439e-01
6.8030379e-01
5.3218566e-01
9.4900544e-02
-4.8060933e-01
-1.0030978e+00
-1.3582136e+00
-1.5050092e+00
-1.4380599e+00
-1.1477750e+00
-5.7962962e-01
3.6770466e-01
1.7002679e+00
3.0622962e+00
3.6491365e+00
2.9013955e+00
1.2425053e+00
-3.8047817e-01
-1.3346365e+00
-1.5337672e+00
-1.3373899e+00
-1.1968952e+00
-1.2453338e+00
-1.2963558e+00
-1.1385475e+00
-7.2588192e-01
-1.1001891e-01
5.6693692e-01
1.0777948e+00
1.2184615e+00
9.2095565e-01
3.4675174e-01
-2.3521022e-01
-6.6190559e-01
-8.9170037e-01
-8.9320444e-01
-6.5176391e-01
-2.3509882e-01
2.3502302e-01
6.6785791e-01
9.6362745e-01
1.0120333e+00
8.3578370e-01
6.1159855e-01
5.1186541e-01
4.9231510e-01
3.5101816e-01
1.1550312e-03
-4.6386438e-01
-9.2122488e-01
-1.2981920e+00
-1.5340386e+00
-1.5737455e+00
-1.3925914e+00
-9.9561926e-01
-4.0474348e-01
3.2422849e-01
1.1186414e+00
1.9203417e+00
2.6190611e+00
2.9127862e+00
2.4382418e+00
1.2326632e+00
-1.8556610e-01
-1.2615071e+00
-1.7597941e+00
-1.7503148e+00
-1.4429828e+00
-1.0980705e+00
-8.8820262e-01
-7.9958157e-01
-7.1686255e-01
-5.3204617e-01
-2.2922893e-01
1.2261602e-01
4.6772408e-01
7.8103941e-01
1.0404908e+00
1.2458427e+00
1.4049168e+00
1.4603061e+00
1.2752312e+00
7.5895907e-01
-2.4597416e-02
-9.0902890e-01
-1.7103926e+00
-2.2242708e+00
-2.2476787e+00
-1.6898389e+00
-6.1835151e-01
7.1935786e-01
1.8599555e+00
2.2607171e+00
1.6702484e+00
4.4597519e-01
-6.8971718e-01
-1.2517923e+00
-1.1920366e+00
-6.9197340e-01
1.9604541e-02
6.9568227e-01
1.1173531e+00
1.1850844e+00
8.9710609e-01
2.9417566e-01
-5.1767971e-01
-1.3072032e+00
-1.8037991e+00
-1.8744822e+00
-1.5804073e+00
-1.0412407e+00
-2.6942461e-01
7.7316019e-01
1.9996839e+00
2.9465660e+00
2.9625328e+00
2.0024115e+00
7.2466109e-01
-2.3524226e-01
-7.0803055e-01
-9.6594538e-01
-1.2904174e+00
-1.5972127e+00
-1.6647770e+00
-1.4491456e+00
-1.0356849e+00
-5.1197046e-01
-2.8432228e-02
2.7904723e-01
4.2917653e-01
5.2363918e-01
6.1019396e-01
6.6104378e-01
6.4789639e-01
5.5941430e-01
4.4038001e-01
3.9411433e-01
4.4981351e-01
4.8537879e-01
3.7056078e-01
1.1077781e-01
-1.8889164e-01
-4.0957060e-01
-4.4382820e-01
-2.4271956e-01
7.0312909e-03
-3.4997171e-02
-4.2301006e-01
-8.4277179e-01
-1.0031721e+00
-8.3970420e-01
-3.8607523e-01
2.7538963e-01
9.1861456e-01
1.2374196e+00
1.0701954e+00
4.9670602e-01
-2.7361971e-01
-9.9176841e-01
-1.3939676e+00
-1.3295490e+00
-8.2842906e-01
-6.9390364e-02
7.2267776e-01
1.4023768e+00
1.8339216e+00
1.8115123e+00
1.2573456e+00
3.9999436e-01
-3.5629478e-01
-6.6763576e-01
-4.8210685e-01
-2.4048719e-01
-4.0808611e-01
-8.0009108e-01
-9.8746867e-01
-8.7984383e-01
-6.0433548e-01
-2.7798421e-01
-2.2803957e-02
4.5850701e-02
-8.2307801e-02
-3.1810383e-01
-5.4091504e-01
-6.6016677e-01
-6.4553942e-01
-4.8484778e-01
-1.1407833e-01
4.9657054e-01
1.2442091e+00
1.8530358e+00
2.0092194e+00
1.6630022e+00
1.0410966e+00
4.5138088e-01
1.1651032e-01
8.8382429e-02
1.9282966e-01
1.0856387e-01
-2.9833313e-01
-8.6236376e-01
-1.3408117e+00
-1.5708311e+00
-1.5004032e+00
-1.2069683e+00
-8.4020729e-01
-5.1944510e-01
-2.9982273e-01
-1.8000380e-01
-1.2627071e-01
-3.5513812e-02
2.6607759e-01
8.6883055e-01
1.6576752e+00
2.2195795e+00
2.0878604e+00
1.2959898e+00
3.5204641e-01
-2.9173615e-01
-5.5976841e-01
-7.3722876e-01
-1.0594551e+00
-1.3777200e+00
-1.4435211e+00
-1.2326019e+00
-8.4958653e-01
-3.7387948e-01
6.5975349e-02
3.4141915e-01
4.6484391e-01
5.2724933e-01
5.6823139e-01
5.6536565e-01
4.9518763e-01
3.4120501e-01
1.3832331e-01
-2.2024545e-02
-1.1374727e-01
-2.1842858e-01
-3.7253341e-01
-5.0370814e-01
-5.4458670e-01
-5.1259900e-01
-4.3408745e-01
-2.6305871e-01
2.7387215e-02
4.0544928e-01
8.0839820e-01
1.1052526e+00
1.1637187e+00
9.6620996e-01
5.8852406e-01
1.4520493e-01
-2.4024163e-01
-4.6832843e-01
-4.9477291e-01
-3.7330323e-01
-2.5932206e-01
-2.8988873e-01
-4.3744135e-01
-5.4839995e-01
-5.1419397e-01
-3.1047409e-01
9.7718961e-02
7.1555116e-01
1.3325265e+00
1.5296095e+00
1.1044233e+00
3.3740376e-01
-3.0938345e-01
-5.3183730e-01
-3.2205424e-01
-9.7245639e-02
-3.0717940e-01
-7.8994158e-01
-1.0876165e+00
-1.0487832e+00
-7.9219182e-01
-4.6908782e-01
-2.1820896e-01
-1.3236325e-01
-1.8392654e-01
-2.6091193e-01
-2.6098265e-01
-1.3730352e-01
1.1861978e-01
5.2157430e-01
1.1069362e+00
1.7743740e+00
2.1749818e+00
1.9167933e+00
1.0000185e+00
-1.3161944e-01
-1.0555918e+00
-1.6056512e+00
-1.8248447e+00
-1.9240623e+00
-2.0085570e+00
-1.9258881e+00
-1.5820321e+00
-1.0414452e+00
-3.5383025e-01
5.0672815e-01
1.5701396e+00
2.7930058e+00
3.7785182e+00
3.7018052e+00
2.3730521e+00
6.2800327e-01
-7.8973892e-01
-1.6715368e+00
-2.0081787e+00
-1.8427482e+00
-1.3144625e+00
-6.4888146e-01
-1.8686810e-02
4.7608013e-01
7.8514239e-01
9.0841343e-01
8.3458729e-01
5.6304562e-01
1.4265296e-01
-3.1046949e-01
-6.2291920e-01
-7.5573090e-01
-7.1856567e-01
-4.3466427e-01
-4.6577743e-02
7.0675584e-02
-2.7462753e-01
-8.6869577e-01
-1.3192072e+00
-1.3939780e+00
-1.0777154e+00
-4.5376149e-01
4.1340788e-01
1.4659135e+00
2.4941591e+00
2.9933140e+00
2.5028292e+00
1.2336255e+00
-7.0076306e-02
-8.4406718e-01
-1.0214621e+00
-9.1136283e-01
-8.3107623e-01
-8.2820319e-01
-7.9882804e-01
-7.1345211e-01
-5.9653837e-01
-3.7544736e-01
-3.4541817e-02
2.6259477e-01
3.7418883e-01
3.2419484e-01
1.9541298e-01
1.1280249e-02
-2.4416948e-01
-5.7417067e-01
-8.9659279e-01
-1.0675109e+00
-1.0057608e+00
-7.0119174e-01
-1.4851164e-01
5.5789923e-01
1.2195004e+00
1.6669273e+00
1.7985279e+00
1.5829473e+00
1.0304769e+00
2.7257504e-01
-3.9446902e-01
-7.0635679e-01
-6.1818992e-01
-2.8469175e-01
7.5808570e-02
2.9780461e-01
3.4346732e-01
2.8674168e-01
1.9764935e-01
3.6536467e-02
-2.7755473e-01
-6.6504731e-01
-8.7977765e-01
-7.5488482e-01
-3.3241484e-01
2.0494015e-01
6.2197888e-01
6.9414799e-01
3.3242450e-01
-2.8006100e-01
-8.0725806e-01
-1.0358665e+00
-9.6437887e-01
-6.8477694e-01
-2.5522217e-01
2.7456900e-01
7.7379777e-01
1.0483624e+00
9.6512805e-01
5.3766797e-01
-9.5452813e-02
-7.2146944e-01
-1.1489312e+00
-1.2913981e+00
-1.1446719e+00
-7.3937765e-01
-1.4392735e-01
5.3534895e-01
1.2257142e+00
1.8652932e+00
2.2508252e+00
2.0612422e+00
1.2033114e+00
3.9139244e-02
-9.4723748e-01
-1.5301092e+00
-1.7125694e+00
-1.5657659e+00
-1.1696260e+00
-5.9377995e-01
1.3246488e-01
9.4278716e-01
1.5852067e+00
1.6835020e+00
1.1123669e+00
2.1240030e-01
-5.4492256e-01
-9.5228604e-01
-1.0635617e+00
-9.9214409e-01
-7.9653109e-01
-5.1459690e-01
-2.0925067e-01
5.1628346e-02
1.9194551e-01
1.0719098e-01
-2.2710435e-01
-5.9109566e-01
-6.2415123e-01
-1.3230931e-01
7.9046072e-01
1.8557830e+00
2.6563988e+00
2.6977124e+00
1.6792054e+00
-1.3455278e-02
-1.4898658e+00
-2.1558358e+00
-1.9791944e+00
-1.2590161e+00
-4.2576961e-01
1.2991972e-01
3.1729260e-01
2.9807561e-01
1.3864031e-01
-1.6333817e-01
-5.3234359e-01
-7.8296559e-01
-6.7610103e-01
-1.4216961e-01
6.1636641e-01
1.1874462e+00
1.2286406e+00
8.1975552e-01
3.6075688e-01
1.3694180e-01
8.9807744e-02
-1.6273307e-02
-2.6672769e-01
-5.2656032e-01
-6.9333588e-01
-8.6212887e-01
-1.0668127e+00
-1.1119522e+00
-8.9689752e-01
-5.4031575e-01
-1.5261134e-01
2.5663376e-01
6.5551303e-01
9.7412183e-01
1.1700522e+00
1.1643026e+00
9.1242970e-01
5.3241854e-01
1.6777211e-01
-1.3836788e-01
-3.4464436e-01
-3.7937856e-01
-2.5717960e-01
-1.0252274e-01
4.4900696e-02
3.0897517e-01
7.0726734e-01
9.1329103e-01
5.7677828e-01
-1.6253944e-01
-8.2574169e-01
-1.0905906e+00
-9.5205704e-01
-6.2644140e-01
-3.6529863e-01
-2.8186722e-01
-3.3502416e-01
-4.2413941e-01
-4.9583836e-01
-5.5309851e-01
-5.7260315e-01
-4.6186752e-01
-1.0432844e-01
5.0973713e-01
1.1954020e+00
1.6151903e+00
1.5364529e+00
1.0668522e+00
4.9852905e-01
2.2674624e-02
-3.0538961e-01
-4.5830529e-01
-4.5406485e-01
-4.1598786e-01
-4.5916865e-01
-5.4509211e-01
-5.6630466e-01
-4.6417033e-01
-2.0987320e-01
1.8629180e-01
5.9422280e-01
7.5188905e-01
4.7127051e-01
-1.4438030e-01
-7.9790118e-01
-1.2138725e+00
-1.2322355e+00
-7.9353919e-01
1.1007051e-01
1.3709372e+00
2.6015274e+00
3.1085649e+00
2.4405330e+00
9.8507873e-01
-4.0815519e-01
-1.2009625e+00
-1.3719372e+00
-1.2271346e+00
-1.0682740e+00
-9.6028694e-01
-8.3474960e-01
-6.9596392e-01
-5.7902519e-01
-3.8838245e-01
-7.5541996e-02
2.1655808e-01
3.5423798e-01
3.6887450e-01
3.3860349e-01
2.6112930e-01
8.2180975e-02
-2.4341401e-01
-6.4420985e-01
-9.2774949e-01
-9.5038779e-01
-6.8036252e-01
-1.2084880e-01
5.8407905e-01
1.1058904e+00
1.2326758e+00
1.1036028e+00
9.7046556e-01
7.4372375e-01
1.2600212e-01
-8.2152454e-01
-1.6398985e+00
-1.9425100e+00
-1.6384966e+00
-8.0181855e-01
3.8910381e-01
1.6015298e+00
2.3894879e+00
2.4316582e+00
1.7208322e+00
6.7308632e-01
-1.1710383e-01
-4.4156030e-01
-4.1579851e-01
-1.8401759e-01
9.8420443e-02
2.4738763e-01
7.1228927e-02
-4.6909005e-01
-1.1471488e+00
-1.6243488e+00
-1.7018008e+00
-1.3975464e+00
-8.4304299e-01
-1.4983222e-01
5.8681678e-01
1.2103554e+00
1.5243375e+00
1.4077591e+00
8.8437950e-01
1.1636141e-01
-6.2567816e-01
-1.0944046e+00
-1.2313522e+00
-1.1721865e+00
-1.0435350e+00
-7.7593106e-01
-2.2884864e-01
5.6057063e-01
1.3038074e+00
1.6102987e+00
1.2581645e+00
3.6150080e-01
-6.8564843e-01
-1.4782438e+00
-1.7853345e+00
-1.5035629e+00
-6.2808679e-01
6.8421258e-01
2.0301724e+00
2.8882918e+00
2.9714357e+00
2.3863548e+00
1.4362142e+00
3.6561406e-01
-6.7650693e-01
-1.6000649e+00
-2.3572700e+00
-2.8924778e+00
-3.0782652e+00
-2.7474850e+00
-1.8206907e+00
-3.6751324e-01
1.3748593e+00
2.9972851e+00
4.0019911e+00
3.9996933e+00
2.9752412e+00
1.3934643e+00
-1.1624894e-01
-1.1581561e+00
-1.6329013e+00
-1.6684969e+00
-1.5588111e+00
-1.5081468e+00
-1.4697864e+00
-1.3314991e+00
-1.0852812e+00
-7.8990892e-01
-4.5520504e-01
-1.0909701e-01
1.7689289e-01
4.2415226e-01
7.1959386e-01
1.0512066e+00
1.2985775e+00
1.3432889e+00
1.1089270e+00
6.4286172e-01
1.3344526e-01
-2.7870443e-01
-5.6839329e-01
-7.0727598e-01
-6.5992579e-01
-4.5800238e-01
-2.4824114e-01
-1.7289231e-01
-1.9513914e-01
-1.4211372e-01
1.1400908e-01
4.9833476e-01
6.5446105e-01
3.0823371e-01
-2.6036777e-01
-5.9263901e-01
-5.8143601e-01
-3.7451009e-01
-1.1871570e-01
6.2639485e-02
7.6502465e-02
-6.7824855e-02
-2.7952869e-01
-4.5883613e-01
-5.4722620e-01
-5.3673067e-01
-4.3192935e-01
-1.9484375e-01
1.7591273e-01
5.9080550e-01
9.0834238e-01
1.0110078e+00
8.8361028e-01
5.7942122e-01
2.3164726e-01
4.1003548e-02
1.1809322e-01
3.6485475e-01
5.7145453e-01
5.8639941e-01
3.1877263e-01
-2.7078786e-01
-1.0301809e+00
-1.6089702e+00
-1.7067212e+00
-1.2413815e+00
-3.7047399e-01
4.8370688e-01
7.7956904e-01
5.0538056e-01
2.2558174e-01
2.5595026e-01
6.0590663e-01
1.2094149e+00
1.6983004e+00
1.5906850e+00
8.6325899e-01
-3.0392108e-02
-6.5731161e-01
-9.2600954e-01
-1.0707446e+00
-1.2830008e+00
-1.4456182e+00
-1.3799986e+00
-1.0920482e+00
-6.7788630e-01
-2.0101786e-01
2.2655371e-01
4.8890293e-01
5.9942928e-01
6.4036258e-01
6.5228243e-01
6.3609996e-01
5.9267475e-01
5.0978816e-01
4.0622941e-01
3.4629414e-01
3.3249189e-01
2.6342417e-01
7.1664258e-02
-2.0441908e-01
-5.0950745e-01
-7.9744443e-01
-9.4469003e-01
-7.8200888e-01
-3.0104559e-01
2.6532541e-01
6.1492113e-01
6.1134124e-01
3.6693137e-01
1.1989111e-01
1.5747679e-02
6.4117496e-03
-9.0652343e-02
-4.1965875e-01
-9.1485893e-01
-1.3453619e+00
-1.5031994e+00
-1.2879253e+00
-6.5711746e-01
3.6964747e-01
1.6204296e+00
2.6441794e+00
2.8579394e+00
2.0912749e+00
8.6797212e-01
-3.8362392e-02
-2.6722903e-01
-1.1157281e-01
-2.2605307e-01
-8.8229248e-01
-1.6395767e+00
-1.9161703e+00
-1.5016157e+00
-5.7244450e-01
3.9667043e-01
8.4242720e-01
6.0540107e-01
8.4185279e-02
-2.8582751e-01
-3.8760962e-01
-3.1630949e-01
-2.2444652e-01
-1.9692878e-01
-1.7051295e-01
2.7757859e-02
5.2070395e-01
1.2210728e+00
1.8030929e+00
1.8811717e+00
1.3342631e+00
4.3229838e-01
-4.3257261e-01
-1.0367800e+00
-1.3293410e+00
-1.3476669e+00
-1.2193489e+00
-1.0734862e+00
-9.0335156e-01
-6.6294329e-01
-3.9286438e-01
-1.3812835e-01
1.4797717e-01
5.3900383e-01
9.8194788e-01
1.2181960e+00
9.5247385e-01
1.6604903e-01
-7.8218162e-01
-1.4311072e+00
-1.5340059e+00
-1.0600197e+00
-9.7847364e-02
1.1740439e+00
2.4229092e+00
3.1119762e+00
2.7460939e+00
1.3510371e+00
-3.9429348e-01
-1.7241588e+00
-2.3374858e+00
-2.3949140e+00
-2.2126067e+00
-1.9408472e+00
-1.4903868e+00
-6.8523440e-01
5.6204587e-01
2.0488223e+00
3.1272892e+00
3.0186525e+00
1.6297418e+00
-2.0265557e-01
-1.4836916e+00
-1.7665708e+00
-1.1189651e+00
1.8340585e-01
1.7792798e+00
2.9623901e+00
2.8481385e+00
1.4270973e+00
-3.6189609e-01
-1.6910208e+00
-2.2952741e+00
-2.2648621e+00
-1.8553384e+00
-1.3098958e+00
-7.2172792e-01
-1.3932889e-01
2.8523067e-01
4.4561491e-01
4.7359225e-01
5.1726884e-01
5.1966504e-01
3.1106056e-01
-1.8989990e-01
-8.5356267e-01
-1.4076875e+00
-1.6396257e+00
-1.4930570e+00
-1.0001551e+00
-2.2435339e-01
7.7520873e-01
1.8873001e+00
2.8390236e+00
3.2183492e+00
2.7556110e+00
1.6110534e+00
2.3587198e-01
-9.7005526e-01
-1.7978166e+00
-2.1638003e+00
-2.0541105e+00
-1.5494950e+00
-7.7791258e-01
1.3677814e-01
9.7217914e-01
1.3755982e+00
1.1569621e+00
5.0285369e-01
-2.6815229e-01
-9.3945482e-01
-1.3925396e+00
-1.5561805e+00
-1.3876264e+00
-8.8924952e-01
-9.3053890e-02
8.8853126e-01
1.7368137e+00
2.0040974e+00
1.5222252e+00
6.1642877e-01
-2.2667856e-01
-7.0709962e-01
-7.3409000e-01
-3.6696966e-01
1.6262601e-01
4.8896628e-01
3.6698306e-01
-5.3586941e-02
-3.5548373e-01
-2.5763924e-01
2.2009503e-01
8.3672164e-01
1.2230222e+00
1.0301803e+00
2.1872825e-01
-8.1894515e-01
-1.5858637e+00
-1.8460335e+00
-1.6504671e+00
-1.1429100e+00
-3.8204399e-01
6.1053590e-01
1.6310830e+00
2.1466640e+00
1.7596101e+00
7.6669950e-01
-1.8083245e-01
-6.4241136e-01
-5.8212205e-01
-3.5859674e-01
-3.5621590e-01
-5.7951939e-01
-7.7159470e-01
-7.6255233e-01
-5.6554705e-01
-2.3573052e-01
1.1900312e-01
3.2134657e-01
2.7303965e-01
2.8374387e-02
-2.6633274e-01
-4.7918492e-01
-5.3381346e-01
-3.8021872e-01
3.0816701e-02
7.0294784e-01
1.5360799e+00
2.2166045e+00
2.2973749e+00
1.6308106e+00
5.7458160e-01
-3.7215293e-01
-9.8154512e-01
-1.3520903e+00
-1.6164893e+00
-1.7153851e+00
-1.5754404e+00
-1.2684904e+00
-9.0995262e-01
-5.3558137e-01
-1.8421106e-01
7.3182346e-02
2.5907638e-01
4.5736910e-01
6.5084601e-01
7.1897815e-01
5.6251089e-01
1.6089022e-01
-3.4952774e-01
-6.9675858e-01
-6.8709216e-01
-2.6907560e-01
5.9146908e-01
1.9222656e+00
3.3208616e+00
3.8250180e+00
2.8915946e+00
1.0571997e+00
-6.9256288e-01
-1.7624036e+00
-2.0793265e+00
-1.9097026e+00
-1.6345603e+00
-1.4464524e+00
-1.3114634e+00
-1.1426878e+00
-9.0512880e-01
-6.3122016e-01
-4.2366854e-01
-3.7000115e-01
-4.4176402e-01
-5.0280857e-01
-4.1693229e-01
-1.1915388e-01
4.0394874e-01
1.0770718e+00
1.6802162e+00
1.9323291e+00
1.7411466e+00
1.2885848e+00
7.7579457e-01
2.3096617e-01
-3.5857071e-01
-8.6623487e-01
-1.1187227e+00
-1.0755816e+00
-8.2567086e-01
-4.5924466e-01
3.2346829e-03
4.9683208e-01
8.2980165e-01
8.3019969e-01
4.7667158e-01
-1.1634970e-01
-7.7330079e-01
-1.3098221e+00
-1.5686529e+00
-1.4568346e+00
-9.4370300e-01
-5.4041851e-02
1.1008130e+00
2.2034359e+00
2.8023094e+00
2.6280724e+00
1.7504803e+00
5.4183754e-01
-5.2262649e-01
-1.1211379e+00
-1.1812375e+00
-9.0435509e-01
-6.5992015e-01
-6.6700019e-01
-8.1826200e-01
-8.6633395e-01
-6.8173338e-01
-2.9580482e-01
1.4813917e-01
4.1420536e-01
2.9268132e-01
-1.9786374e-01
-8.1784987e-01
-1.2901486e+00
-1.4354834e+00
-1.1988290e+00
-5.8587500e-01
3.6039776e-01
1.5370707e+00
2.6200448e+00
3.0301205e+00
2.4041432e+00
1.0650665e+00
-2.1268814e-01
-8.8457924e-01
-9.4952201e-01
-7.5250080e-01
-6.3705467e-01
-7.2312587e-01
-8.7361033e-01
-8.4926219e-01
-5.2423681e-01
2.4660638e-02
5.6604901e-01
8.4843701e-01
7.4814794e-01
3.4271766e-01
-1.3237210e-01
-4.5701363e-01
-5.6543069e-01
-5.1009611e-01
-3.6667533e-01
-1.6983074e-01
9.6902717e-02
4.5878627e-01
8.4530373e-01
1.0491020e+00
8.4730652e-01
1.9866239e-01
-6.6818837e-01
-1.4105820e+00
-1.7784134e+00
-1.6814230e+00
-1.1903983e+00
-4.3758179e-01
5.1992766e-01
1.6008524e+00
2.4814632e+00
2.6873323e+00
2.0380295e+00
8.6081622e-01
-3.1541825e-01
-1.1836932e+00
-1.7280341e+00
-1.9991395e+00
-2.0020195e+00
-1.7265588e+00
-1.1813819e+00
-4.4977412e-01
2.7563829e-01
8.2889606e-01
1.1989146e+00
1.4182862e+00
1.4348583e+00
1.3344096e+00
1.2870187e+00
1.0951261e+00
5.1255808e-01
-2.3362917e-01
-6.6965926e-01
-5.4690689e-01
-6.7081084e-02
2.5460887e-01
2.6304987e-02
-6.6949104e-01
-1.4068896e+00
-1.8397159e+00
-1.9080450e+00
-1.7288184e+00
-1.4212619e+00
-1.0093395e+00
-4.0362548e-01
5.3799022e-01
1.8582203e+00
3.2799291e+00
4.0306840e+00
3.4090605e+00
1.7082169e+00
-5.9630092e-02
-1.1473787e+00
-1.4361014e+00
-1.2872076e+00
-1.1477421e+00
-1.1774608e+00
-1.2372700e+00
-1.1398481e+00
-8.4814290e-01
-4.1614258e-01
2.3943433e-02
2.9001181e-01
3.0143585e-01
1.2815294e-01
-9.1920157e-02
-2.5375758e-01
-2.9853011e-01
-1.8026927e-01
1.5843341e-01
7.5253986e-01
1.5447330e+00
2.2444939e+00
2.3700135e+00
1.7024855e+00
5.8813982e-01
-4.2433998e-01
-1.0807834e+00
-1.4832836e+00
-1.7661934e+00
-1.8678597e+00
-1.7142912e+00
-1.3794355e+00
-9.7884028e-01
-5.4492749e-01
-1.1697943e-01
2.2988396e-01
5.1764066e-01
8.3341956e-01
1.1645433e+00
1.3929831e+00
1.4044773e+00
1.1266636e+00
6.2305662e-01
1.0941390e-01
-2.6104916e-01
-4.7582666e-01
-5.3145490e-01
-4.2416315e-01
-2.2318672e-01
-1.0030107e-01
-1.7027948e-01
-3.3024728e-01
-3.7564569e-01
-1.8343663e-01
1.7377780e-01
3.5211976e-01
8.7328568e-02
-3.5374338e-01
-5.6229863e-01
-4.8074651e-01
-2.6878719e-01
-5.5662959e-02
6.0352068e-02
7.9437639e-03
-1.8799765e-01
-4.2858811e-01
-6.0329015e-01
-6.3848203e-01
-5.1719659e-01
-2.3952291e-01
2.2836812e-01
8.5211935e-01
1.4851365e+00
1.9258896e+00
1.9879939e+00
1.6106550e+00
8.6583153e-01
-2.9812993e-02
-7.6472580e-01
-1.1247009e+00
-1.1236474e+00
-9.3205885e-01
-7.1072684e-01
-5.7121143e-01
-5.9013489e-01
-7.4728985e-01
-8.9163938e-01
-8.5555426e-01
-5.8662307e-01
-1.2096360e-01
5.1306592e-01
1.2625297e+00
1.9578513e+00
2.3538404e+00
2.2703549e+00
1.6670032e+00
6.6899300e-01
-4.0558226e-01
-1.1926240e+00
-1.5167395e+00
-1.4401913e+00
-1.1557541e+00
-8.7425192e-01
-7.9619448e-01
-9.0806525e-01
-9.6013382e-01
-8.2765547e-01
-5.6571086e-01
-2.4219853e-01
1.1602506e-01
4.3828409e-01
6.3010535e-01
6.9596175e-01
6.9822916e-01
6.6634111e-01
6.0915226e-01
5.4065560e-01
4.5733989e-01
3.8320789e-01
3.8539167e-01
4.6406489e-01
5.1508091e-01
4.5825596e-01
2.8121839e-01
-4.0483261e-02
-5.2673825e-01
-1.0520880e+00
-1.3618916e+00
-1.3422231e+00
-1.0957270e+00
-7.3148820e-01
-2.8036240e-01
2.3331028e-01
7.6735609e-01
1.2470963e+00
1.5013152e+00
1.2844654e+00
5.1687987e-01
-5.4401799e-01
-1.4728426e+00
-1.9679034e+00
-1.9345463e+00
-1.3762393e+00
-3.4247561e-01
1.0469570e+00
2.4427780e+00
3.2084096e+00
2.8353931e+00
1.5010405e+00
-1.9857192e-02
-1.0955127e+00
-1.6040463e+00
-1.6942273e+00
-1.4881438e+00
-1.0164159e+00
-3.3747377e-01
4.0084306e-01
9.7659692e-01
1.1547990e+00
8.2963193e-01
1.4794439e-01
-5.8285394e-01
-1.1545392e+00
-1.5218946e+00
-1.6842308e+00
-1.6126066e+00
-1.2546425e+00
-5.6296407e-01
5.0441834e-01
1.8995578e+00
3.2809035e+00
3.9783889e+00
3.4567385e+00
1.9079647e+00
1.2742710e-01
-1.1987175e+00
-1.8678803e+00
-2.0079915e+00
-1.8174258e+00
-1.4581749e+00
-1.0487855e+00
-6.5270722e-01
-3.0109523e-01
-3.3734262e-02
1.2358767e-01
2.0118183e-01
2.3498998e-01
2.0114062e-01
2.2609804e-02
-3.2581875e-01
-7.3226967e-01
-1.0101738e+00
-1.0110279e+00
-6.7845826e-01
-2.4419654e-02
8.2765135e-01
1.6080388e+00
1.9738597e+00
1.6593866e+00
7.3520389e-01
-3.2560821e-01
-9.6223779e-01
-8.8217407e-01
-2.0211496e-01
5.9571716e-01
9.3567230e-01
5.6260018e-01
-2.6231418e-01
-1.0229037e+00
-1.3573206e+00
-1.1933740e+00
-6.6824937e-01
2.2842777e-02
7.1073911e-01
1.2012506e+00
1.3100703e+00
1.0267937e+00
5.6114780e-01
1.6249919e-01
-6.4691573e-02
-1.6307567e-01
-1.8618685e-01
-9.3742245e-02
1.3549714e-01
3.5799086e-01
3.6909680e-01
1.0133615e-01
-3.3065649e-01
-7.2924335e-01
-9.5328317e-01
-1.0050072e+00
-1.0212567e+00
-1.0581607e+00
-9.7117185e-01
-6.3080165e-01
-2.4797918e-02
7.7415831e-01
1.5840647e+00
2.1165346e+00
2.0544294e+00
1.2763152e+00
8.5188850e-02
-9.5997396e-01
-1.4802638e+00
-1.4487511e+00
-1.0650142e+00
-5.6007179e-01
-9.7515444e-02
2.3652226e-01
4.3749506e-01
5.3416399e-01
4.9829384e-01
2.6488923e-01
-1.3947705e-01
-5.6150696e-01
-8.1763464e-01
-7.7323588e-01
-3.6113986e-01
3.2730102e-01
9.1325597e-01
9.9056292e-01
6.0541541e-01
1.6172645e-01
-4.4577027e-02
-3.8907407e-02
-6.5303382e-02
-3.0991133e-01
-6.8404497e-01
-9.1098486e-01
-7.7218570e-01
-2.1758248e-01
6.2407679e-01
1.4678899e+00
1.9540023e+00
1.8598352e+00
1.2565046e+00
4.1950288e-01
-3.5436837e-01
-8.8899383e-01
-1.1664830e+00
-1.2542736e+00
-1.1922245e+00
-9.7251721e-01
-6.0994818e-01
-1.6548754e-01
2.4936102e-01
4.4292160e-01
2.4060918e-01
-3.1632220e-01
-9.5129658e-01
-1.3847472e+00
-1.4895369e+00
-1.2389340e+00
-6.3082264e-01
3.5701895e-01
1.6994659e+00
3.0906792e+00
3.7775857e+00
3.1400440e+00
1.5086994e+00
-1.6591224e-01
-1.1941000e+00
-1.4546922e+00
-1.3027239e+00
-1.1813682e+00
-1.2073677e+00
-1.2108501e+00
-1.0312039e+00
-6.6027268e-01
-1.4976247e-01
3.7816015e-01
7.2617619e-01
7.5032291e-01
4.5157062e-01
-1.3099582e-02
-4.4920891e-01
-7.4143329e-01
-8.4091366e-01
-6.9884844e-01
-2.9823874e-01
2.8866894e-01
9.1295440e-01
1.4105768e+00
1.5987097e+00
1.3376728e+00
6.8148173e-01
-1.2494664e-01
-7.8436622e-01
-1.1385050e+00
-1.1757551e+00
-9.2376971e-01
-4.4226451e-01
1.7576442e-01
8.2794584e-01
1.3720116e+00
1.5691565e+00
1.2282255e+00
4.5149113e-01
-4.0328044e-01
-1.0201822e+00
-1.3289760e+00
-1.4366209e+00
-1.4528964e+00
-1.4291395e+00
-1.3631579e+00
-1.1858815e+00
-7.9412261e-01
-1.0972137e-01
9.0667452e-01
2.2040194e+00
3.4686491e+00
4.0309693e+00
3.2562883e+00
1.3339730e+00
-7.0079447e-01
-1.9693636e+00
-2.3209403e+00
-2.0755587e+00
-1.6353403e+00
-1.2813948e+00
-9.9773684e-01
-6.0159188e-01
-1.3293842e-01
2.4383617e-01
4.6599289e-01
5.5875935e-01
5.7754924e-01
5.5847341e-01
4.9719359e-01
3.8621690e-01
2.9564279e-01
3.1950697e-01
4.3127746e-01
4.7112649e-01
3.3236488e-01
7.8097241e-02
-1.7702554e-01
-3.4105065e-01
-3.1726453e-01
-1.0419584e-01
9.1317778e-02
1.7410609e-02
-3.2955417e-01
-6.9506660e-01
-8.4873305e-01
-7.7016068e-01
-6.0822025e-01
-5.4269491e-01
-6.6035521e-01
-8.9341625e-01
-1.0789292e+00
-1.0811308e+00
-8.2320789e-01
-2.4382230e-01
7.3517927e-01
2.0784922e+00
3.4305207e+00
4.1384603e+00
3.6561568e+00
2.0830567e+00
1.7447647e-01
-1.2615868e+00
-1.8565533e+00
-1.7570662e+00
-1.4311743e+00
-1.2762879e+00
-1.3280127e+00
-1.3605649e+00
-1.1762327e+00
-7.2916279e-01
-8.9559393e-02
5.5582366e-01
9.1765575e-01
8.0331956e-01
3.0573474e-01
-2.5895492e-01
-5.8930553e-01
-5.7549742e-01
-2.7280375e-01
1.8670084e-01
6.8264182e-01
1.1398312e+00
1.4520700e+00
1.4194472e+00
9.2243390e-01
1.4609669e-01
-5.7879500e-01
-1.0518556e+00
-1.2322901e+00
-1.1334665e+00
-8.0417881e-01
-3.8178621e-01
-2.6866345e-02
2.0285915e-01
3.2910388e-01
3.6229065e-01
3.1722233e-01
2.3800696e-01
1.1998676e-01
-9.7353790e-02
-4.1220382e-01
-6.8247714e-01
-6.9413536e-01
-3.4396975e-01
2.4826831e-01
7.7483268e-01
1.0105087e+00
1.0180384e+00
9.4189371e-01
7.8118631e-01
4.5709831e-01
-1.0406156e-02
-4.3177862e-01
-5.5311262e-01
-3.0317172e-01
-7.2544008e-02
-2.9744768e-01
-7.6127489e-01
-9.9876640e-01
-9.0011731e-01
-5.9449997e-01
-2.1647657e-01
9.5346810e-02
2.2807288e-01
1.8426576e-01
5.2575420e-02
-6.4659926e-02
-9.6299599e-02
-1.2809949e-02
1.9192342e-01
5.3401548e-01
9.7567791e-01
1.3556834e+00
1.4019557e+00
9.6386514e-01
2.3000057e-01
-4.5775381e-01
-8.6922146e-01
-9.8068393e-01
-9.3629096e-01
-8.6277066e-01
-7.4689310e-01
-5.8316184e-01
-4.4790843e-01
-3.6202194e-01
-2.6250621e-01
-1.2433845e-01
6.9169164e-02
3.8652727e-01
7.5859445e-01
9.2612833e-01
6.8414291e-01
1.0710106e-01
-4.2857977e-01
-5.0312566e-01
2.0386076e-02
9.0929800e-01
1.5940070e+00
1.5029624e+00
6.7093350e-01
-3.0565178e-01
-9.0777842e-01
-9.9424443e-01
-7.4916676e-01
-5.0975935e-01
-5.1424388e-01
-7.1890358e-01
-8.5648140e-01
-7.1136824e-01
-2.5880761e-01
3.4356478e-01
8.1046788e-01
8.3186416e-01
2.8767236e-01
-5.6440071e-01
-1.2765834e+00
-1.5515625e+00
-1.3095483e+00
-5.7123669e-01
5.9245122e-01
2.0460682e+00
3.3760183e+00
3.8432927e+00
2.9841157e+00
1.1812752e+00
-6.4736116e-01
-1.8556990e+00
-2.3669030e+00
-2.4236297e+00
-2.2654571e+00
-1.9635177e+00
-1.4672790e+00
-7.0892082e-01
3.2598023e-01
1.5054557e+00
2.4601516e+00
2.6567770e+00
1.8230372e+00
3.3215684e-01
-1.0798323e+00
-1.9249574e+00
-2.1345575e+00
-1.8415893e+00
-1.2144266e+00
-3.8237276e-01
5.1862101e-01
1.2302285e+00
1.4320396e+00
1.0633405e+00
5.3353926e-01
3.8265565e-01
7.7058471e-01
1.3260578e+00
1.4342951e+00
8.1021114e-01
-2.2736086e-01
-1.1151983e+00
-1.5220436e+00
-1.4690783e+00
-1.1899479e+00
-9.1124205e-01
-7.0523754e-01
-5.4189036e-01
-3.9080075e-01
-2.1993676e-01
9.9739564e-03
3.0211296e-01
6.1539093e-01
9.4433371e-01
1.3335058e+00
1.7085387e+00
1.7902701e+00
1.3421281e+00
4.8981543e-01
-3.7038272e-01
-9.3833133e-01
-1.1562526e+00
-1.1017560e+00
-8.7599857e-01
-5.8898117e-01
-3.3783012e-01
-1.5360200e-01
-3.4040420e-02
-6.8404675e-03
-1.0330468e-01
-2.9296555e-01
-4.7742395e-01
-5.7605602e-01
-5.9186192e-01
-5.4211252e-01
-3.8455101e-01
-5.7561246e-02
4.6205386e-01
1.1356480e+00
1.8511372e+00
2.3723291e+00
2.3691609e+00
1.6966937e+00
6.0555357e-01
-4.6310964e-01
-1.2203093e+00
-1.6039554e+00
-1.6674611e+00
-1.5376358e+00
-1.3897499e+00
-1.3587870e+00
-1.4466931e+00
-1.5135591e+00
-1.3807336e+00
-9.3205971e-01
-1.6841183e-01
7.7747046e-01
1.6340048e+00
2.0597051e+00
1.8965342e+00
1.3688675e+00
9.4749001e-01
9.4203302e-01
1.2201439e+00
1.3689196e+00
1.1083949e+00
5.2378637e-01
-1.3855044e-01
-7.4995068e-01
-1.2721928e+00
-1.6103962e+00
-1.6185065e+00
-1.2604467e+00
-7.1221099e-01
-2.6947984e-01
-9.8642360e-02
-1.1434331e-01
-1.1956253e-01
5.9662365e-03
2.1670368e-01
3.5962847e-01
3.6278710e-01
3.0708115e-01
2.4982979e-01
1.1973081e-01
-1.7064656e-01
-5.7093284e-01
-8.7896145e-01
-9.0404088e-01
-5.9432002e-01
-3.0875709e-02
6.7947624e-01
1.4599567e+00
2.0879558e+00
2.1362547e+00
1.4397432e+00
3.7427965e-01
-5.1748090e-01
-8.7328409e-01
-6.5592662e-01
-3.3499926e-01
-4.3644296e-01
-8.0762604e-01
-9.9702584e-01
-8.9734452e-01
-6.5155582e-01
-3.9191850e-01
-2.2389151e-01
-2.1630101e-01
-3.2476032e-01
-4.2497380e-01
-4.1042452e-01
-2.4529401e-01
6.2850014e-02
5.2076104e-01
1.1610102e+00
1.8799383e+00
2.3248103e+00
2.0823742e+00
1.1266538e+00
-7.7330029e-02
-1.0589455e+00
-1.6326229e+00
-1.8554355e+00
-1.9586772e+00
-2.0535493e+00
-1.9850232e+00
-1.6529973e+00
-1.1133656e+00
-4.0934903e-01
4.8856807e-01
1.6101913e+00
2.9008474e+00
3.9442554e+00
3.9044954e+00
2.5935056e+00
8.6054733e-01
-5.3711979e-01
-1.3961864e+00
-1.7291647e+00
-1.6011802e+00
-1.1683133e+00
-6.7308919e-01
-2.9922265e-01
-1.3653657e-01
-2.3866327e-01
-5.9504368e-01
-1.0638681e+00
-1.4028948e+00
-1.4234436e+00
-1.0449120e+00
-1.9546687e-01
1.0939934e+00
2.4179785e+00
3.0162474e+00
2.4111811e+00
9.8019508e-01
-4.5240171e-01
-1.3554360e+00
-1.6547282e+00
-1.5265676e+00
-1.1754676e+00
-6.8370957e-01
-2.3301066e-02
7.4968743e-01
1.3776963e+00
1.5247802e+00
1.0389343e+00
1.3213317e-01
-7.6281226e-01
-1.2754647e+00
-1.2428720e+00
-7.6074771e-01
-1.3158074e-01
2.9659671e-01
3.5207330e-01
1.8353328e-01
1.2446138e-01
4.0874450e-01
9.4717558e-01
1.2894557e+00
9.4511162e-01
-5.2654254e-02
-1.1347589e+00
-1.7673992e+00
-1.7555213e+00
-1.1553413e+00
-1.3357315e-01
1.0301848e+00
1.8592825e+00
1.9003475e+00
1.2539740e+00
4.9595057e-01
6.0886974e-02
-3.5500938e-02
-7.2484666e-02
-2.8681903e-01
-6.1176850e-01
-7.7111902e-01
-6.1248784e-01
-4.1069617e-01
-5.2326734e-01
-7.8978541e-01
-8.5523138e-01
-6.6182182e-01
-3.3780846e-01
4.0190103e-03
2.5794647e-01
3.4025027e-01
2.6657423e-01
1.2231283e-01
4.3632022e-03
-8.0949354e-03
1.1864520e-01
3.8783397e-01
8.1191967e-01
1.2817156e+00
1.4892709e+00
1.1661281e+00
3.9784356e-01
-4.4747748e-01
-1.0752245e+00
-1.3991129e+00
-1.5054617e+00
-1.6039164e+00
-1.7490036e+00
-1.7308204e+00
-1.4404503e+00
-9.4818119e-01
-3.0058570e-01
5.3489196e-01
1.5973663e+00
2.8414260e+00
3.8455843e+00
3.7721216e+00
2.4541661e+00
7.4709730e-01
-6.0966595e-01
-1.4199026e+00
-1.6852244e+00
-1.4560290e+00
-8.8387166e-01
-2.1750179e-01
3.4086719e-01
6.6790597e-01
6.8508414e-01
3.9972685e-01
-5.7089074e-02
-4.9819500e-01
-8.2847371e-01
-1.0429038e+00
-1.0916922e+00
-9.3146527e-01
-6.4676273e-01
-4.0995272e-01
-3.4451900e-01
-4.5532416e-01
-6.7863808e-01
-9.1248766e-01
-1.0412770e+00
-9.6863122e-01
-6.2135944e-01
4.8458190e-02
1.0666438e+00
2.3500499e+00
3.5207629e+00
3.8840329e+00
3.0084540e+00
1.3243619e+00
-2.7535939e-01
-1.2128418e+00
-1.4584910e+00
-1.3757343e+00
-1.3176962e+00
-1.3087498e+00
-1.2094992e+00
-9.9787173e-01
-7.3870888e-01
-4.0828567e-01
-1.7468007e-02
2.7802430e-01
3.6360750e-01
2.9243823e-01
1.6667697e-01
2.2513184e-02
-1.4015893e-01
-3.1227538e-01
-4.3371664e-01
-4.1059659e-01
-1.8555519e-01
2.4977954e-01
8.4834797e-01
1.4048477e+00
1.6359307e+00
1.4137131e+00
8.3914628e-01
1.4345373e-01
-4.6211619e-01
-8.5005052e-01
-1.0298461e+00
-1.1640469e+00
-1.3178722e+00
-1.3226923e+00
-1.0839279e+00
-7.1358563e-01
-3.1927556e-01
9.3089369e-02
4.9472890e-01
8.1063916e-01
9.8885671e-01
9.6246087e-01
7.4278836e-01
5.1374324e-01
4.4719353e-01
5.8585324e-01
9.4229406e-01
1.5420311e+00
1.9598564e+00
1.4367499e+00
8.4113321e-02
-1.2310251e+00
-1.9641628e+00
-2.0671349e+00
-1.7307340e+00
-1.2859255e+00
-1.0534358e+00
-1.0850597e+00
-1.1765648e+00
-1.0897384e+00
-6.9837580e-01
-2.1481706e-02
8.0414653e-01
1.5619136e+00
1.9629342e+00
1.7364334e+00
8.8370611e-01
-1.7878007e-01
-9.1232498e-01
-1.0568061e+00
-6.1878062e-01
2.8007038e-01
1.3840973e+00
2.1508150e+00
1.9984923e+00
9.8855553e-01
-1.9596887e-01
-9.3589352e-01
-1.0723982e+00
-8.9639231e-01
-7.8585547e-01
-8.3109940e-01
-8.8059104e-01
-7.9355418e-01
-5.6190420e-01
-2.2022369e-01
1.3626094e-01
3.3804443e-01
2.8760204e-01
3.5515927e-02
-2.6938148e-01
-4.8601759e-01
-5.2870727e-01
-3.4426327e-01
1.1273955e-01
8.5075922e-01
1.7803025e+00
2.5466519e+00
2.5984644e+00
1.7570273e+00
4.8774159e-01
-5.9497693e-01
-1.2395142e+00
-1.5918713e+00
-1.8402693e+00
-1.9397038e+00
-1.7903815e+00
-1.4318590e+00
-9.7003763e-01
-4.5678800e-01
4.3888551e-02
4.4713539e-01
7.6402774e-01
1.0470350e+00
1.2664165e+00
1.3400834e+00
1.2114768e+00
8.6230708e-01
3.7697648e-01
-6.0555733e-02
-3.5101701e-01
-5.2428909e-01
-5.8697577e-01
-5.1294305e-01
-3.4531455e-01
-2.1854542e-01
-2.0311950e-01
-2.0782947e-01
-1.5698425e-01
-6.0606127e-02
1.0373381e-01
3.4115753e-01
5.4746849e-01
6.0839098e-01
5.0373523e-01
2.6997273e-01
-6.1025634e-02
-4.5607830e-01
-8.8291337e-01
-1.2882866e+00
-1.5819009e+00
-1.6638459e+00
-1.4588111e+00
-9.4381219e-01
-1.2198919e-01
9.8001497e-01
2.2164229e+00
3.1725913e+00
3.3614228e+00
2.6673715e+00
1.3865265e+00
-3.9469682e-02
-1.2419674e+00
-1.9861063e+00
-2.1663322e+00
-1.8378363e+00
-1.1930139e+00
-4.5838708e-01
2.0097707e-01
6.6411791e-01
8.3980901e-01
7.1041438e-01
3.1569550e-01
-2.4295946e-01
-8.1331877e-01
-1.2613169e+00
-1.5102571e+00
-1.5159021e+00
-1.2137734e+00
-5.5276788e-01
4.2199029e-01
1.5193028e+00
2.4798111e+00
3.0612869e+00
2.9968798e+00
2.0773647e+00
6.8452026e-01
-3.5672799e-01
-8.0466355e-01
-1.0220138e+00
-1.2994713e+00
-1.5952981e+00
-1.6873478e+00
-1.4696247e+00
-1.0068138e+00
-3.9581112e-01
2.2100218e-01
6.4401842e-01
7.3499209e-01
5.0414214e-01
1.0590541e-01
-2.8028089e-01
-5.5192770e-01
-6.6674027e-01
-5.7766281e-01
-2.6136933e-01
2.2211306e-01
7.4279031e-01
1.1651437e+00
1.3424008e+00
1.1737494e+00
7.1949625e-01
1.6383493e-01
-2.9793008e-01
-5.9124743e-01
-7.4163941e-01
-7.6529531e-01
-6.6683718e-01
-4.7415079e-01
-2.3531802e-01
9.9513497e-03
2.2699421e-01
3.8243706e-01
4.5019440e-01
3.9776830e-01
1.8026334e-01
-2.1101686e-01
-6.2570822e-01
-7.7254475e-01
-4.6182142e-01
2.5541128e-01
1.0404710e+00
1.4000003e+00
1.1542398e+00
6.0495237e-01
1.1887508e-01
-2.0284877e-01
-4.4462375e-01
-6.4357019e-01
-7.2665281e-01
-6.9317996e-01
-7.1910386e-01
-8.6947070e-01
-9.2351411e-01
-7.4255810e-01
-4.3169135e-01
-1.0236415e-01
2.3324700e-01
5.4432276e-01
7.6463235e-01
8.7412434e-01
8.5122237e-01
6.7137485e-01
3.8515837e-01
6.9268621e-02
-2.3237816e-01
-4.3877362e-01
-4.5054483e-01
-2.9353120e-01
-1.8507255e-01
-2.9453991e-01
-4.6848945e-01
-3.6221751e-01
2.2010402e-01
1.0905573e+00
1.5770258e+00
1.0237597e+00
-3.0256719e-01
-1.4621571e+00
-1.8729952e+00
-1.5176182e+00
-6.0058049e-01
6.1457427e-01
1.8480540e+00
2.6640722e+00
2.5274572e+00
1.4630270e+00
1.4497190e-01
-8.6957636e-01
-1.4310027e+00
-1.5628471e+00
-1.3457097e+00
-8.9189234e-01
-3.5544681e-01
7.4219497e-02
2.7886620e-01
3.1672550e-01
3.3134132e-01
3.5046928e-01
2.1279291e-01
-1.8712654e-01
-6.5119033e-01
-9.0544873e-01
-8.8471317e-01
-6.6128505e-01
-3.0727169e-01
4.5950123e-02
2.6921472e-01
3.7875867e-01
4.7716524e-01
6.0063446e-01
6.8816771e-01
6.7903749e-01
5.4251256e-01
3.0904673e-01
7.7274659e-02
-1.0803751e-01
-2.9826707e-01
-4.8842892e-01
-5.6450251e-01
-4.4314301e-01
-1.6664377e-01
1.3340444e-01
2.9952678e-01
2.9532294e-01
2.1118077e-01
5.0581436e-02
-1.9697395e-01
-4.2814841e-01
-5.0426535e-01
-3.5167815e-01
-3.2096911e-03
4.6308281e-01
9.3135233e-01
1.1859229e+00
9.7425483e-01
2.3794399e-01
-6.9325968e-01
-1.2986231e+00
-1.3057648e+00
-8.2927291e-01
-1.8958819e-01
3.8800022e-01
8.9007569e-01
1.2720385e+00
1.2877684e+00
8.0975918e-01
8.5923080e-02
-4.9796014e-01
-6.6834677e-01
-4.1108356e-01
-1.5448506e-01
-3.3858154e-01
-7.5287482e-01
-9.4576006e-01
-8.2336809e-01
-5.2528382e-01
-1.8559532e-01
6.7520546e-02
1.4049037e-01
5.7369456e-02
-7.7275668e-02
-1.5426771e-01
-1.0304755e-01
9.9757877e-02
4.5635397e-01
9.8069738e-01
1.5817133e+00
1.9550395e+00
1.7293728e+00
8.7413340e-01
-1.9921463e-01
-1.0735932e+00
-1.5801658e+00
-1.7705647e+00
-1.8675601e+00
-1.9669778e+00
-1.8922773e+00
-1.5430668e+00
-9.9384400e-01
-3.0241847e-01
5.5454146e-01
1.6096905e+00
2.8168970e+00
3.7886111e+00
3.7283595e+00
2.4460187e+00
7.7205045e-01
-5.2794909e-01
-1.2530168e+00
-1.4647716e+00
-1.3043665e+00
-9.5844196e-01
-6.2726592e-01
-4.5012821e-01
-4.7066785e-01
-5.7118741e-01
-5.4658102e-01
-3.1545488e-01
-1.4957317e-02
1.3228534e-01
4.1101711e-02
-1.6201436e-01
-2.8460172e-01
-2.5715792e-01
-9.3432801e-02
1.1339141e-01
1.9521967e-01
6.9820580e-02
-1.8917639e-01
-4.4208220e-01
-5.8933407e-01
-5.7920335e-01
-3.6826557e-01
9.0251960e-02
8.0032569e-01
1.6579082e+00
2.3229872e+00
2.3398484e+00
1.6177871e+00
5.7284688e-01
-3.0923083e-01
-8.6312187e-01
-1.2437661e+00
-1.5844828e+00
-1.7645511e+00
-1.6573417e+00
-1.3348385e+00
-9.3210227e-01
-4.9813619e-01
-8.1198263e-02
2.4166032e-01
4.9354245e-01
7.5921012e-01
1.0241801e+00
1.1839964e+00
1.1579728e+00
9.1687227e-01
5.2463315e-01
1.3439167e-01
-1.6528945e-01
-3.9725665e-01
-5.7110676e-01
-6.8107313e-01
-7.8348198e-01
-9.7915363e-01
-1.2711930e+00
-1.4971745e+00
-1.5035398e+00
-1.2431169e+00
-7.2498423e-01
-3.7260754e-02
