2.1124774e-02
3.2968154e-02
5.1459550e-02
7.1765707e-02
7.1754206e-02
4.5018580e-02
2.0774827e-02
1.2469562e-02
6.4462289e-03
-1.4479069e-02
-5.0379813e-02
-6.9109405e-02
-4.7198744e-02
6.5378557e-03
7.0185538e-02
1.1005480e-01
1.1050334e-01
9.3843010e-02
6.9400137e-02
2.8913913e-02
-1.5514005e-02
-4.4069232e-02
-5.6548591e-02
-6.0047395e-02
-5.4725757e-02
-3.9766721e-02
-1.6875531e-02
7.7392993e-03
2.4607502e-02
1.8428134e-02
-1.0603739e-02
-3.7974180e-02
-5.3512532e-02
-6.3295356e-02
-7.5383131e-02
-9.9887585e-02
-1.3719174e-01
-1.8549217e-01
-2.4553960e-01
-3.0895919e-01
-3.4939247e-01
-3.2816413e-01
-2.1661662e-01
-1.0440420e-03
2.8576089e-01
5.6852158e-01
7.7710969e-01
8.3469663e-01
6.8178258e-01
3.1347796e-01
-1.5397089e-01
-5.1951815e-01
-6.9768890e-01
-7.0729338e-01
-5.6548634e-01
-2.8877185e-01
8.1688947e-02
4.4044257e-01
6.7410735e-01
7.6594233e-01
7.5507392e-01
6.2913137e-01
3.8359071e-01
9.4265256e-02
-1.5750078e-01
-3.2935455e-01
-4.2252325e-01
-4.6359743e-01
-4.7645398e-01
-4.8951957e-01
-5.1316213e-01
-5.2667275e-01
-5.1108247e-01
-4.5039898e-01
-3.2510137e-01
-1.2381124e-01
1.5803240e-01
4.9056871e-01
7.7956247e-01
9.3374792e-01
9.1991180e-01
7.2961406e-01
4.0990800e-01
8.1759153e-02
-1.5425390e-01
-2.7005647e-01
-2.8711480e-01
-2.5612292e-01
-2.3339381e-01
-2.4331699e-01
-2.6336284e-01
-2.6019236e-01
-2.2607249e-01
-1.7055904e-01
-1.0167870e-01
-2.1816309e-02
6.6494526e-02
1.4206629e-01
1.6342341e-01
1.1544879e-01
4.2220634e-02
-3.9175047e-03
-1.9527353e-02
-2.1719831e-02
-1.6521576e-02
-1.1580633e-02
-1.3401546e-02
-2.6257139e-02
-5.5788340e-02
-9.8096282e-02
-1.3715210e-01
-1.4894061e-01
-1.1806470e-01
-5.1743002e-02
3.2222071e-02
1.2628639e-01
2.1090724e-01
2.4667462e-01
2.1210935e-01
1.2493589e-01
2.7204431e-02
-4.8358106e-02
-7.0975191e-02
-3.4517427e-02
2.3547903e-02
7.3094286e-02
8.2802605e-02
2.5246028e-02
-6.2072702e-02
-1.2708433e-01
-1.6153250e-01
-1.7807877e-01
-1.8216341e-01
-1.6298357e-01
-1.1649539e-01
-5.0163311e-02
2.8283647e-02
1.0144688e-01
1.4006342e-01
1.3906912e-01
1.3653594e-01
1.5337965e-01
1.6895350e-01
1.5928282e-01
1.2521572e-01
7.1630182e-02
-5.1567611e-03
-7.8438683e-02
-1.2531548e-01
-1.4344664e-01
-1.3714640e-01
-1.1659106e-01
-7.4911692e-02
-6.0982655e-03
7.0802339e-02
1.1785874e-01
9.7974685e-02
1.8925567e-02
-6.0394208e-02
-1.0115130e-01
-1.1074526e-01
-1.1196380e-01
-1.1107730e-01
-1.0045126e-01
-7.8990251e-02
-4.4153596e-02
9.8722969e-03
8.5768458e-02
1.4884286e-01
1.1797906e-01
-1.1067453e-02
-1.3149473e-01
-1.7284776e-01
-1.3627856e-01
-2.9882370e-02
1.2269196e-01
2.3873466e-01
2.5220543e-01
1.8603083e-01
9.0507110e-02
1.7932522e-02
4.3699661e-03
4.6661165e-02
1.1759547e-01
1.5979644e-01
1.0993995e-01
-1.1414418e-02
-1.1518314e-01
-1.6390417e-01
-1.7588817e-01
-1.7575393e-01
-1.7377595e-01
-1.5899081e-01
-1.1599014e-01
-3.8165305e-02
3.8540899e-02
6.8016610e-02
6.3920055e-02
6.4976374e-02
9.7966197e-02
1.3945014e-01
1.3580200e-01
9.6178743e-02
5.7252620e-02
2.3761314e-02
-1.1836523e-02
-4.5108229e-02
-7.1336175e-02
-8.0558659e-02
-4.8859730e-02
-1.4825710e-04
2.9461516e-03
-4.7041205e-02
-1.1108710e-01
-1.5528609e-01
-1.6833777e-01
-1.5772837e-01
-1.1623292e-01
-2.5421615e-02
1.2474447e-01
2.9179099e-01
3.7406921e-01
3.2481031e-01
1.9371952e-01
5.5883463e-02
-5.2882363e-02
-1.3589954e-01
-1.8753109e-01
-2.0127874e-01
-1.8199430e-01
-1.3567446e-01
-8.0128394e-02
-3.4047408e-02
3.9103301e-03
2.0905751e-02
-1.3008099e-03
-3.5995804e-02
-4.8941151e-02
-1.7861509e-02
5.4931006e-02
1.3638644e-01
1.9676908e-01
2.0918821e-01
1.6570626e-01
8.6051436e-02
2.0342026e-03
-5.8347315e-02
-9.0664789e-02
-1.0284757e-01
-1.1000414e-01
-1.1593306e-01
-9.7226415e-02
-4.5022581e-02
2.0098874e-02
6.6108235e-02
8.3895602e-02
8.0455835e-02
5.2620407e-02
2.2838627e-02
-1.6268334e-03
-3.5062006e-02
-5.1574053e-02
-3.5626304e-02
-7.1611595e-03
1.9311219e-02
3.4022668e-02
3.0566676e-02
2.2584098e-02
1.6206553e-02
-1.1797920e-03
-2.5194196e-02
-4.4174264e-02
-6.2600275e-02
-8.2561698e-02
-9.7834163e-02
-1.0171325e-01
-8.7625124e-02
-5.2837498e-02
1.6092592e-04
1.6205229e-02
-4.2195394e-02
-1.0626160e-01
-1.2931715e-01
-1.1344036e-01
-7.0583907e-02
-3.9617565e-02
-2.6502608e-02
-8.7470190e-03
1.4818325e-02
1.3832447e-02
-3.0124641e-03
4.2559667e-02
1.3428002e-01
1.7749771e-01
1.5514986e-01
1.3862324e-01
2.1924894e-01
3.6471667e-01
4.2885579e-01
3.0390993e-01
6.2334184e-02
-9.2485511e-02
-1.0439210e-01
-7.5580033e-02
-7.8459143e-02
-9.9610580e-02
-8.4292843e-02
-4.3733844e-02
-4.6160982e-02
-1.1341223e-01
-2.0871520e-01
-2.6519380e-01
-2.3961146e-01
-1.4262565e-01
-9.1562212e-03
1.2222472e-01
2.1524599e-01
2.3423510e-01
1.7459215e-01
9.3276586e-02
3.7097890e-02
-6.0827664e-03
-5.4052089e-02
-9.4671408e-02
-1.0866465e-01
-9.3659658e-02
-4.7260802e-02
2.8345069e-02
8.9464460e-02
9.2487871e-02
4.7393491e-02
-2.0319472e-02
-8.6277860e-02
-1.2615767e-01
-1.2883871e-01
-9.3562800e-02
-2.7967610e-02
5.1610267e-02
1.1312823e-01
1.2523039e-01
9.4141220e-02
4.4922036e-02
-4.8897994e-03
-3.9848514e-02
-6.0763509e-02
-6.9014858e-02
-5.9316849e-02
-5.5293044e-02
-8.2178100e-02
-1.2236886e-01
-1.4799899e-01
-1.4681832e-01
-1.1229084e-01
-4.6971965e-02
4.0636611e-02
1.4574450e-01
2.4087086e-01
2.7962499e-01
2.4064815e-01
1.5914076e-01
8.1703078e-02
-5.4298967e-03
-9.3404535e-02
-1.2996228e-01
-1.0506155e-01
-5.8971215e-02
-4.1704217e-02
-6.0049338e-02
-8.9036300e-02
-1.0047821e-01
-8.5995360e-02
-5.7438371e-02
-1.2872048e-02
5.0509069e-02
1.3440782e-01
2.2804566e-01
2.7278610e-01
2.2719012e-01
1.3940200e-01
7.8920806e-02
3.3741634e-02
-3.9380864e-02
-1.1212187e-01
-1.4553651e-01
-1.4434381e-01
-1.1843196e-01
-9.3195153e-02
-1.0068601e-01
-1.2995215e-01
-1.4353087e-01
-1.2742680e-01
-9.2507832e-02
-4.7518936e-02
1.0624971e-02
8.8988095e-02
1.6322224e-01
1.7993510e-01
1.3697505e-01
7.9741141e-02
1.5365720e-02
-5.8999959e-02
-1.0844853e-01
-1.1545322e-01
-8.2698968e-02
-2.2646962e-02
3.3623024e-02
7.9127733e-02
1.2786244e-01
1.5040273e-01
1.0090950e-01
1.1657656e-02
-5.3849507e-02
-7.0880773e-02
-3.5777182e-02
2.2136057e-02
5.0568605e-02
4.0253088e-02
1.6755061e-02
-1.0041737e-02
-3.3688965e-02
-5.7307404e-02
-9.4759358e-02
-1.3470459e-01
-1.5344100e-01
-1.4290084e-01
-1.1159391e-01
-7.0982042e-02
-3.1036096e-02
7.1377850e-03
5.7265804e-02
1.2153783e-01
1.8541376e-01
2.3297231e-01
2.4400750e-01
2.0517348e-01
1.3448577e-01
6.2422671e-02
-4.3345818e-03
-6.4020556e-02
-9.7990908e-02
-1.0499409e-01
-1.0512936e-01
-1.0720500e-01
-1.0498249e-01
-9.2639643e-02
-7.9338396e-02
-7.2029203e-02
-5.7295428e-02
-2.3585473e-02
2.1038044e-02
5.7157308e-02
7.1619045e-02
7.3121409e-02
7.5454067e-02
6.6856390e-02
3.7364748e-02
6.2720151e-03
-1.1900441e-02
-1.9029857e-02
-2.3345636e-02
-2.9314367e-02
-3.0583965e-02
-2.3841324e-02
-1.2915969e-02
-9.2540786e-03
-2.1714239e-02
-4.1979588e-02
-4.9602935e-02
-2.5558274e-02
4.5744920e-03
-1.0118774e-03
-2.8567013e-02
-5.5670145e-02
-7.4161041e-02
-7.0557897e-02
-4.0313187e-02
1.8432087e-02
1.0178696e-01
1.8047661e-01
1.7448733e-01
5.8507411e-02
-6.6478691e-02
-1.3401050e-01
-1.5177364e-01
-1.2961010e-01
-6.7094808e-02
3.8657796e-02
1.6318556e-01
2.5703496e-01
2.7380276e-01
2.1777313e-01
1.3714280e-01
5.5982284e-02
-2.2685710e-02
-8.7241066e-02
-1.2174273e-01
-1.1521029e-01
-7.9726451e-02
-4.9580599e-02
-5.2872947e-02
-7.9386644e-02
-9.7312238e-02
-1.0037258e-01
-9.3918423e-02
-7.4815979e-02
-3.9994767e-02
1.0205084e-02
6.4403019e-02
1.0740164e-01
1.0178727e-01
3.4832539e-02
-2.7725230e-02
-4.7715614e-02
-3.9135525e-02
-1.2424365e-02
1.8473597e-02
4.2986370e-02
5.5187881e-02
5.2558497e-02
2.9341319e-02
-9.2541932e-03
-3.5572315e-02
-4.7514350e-02
-5.5876540e-02
-5.8022618e-02
-4.9303490e-02
-1.7295858e-02
4.0845828e-02
9.1842739e-02
7.9758798e-02
1.0195544e-02
-4.5238217e-02
-5.6282954e-02
-3.4632774e-02
1.3446597e-03
3.2832780e-02
4.1777538e-02
1.2261212e-02
-3.8285181e-02
-8.4656054e-02
-1.1306439e-01
-1.2047454e-01
-1.1533788e-01
-9.1676640e-02
-3.9295198e-02
4.5657767e-02
1.5229257e-01
2.3406728e-01
2.4752156e-01
2.1979113e-01
1.9218513e-01
1.4879665e-01
8.2934877e-02
1.3629410e-02
-4.4245897e-02
-7.9282271e-02
-9.1911532e-02
-9.0404111e-02
-8.8333917e-02
-8.9645090e-02
-9.3462761e-02
-1.0522578e-01
-1.1069284e-01
-9.2443837e-02
-6.1551900e-02
-3.1541337e-02
1.7702917e-03
2.7072462e-02
3.0455349e-02
4.0241969e-02
4.9179514e-02
1.5079647e-02
-4.1098580e-02
-7.9330736e-02
-8.1341357e-02
-4.4078975e-02
1.2972591e-02
6.6296700e-02
1.1436148e-01
1.7906685e-01
2.1202203e-01
1.4619587e-01
4.3549272e-02
-1.9116269e-02
-3.3846256e-02
-2.5315899e-02
-3.5908906e-02
-7.9949103e-02
-1.3511056e-01
-1.7249081e-01
-1.7803876e-01
-1.5362851e-01
-1.1058755e-01
-5.8781508e-02
-3.2334318e-04
4.7750386e-02
7.2814925e-02
9.9448355e-02
1.4057382e-01
1.5411660e-01
1.1233033e-01
6.0215257e-02
2.7470162e-02
5.1454783e-03
-5.3023729e-03
2.0237423e-03
3.9974966e-03
-2.2646361e-02
-3.4147056e-02
8.3015049e-03
6.6752920e-02
8.3580390e-02
6.9716872e-02
6.0279108e-02
4.0763909e-02
-1.1671205e-03
-5.5427857e-02
-1.0894824e-01
-1.3979492e-01
-1.3182265e-01
-9.0224314e-02
-3.1863317e-02
2.1551806e-02
5.0996934e-02
5.3726178e-02
3.5977509e-02
-1.9865967e-04
-4.5616358e-02
-9.1714053e-02
-1.4899021e-01
-2.0146394e-01
-2.0180125e-01
-1.4520261e-01
-5.7027419e-02
4.0170366e-02
1.1113939e-01
1.5317930e-01
2.0218931e-01
2.2168322e-01
1.0273582e-01
-1.3502982e-01
-3.3264349e-01
-4.0187921e-01
-3.4117586e-01
-2.0442171e-01
-7.5804366e-02
1.9243537e-02
1.1108594e-01
2.2951473e-01
3.5676337e-01
4.9586200e-01
6.6212806e-01
7.8460443e-01
7.7703690e-01
5.9697534e-01
2.6713980e-01
-9.0362898e-02
-3.4873977e-01
-4.7582063e-01
-4.9780843e-01
-4.4854978e-01
-3.6719384e-01
-2.8341620e-01
-2.0873278e-01
-1.4751560e-01
-9.6355450e-02
-4.5558643e-02
1.1324440e-02
5.2622682e-02
4.2127040e-02
-1.4659887e-03
-2.6877276e-02
-2.5175890e-02
-1.1365834e-02
7.8687755e-03
2.8020933e-02
3.9806012e-02
3.4636882e-02
1.9288697e-02
-1.6452583e-03
-2.3689120e-02
-3.3174752e-02
-3.2837975e-02
-2.7701814e-02
-1.8360387e-02
-1.4811175e-02
-2.2033411e-02
-4.6543677e-02
-1.1024742e-01
-2.0627725e-01
-2.8260041e-01
-3.0076999e-01
-2.5215169e-01
-1.3032496e-01
6.7530450e-02
2.9598515e-01
4.5451567e-01
4.4664923e-01
2.5835659e-01
1.9672673e-02
-1.3617324e-01
-2.3469268e-01
-3.2720990e-01
-3.8334200e-01
-3.5408487e-01
-2.1147481e-01
1.4321060e-02
2.4685903e-01
4.2789917e-01
5.4040522e-01
5.9333529e-01
5.8479774e-01
5.0370142e-01
3.4768079e-01
1.5837553e-01
3.8083469e-02
1.9407509e-02
3.4919091e-02
3.3158421e-02
-1.1543306e-02
-9.9294495e-02
-2.0113058e-01
-2.8765395e-01
-3.2875429e-01
-3.0748510e-01
-2.3415931e-01
-1.3970275e-01
-6.9154784e-02
-4.2968436e-02
-3.6677119e-02
-3.0314939e-02
-2.2797676e-02
-9.7551411e-03
9.8620415e-03
2.6836916e-02
3.2832747e-02
2.4266767e-02
2.2742310e-03
-2.3140724e-02
-4.4775860e-02
-6.8060342e-02
-9.1116167e-02
-1.0066059e-01
-9.7101590e-02
-8.8328896e-02
-7.8704123e-02
-6.4451828e-02
-3.0531495e-02
2.8343945e-02
5.2663530e-02
6.4702914e-03
-2.5785642e-02
3.4698105e-03
6.9401624e-02
1.3806778e-01
1.4724133e-01
8.9095972e-02
2.4037219e-02
-1.5685410e-02
-4.7328038e-02
-8.1775293e-02
-7.5252517e-02
8.0124628e-03
1.3755360e-01
2.2602091e-01
2.1014091e-01
1.3097451e-01
5.3862774e-02
-6.0897912e-03
-8.0197982e-02
-1.9237243e-01
-3.0896029e-01
-3.8720210e-01
-3.9465940e-01
-3.0612101e-01
-1.2150196e-01
1.3313204e-01
3.8903624e-01
5.3825568e-01
4.8924075e-01
2.8807571e-01
9.7701445e-02
2.6298195e-03
-1.3761779e-02
-1.4867380e-02
-7.6563546e-02
-1.9310442e-01
-2.8854231e-01
-2.9907837e-01
-1.9414796e-01
-1.8049676e-02
1.1974662e-01
1.6900075e-01
1.3036892e-01
2.7155657e-02
-5.2969156e-02
-4.2281279e-02
2.6960495e-02
7.0580929e-02
5.0242504e-02
2.0779965e-02
5.2544919e-02
1.1978057e-01
1.4876287e-01
1.1677709e-01
3.5064606e-02
-6.5511099e-02
-1.3045987e-01
-1.3588652e-01
-1.1588452e-01
-1.0503214e-01
-1.0129786e-01
-8.0950590e-02
-2.8123108e-02
3.7055247e-02
7.0197886e-02
3.9835126e-02
-3.0136188e-02
-7.8452848e-02
-6.7001540e-02
-3.7621387e-02
-6.6601797e-02
-1.3833152e-01
-1.8298819e-01
-1.6214439e-01
-6.0345981e-02
1.2490745e-01
3.4569359e-01
4.7417715e-01
4.0716286e-01
2.0393634e-01
8.1929638e-03
-1.1822207e-01
-1.9307545e-01
-2.3567820e-01
-2.3086762e-01
-1.4381313e-01
-6.3078777e-03
6.9464850e-02
3.2894289e-02
-3.7090640e-02
-3.3720795e-02
6.7591226e-02
1.9263709e-01
2.5233058e-01
2.1743375e-01
1.1273232e-01
2.5261645e-03
-5.2867307e-02
-6.3226970e-02
-7.5053425e-02
-9.2205945e-02
-9.6196254e-02
-8.6765023e-02
-6.6111722e-02
-3.8147169e-02
-1.7927275e-02
-1.7936749e-02
-3.6454149e-02
-5.9524195e-02
-7.8824704e-02
-8.6460356e-02
-7.1228699e-02
-4.8188619e-02
-3.2701721e-02
-1.3192702e-02
3.3574447e-03
1.3816980e-02
5.9663535e-02
1.6075635e-01
2.4638612e-01
2.2418436e-01
1.0636235e-01
-2.6448286e-02
-1.2114786e-01
-1.8596856e-01
-2.3833888e-01
-2.5014149e-01
-1.9960145e-01
-8.8059635e-02
5.9512778e-02
1.6432122e-01
1.7408144e-01
1.2129549e-01
6.3147855e-02
4.6339322e-02
7.7207669e-02
1.0753525e-01
9.0386973e-02
3.3853130e-02
-2.7747100e-02
-6.6897460e-02
-8.8407166e-02
-1.1892965e-01
-1.3941786e-01
-1.1748234e-01
-6.0600212e-02
2.6618325e-03
4.7973562e-02
4.2578741e-02
7.7375213e-03
3.7967417e-02
1.4503206e-01
2.5358149e-01
2.9890507e-01
2.4349932e-01
1.1863438e-01
1.4857626e-02
-2.8145101e-02
-5.9591208e-02
-1.1682925e-01
-1.6783645e-01
-1.8965837e-01
-1.8944369e-01
-1.7230952e-01
-1.4578763e-01
-1.1329954e-01
-9.0760538e-02
-1.0485382e-01
-1.4502003e-01
-1.7188346e-01
-1.6615202e-01
-1.2154100e-01
-2.6587356e-02
1.3423773e-01
3.4194626e-01
4.9877443e-01
5.1761184e-01
4.0291787e-01
2.1440798e-01
3.2393243e-02
-9.4934378e-02
-1.6946047e-01
-2.0057321e-01
-1.8578613e-01
-1.3800573e-01
-8.6307887e-02
-4.3707962e-02
-2.0477375e-02
-4.2634556e-02
-1.1128549e-01
-1.7654010e-01
-2.0169161e-01
-1.7722729e-01
-9.1832763e-02
4.0127454e-02
1.6748233e-01
2.5618547e-01
2.9398414e-01
2.6019613e-01
1.5787760e-01
2.0675513e-02
-1.1140969e-01
-2.0043213e-01
-2.2769991e-01
-1.8361085e-01
-5.3289991e-02
1.3030188e-01
2.9324625e-01
3.5458147e-01
2.8821806e-01
1.6405170e-01
3.8824485e-02
-7.1428159e-02
-1.5516822e-01
-2.0930902e-01
-2.3172181e-01
-2.2326591e-01
-1.9353658e-01
-1.6039218e-01
-1.4171287e-01
-1.4095780e-01
-1.4139198e-01
-1.2337562e-01
-6.9166049e-02
2.7214513e-02
1.5559778e-01
2.9540284e-01
3.9061174e-01
3.6391883e-01
2.3558303e-01
1.2047279e-01
6.2180476e-02
2.8130564e-02
-9.5059987e-03
-5.8946873e-02
-1.0936051e-01
-1.4897509e-01
-1.8018291e-01
-2.0931641e-01
-2.2991811e-01
-2.2001255e-01
-1.6623315e-01
-7.5644048e-02
2.5951983e-02
9.2992823e-02
1.1398233e-01
1.2888402e-01
1.4714509e-01
1.1907987e-01
3.5562319e-02
-3.7153352e-02
-6.2247428e-02
-4.5883498e-02
-1.0414080e-03
5.0079427e-02
9.8150066e-02
1.4593373e-01
2.0171365e-01
2.3251276e-01
1.8404046e-01
7.6855560e-02
-4.3001118e-02
-1.4867298e-01
-2.1161543e-01
-2.2113670e-01
-1.8642649e-01
-1.2463994e-01
-5.0574111e-02
9.7378924e-03
2.3224597e-02
-5.6723551e-03
-4.1910650e-02
-6.0295085e-02
-4.7825706e-02
-3.6319812e-03
5.2160401e-02
9.0434790e-02
9.1499530e-02
5.5363635e-02
-3.3965174e-03
-6.2270165e-02
-1.0159482e-01
-1.1361472e-01
-9.8013439e-02
-7.1781136e-02
-4.5596544e-02
-2.3000185e-03
5.9996164e-02
1.4185355e-01
2.1603325e-01
2.0527086e-01
1.0494979e-01
-1.1700810e-02
-9.0091706e-02
-1.1744336e-01
-1.0694059e-01
-8.1777785e-02
-6.7922453e-02
-8.2318351e-02
-1.0436981e-01
-9.7443769e-02
-5.8711429e-02
1.4946417e-02
1.3106235e-01
2.4719017e-01
2.7262885e-01
1.8212166e-01
5.7072973e-02
-3.3849210e-02
-6.1641365e-02
-2.8266431e-02
2.6359293e-02
6.4416132e-02
5.4363687e-02
-3.4464647e-03
-4.8232929e-02
-2.9095160e-02
2.3914735e-02
4.0114278e-02
-1.2355498e-02
-1.1797301e-01
-2.3225481e-01
-3.0133652e-01
-2.9758454e-01
-2.1117962e-01
-3.6684728e-02
1.7691152e-01
3.2031735e-01
3.2807800e-01
2.5400744e-01
1.9344785e-01
1.6244575e-01
1.1344541e-01
2.7223735e-02
-5.7730382e-02
-9.9906117e-02
-9.9813363e-02
-8.8145433e-02
-1.0007620e-01
-1.3840989e-01
-1.7514827e-01
-1.9713490e-01
-2.0128399e-01
-1.7867383e-01
-1.2331204e-01
-3.7127306e-02
7.8740956e-02
2.1412723e-01
2.9428570e-01
2.7902457e-01
2.3854518e-01
2.0663778e-01
1.5474926e-01
6.6598031e-02
-3.6919763e-02
-1.0798173e-01
-1.3479255e-01
-1.4294003e-01
-1.5917237e-01
-1.8595146e-01
-1.9371464e-01
-1.7502082e-01
-1.4761860e-01
-1.1680004e-01
-7.3343555e-02
4.7916621e-03
1.1696557e-01
1.9285565e-01
1.4376878e-01
-4.1608896e-03
-1.2878519e-01
-1.6310516e-01
-1.0160202e-01
5.5606789e-02
2.6181629e-01
4.1332061e-01
4.3857399e-01
3.2916242e-01
1.2597735e-01
-8.6275160e-02
-2.4655732e-01
-3.3537016e-01
-3.4457930e-01
-2.6841460e-01
-1.1576445e-01
6.3956749e-02
1.9642610e-01
2.1087928e-01
9.6824082e-02
-6.3804735e-02
-1.8173711e-01
-2.2419225e-01
-1.8646702e-01
-9.8177950e-02
2.0500742e-03
1.2877311e-01
2.9026873e-01
4.0865729e-01
3.5390797e-01
1.3283505e-01
-9.5026032e-02
-2.3891362e-01
-2.8985971e-01
-2.5400520e-01
-1.6876521e-01
-8.9349916e-02
-3.2353744e-02
4.0764083e-02
1.6511791e-01
2.9028638e-01
2.7866426e-01
1.0938691e-01
-8.8964623e-02
-2.2635546e-01
-2.6486240e-01
-1.9717338e-01
-7.4599212e-02
2.4627804e-02
8.3790936e-02
1.7307833e-01
3.1055160e-01
4.0704858e-01
3.8543322e-01
2.4049102e-01
3.4322669e-02
-1.4435610e-01
-2.4117079e-01
-2.5160079e-01
-2.2768618e-01
-2.2362861e-01
-2.3078230e-01
-2.1687917e-01
-1.8416393e-01
-1.6609129e-01
-1.9907536e-01
-2.8387177e-01
-3.6182274e-01
-3.5391221e-01
-1.9357192e-01
7.1534490e-02
2.7041765e-01
3.5837828e-01
4.2489248e-01
5.2210318e-01
6.4817085e-01
7.3579537e-01
7.0477993e-01
5.2836949e-01
2.4330302e-01
-4.7848942e-02
-2.5570632e-01
-3.7446003e-01
-4.3175409e-01
-4.3737793e-01
-3.9866144e-01
-3.2582180e-01
-2.2596245e-01
-1.1681653e-01
-5.4137427e-02
-6.4153090e-02
-8.6242784e-02
-7.8605221e-02
-4.9243419e-02
-1.9549098e-03
5.4923077e-02
9.9831310e-02
1.2116432e-01
1.2687434e-01
1.1353552e-01
7.8100065e-02
4.4567119e-02
2.6642197e-02
2.6147069e-02
4.3703211e-02
4.0376741e-02
-5.6398659e-03
-5.0198828e-02
-6.8971125e-02
-8.0835346e-02
-9.2560481e-02
-9.0642606e-02
-7.0502813e-02
-4.1474240e-02
-1.9633898e-02
-1.9389731e-02
-2.9276720e-02
-2.2023215e-02
1.1562035e-03
3.1351021e-03
-1.4754993e-02
1.1747588e-02
1.0835623e-01
2.2318388e-01
2.8366771e-01
2.4253061e-01
1.2015494e-01
-1.1634432e-04
-5.9197421e-02
-9.3777161e-02
-1.5938017e-01
-2.3011777e-01
-2.6635061e-01
-2.6025510e-01
-2.0598686e-01
-1.0944716e-01
1.5963349e-02
1.6595082e-01
3.0171880e-01
3.1456140e-01
1.8230457e-01
2.4323253e-02
-8.6460209e-02
-1.4398598e-01
-1.4893033e-01
-1.1820202e-01
-6.5297853e-02
1.4608195e-02
1.0428225e-01
1.1894448e-01
3.3384059e-02
-6.2497071e-02
-1.1688944e-01
-1.3083838e-01
-1.1342803e-01
-7.0076777e-02
2.4870579e-02
1.8196782e-01
3.2538069e-01
3.1211259e-01
1.4088533e-01
-2.5760863e-02
-1.0738011e-01
-1.1487553e-01
-8.0293130e-02
-4.6059111e-02
-1.4850862e-02
3.5556561e-02
1.0542130e-01
1.2804772e-01
5.5328584e-02
-6.0182111e-02
-1.6326543e-01
-2.3004264e-01
-2.4399220e-01
-1.9739016e-01
-8.8932259e-02
5.3002761e-02
1.5135680e-01
1.6273767e-01
1.4110897e-01
1.3506564e-01
1.2930256e-01
9.7980657e-02
4.1647760e-02
-1.0222546e-02
-1.6337756e-02
3.4690684e-03
1.2164692e-05
-2.6619131e-02
-6.0255287e-02
-7.2231921e-02
-4.5890771e-02
1.5456009e-03
4.2321029e-02
6.4392124e-02
6.6833777e-02
2.8236988e-02
-4.4776459e-02
-1.0317056e-01
-1.2729757e-01
-1.3071000e-01
-1.1489505e-01
-7.4010962e-02
-2.2649021e-02
1.2741235e-02
1.8757439e-02
8.1692824e-03
6.4054661e-03
1.7989642e-02
3.3992530e-02
5.0250137e-02
6.8901308e-02
9.5979853e-02
1.2081002e-01
1.1242317e-01
5.5250487e-02
-2.1967742e-02
-7.4084382e-02
-8.1410819e-02
-6.3167209e-02
-5.0615021e-02
-5.0974964e-02
-5.5655267e-02
-5.4377451e-02
-3.4380443e-02
9.8847358e-03
5.6155006e-02
7.2127182e-02
5.9708557e-02
3.9401173e-02
1.4854635e-02
-1.0044355e-02
-1.6875808e-02
1.0242332e-02
3.8585071e-02
1.3140865e-02
-4.9229909e-02
-9.5668460e-02
-1.0205909e-01
-6.1719851e-02
1.5059450e-02
1.0040248e-01
1.6731141e-01
1.7653588e-01
1.0936084e-01
1.7177392e-02
-4.9647376e-02
-8.7528292e-02
-1.1661899e-01
-1.4085307e-01
-1.3800597e-01
-1.1001288e-01
-7.0767876e-02
-3.5393056e-02
-1.8728080e-02
6.5024892e-04
5.1509928e-02
1.2285645e-01
1.3025780e-01
3.4771359e-02
-6.9675364e-02
-1.1661541e-01
-1.1322618e-01
-7.9413274e-02
-1.6481113e-02
9.3644638e-02
2.1603132e-01
2.6092651e-01
2.0660119e-01
1.1738558e-01
3.6980071e-02
-3.0188182e-02
-8.9400435e-02
-1.3228820e-01
-1.3809873e-01
-1.0556798e-01
-5.7495127e-02
-8.2032692e-03
2.6269842e-02
1.9360709e-02
-1.5971698e-02
-5.1424669e-02
-7.3921406e-02
-6.6922955e-02
-2.1720099e-02
5.0665861e-02
1.2003024e-01
1.5681901e-01
1.4018557e-01
7.5955684e-02
1.8401500e-02
4.2954880e-04
-6.2247341e-04
-1.0870119e-02
-2.6633893e-02
-2.4875662e-02
-6.6251854e-03
-2.6592521e-03
-2.1557552e-02
-3.8072929e-02
-3.1892844e-02
-1.3923575e-02
-1.1343723e-02
-2.9821761e-02
-5.2918643e-02
-6.6873387e-02
-6.6139159e-02
-4.3527679e-02
-4.1249399e-03
1.7896988e-02
1.2546763e-03
-2.2203985e-02
-1.5616030e-02
2.0318320e-02
6.5214133e-02
8.8405315e-02
6.3952085e-02
9.3591392e-03
-3.1472119e-02
-4.4357434e-02
-4.0784030e-02
-3.0861289e-02
-1.8769762e-02
-5.4658819e-03
-1.4344244e-03
-1.3266177e-02
-1.9316359e-02
1.3783446e-03
1.8633455e-02
-1.1823805e-03
-3.3754589e-02
-5.3742763e-02
-5.9748895e-02
-5.5975820e-02
-3.9647003e-02
6.9880014e-03
8.0562256e-02
1.2316538e-01
6.9193107e-02
-4.7473392e-02
-1.3736443e-01
-1.6856700e-01
-1.3914154e-01
-5.6591004e-02
5.7859443e-02
1.9842125e-01
3.3476768e-01
3.6424072e-01
2.4799399e-01
1.0660094e-01
3.7839770e-02
2.1840703e-02
6.1068557e-03
-3.8896365e-02
-9.6568995e-02
-1.3319860e-01
-1.5041497e-01
-1.5625289e-01
-1.3629298e-01
-1.0924245e-01
-1.0454020e-01
-1.0697071e-01
-9.1885956e-02
-4.7008622e-02
2.9023314e-02
1.1864559e-01
1.7318280e-01
1.5591134e-01
8.9360475e-02
1.4376202e-02
-3.6244322e-02
-5.5097592e-02
-6.0066721e-02
-6.8439087e-02
-7.4564211e-02
-4.6631566e-02
2.7092408e-02
1.0175498e-01
1.1450918e-01
6.9174467e-02
1.3727358e-02
-2.9195698e-02
-5.2820960e-02
-5.1292367e-02
-2.4787167e-02
1.9023293e-02
6.0682369e-02
7.0738002e-02
3.8818668e-02
-1.5858562e-02
-7.1486389e-02
-1.1260361e-01
-1.3010610e-01
-1.2620985e-01
-1.0544356e-01
-6.9659543e-02
-2.9233417e-02
1.0661029e-02
5.9003333e-02
1.1599690e-01
1.7517959e-01
2.1202923e-01
1.9289230e-01
1.3317212e-01
5.8062299e-02
-2.7544914e-02
-9.0875308e-02
-1.0854370e-01
-8.3824053e-02
-4.2802139e-02
-2.8683633e-02
-3.6895944e-02
-3.2395329e-02
-8.0739876e-03
1.4473721e-02
1.8890764e-02
4.8935271e-03
-2.4166022e-02
-5.1512567e-02
-5.6953590e-02
-3.9007952e-02
-5.1018052e-03
4.0090683e-02
9.0030212e-02
1.2015447e-01
1.0450991e-01
5.6027666e-02
6.7509320e-03
-2.9547195e-02
-5.6671470e-02
-8.1293299e-02
-1.0274458e-01
-1.1334590e-01
-1.1113929e-01
-1.0250048e-01
-9.8379251e-02
-1.1085982e-01
-1.3096228e-01
-1.3143993e-01
-9.8725380e-02
-3.3415513e-02
7.1164560e-02
2.1764324e-01
3.6691695e-01
4.2432157e-01
3.3169762e-01
1.5693565e-01
2.6520286e-03
-8.5454454e-02
-1.1554747e-01
-1.1948663e-01
-1.0382421e-01
-6.1348582e-02
-1.1051412e-02
1.3445698e-02
2.5062931e-03
-2.3637846e-02
-4.1428141e-02
-4.0369813e-02
-2.8172311e-02
-1.7773193e-02
-6.8186513e-03
5.8662288e-03
6.4439341e-03
-1.6094170e-02
-4.9815473e-02
-7.2525871e-02
-7.8228912e-02
-7.5355053e-02
-7.1015133e-02
-5.6271434e-02
-1.7045854e-02
5.1170269e-02
1.2871044e-01
1.6702376e-01
1.3890192e-01
7.7161563e-02
3.0842523e-02
3.1955685e-03
-3.8339788e-02
-1.0364485e-01
-1.6420809e-01
-1.8919586e-01
-1.6997472e-01
-1.0626554e-01
6.3103383e-03
1.5691681e-01
2.7387040e-01
2.4675012e-01
8.4246587e-02
-8.6840456e-02
-1.9706278e-01
-2.4096957e-01
-2.1816520e-01
-1.3376516e-01
1.4297023e-02
2.2835632e-01
4.2083218e-01
4.1821378e-01
2.1930542e-01
1.1583133e-02
-1.1242901e-01
-1.7831768e-01
-2.0679666e-01
-1.8385854e-01
-9.5705199e-02
4.5128866e-02
1.7924555e-01
1.9418424e-01
7.9998173e-02
-4.2183137e-02
-1.0876151e-01
-1.3666014e-01
-1.4789551e-01
-1.4180103e-01
-9.9106128e-02
-1.5180048e-02
7.0361542e-02
7.0731282e-02
-2.5878752e-02
-1.2353795e-01
-1.6508555e-01
-1.4564840e-01
-6.0432789e-02
8.1344842e-02
2.6013377e-01
4.1594445e-01
4.3927594e-01
3.1481913e-01
1.4942920e-01
2.3377570e-02
-5.7510621e-02
-1.2055208e-01
-1.7106283e-01
-1.8711381e-01
-1.6480569e-01
-1.2092236e-01
-7.1911443e-02
-3.7922764e-02
-3.1919832e-02
-3.6506431e-02
-3.0535836e-02
-1.3793667e-02
1.0795118e-02
4.7406753e-02
8.1819742e-02
7.7517656e-02
3.2709194e-02
-1.4643253e-02
-4.1308067e-02
-5.3906346e-02
-6.7790637e-02
-8.3776996e-02
-9.8849260e-02
-1.0887237e-01
-9.9100880e-02
-6.5536539e-02
-1.2521228e-02
6.8120243e-02
1.3747231e-01
1.2580537e-01
6.1627760e-02
1.8207150e-02
1.0600652e-02
2.8695494e-02
6.1585952e-02
8.0629276e-02
5.9287554e-02
8.0965700e-03
-4.5863150e-02
-9.3672196e-02
-1.2385001e-01
-1.1522609e-01
-6.4731444e-02
1.3413103e-02
9.9198826e-02
1.4745650e-01
1.2165545e-01
4.6305712e-02
-3.3135548e-02
-8.4291717e-02
-1.0038281e-01
-8.4396233e-02
-3.6379621e-02
3.8859848e-02
1.2604733e-01
1.7284584e-01
1.4939872e-01
1.0605539e-01
6.9985938e-02
1.0906024e-02
-5.9163107e-02
-1.0504029e-01
-1.2396559e-01
-1.2200951e-01
-1.0475904e-01
-8.0410832e-02
-5.3255035e-02
-2.3046055e-02
1.0037112e-02
3.6377423e-02
3.0141005e-02
-1.1638942e-02
-5.2544078e-02
-7.5211257e-02
-7.7032563e-02
-4.4860626e-02
1.4064019e-02
6.8777525e-02
9.0668975e-02
7.0305696e-02
2.6436071e-02
-1.0096562e-02
-2.5145341e-02
-8.8384572e-03
4.2767374e-02
7.4411985e-02
3.0944873e-02
-4.5617076e-02
-9.4956972e-02
-1.0773172e-01
-8.5173286e-02
-2.0182415e-02
8.5636469e-02
1.9454696e-01
2.2731860e-01
1.5818550e-01
5.8742803e-02
-1.0473016e-02
-4.0269888e-02
-4.4963479e-02
-4.5191111e-02
-4.8687686e-02
-5.1614426e-02
-4.5291031e-02
-3.4865631e-02
-3.1072936e-02
-3.3788988e-02
-5.3294882e-02
-7.6135383e-02
-6.1766127e-02
-1.2086424e-02
5.1208384e-02
1.1035311e-01
1.2576579e-01
8.3817877e-02
3.0457132e-02
-6.9962371e-03
-5.7776839e-02
-1.1915741e-01
-1.4200537e-01
-1.1293260e-01
-4.9441967e-02
2.8666521e-02
8.7284653e-02
9.7049823e-02
7.4203239e-02
5.7286424e-02
4.6573513e-02
2.2714337e-02
-1.1185348e-02
-3.7552994e-02
-4.2758546e-02
-3.0415228e-02
-1.0705280e-02
6.8946534e-03
4.8174546e-03
-1.3761964e-02
-3.4377709e-02
-5.6554512e-02
-7.4392101e-02
-7.8258637e-02
-6.0271775e-02
-1.7255934e-02
3.7207231e-02
8.0525764e-02
9.6666055e-02
7.7417394e-02
3.4011310e-02
1.2582073e-03
1.0048182e-02
5.8384913e-02
1.0180846e-01
8.8539137e-02
1.4913524e-02
-6.9503221e-02
-1.1520872e-01
-1.1531561e-01
-8.8772222e-02
-6.4151173e-02
-5.7739208e-02
-5.1069737e-02
-2.7784578e-02
4.8568388e-03
3.9929063e-02
7.9608821e-02
1.2547357e-01
1.6240243e-01
1.1568430e-01
-3.7660436e-02
-1.8258002e-01
-2.4462499e-01
-2.3585980e-01
-1.7099405e-01
-6.8676153e-02
6.1808298e-02
2.3209194e-01
4.0020766e-01
4.2504609e-01
2.6949215e-01
7.9229158e-02
-6.1279564e-02
-1.5952158e-01
-2.1530869e-01
-2.2680056e-01
-1.8207996e-01
-7.5877813e-02
4.8138831e-02
7.1485792e-02
-4.7873518e-02
-1.8422142e-01
-2.5075101e-01
-2.4534154e-01
-1.7490536e-01
-5.2235608e-02
1.3498209e-01
3.6959249e-01
5.3777712e-01
5.0577954e-01
3.0090129e-01
7.5524832e-02
-1.0288888e-01
-2.3169715e-01
-2.9279704e-01
-2.7350505e-01
-1.7535415e-01
-1.5429583e-02
1.3533628e-01
1.5073887e-01
2.1847914e-02
-1.1668576e-01
-1.9549993e-01
-2.3011260e-01
-2.2656508e-01
-1.6594351e-01
-2.5541594e-02
1.4322228e-01
2.4559505e-01
2.9357655e-01
3.1346261e-01
2.5669772e-01
1.3781028e-01
2.7724698e-02
-2.4632106e-02
-7.7518419e-03
3.8485902e-02
4.0174743e-02
-1.3317486e-02
-5.5299994e-02
-6.8700042e-02
-7.1934766e-02
-6.6854607e-02
-6.6140916e-02
-7.3466986e-02
-7.0360652e-02
-3.9666214e-02
1.1760329e-02
4.9218598e-02
5.2718825e-02
2.5692257e-02
-2.6502461e-02
-8.2718613e-02
-1.2155301e-01
-1.3603861e-01
-1.2525566e-01
-9.9997365e-02
-8.9042756e-02
-1.0194637e-01
-1.0582803e-01
-7.4386446e-02
-8.9007056e-03
8.1621575e-02
1.9094948e-01
2.8597292e-01
3.1540125e-01
2.6016954e-01
1.3683314e-01
6.3808444e-03
-6.0393019e-02
-7.0549060e-02
-8.6154045e-02
-1.1858465e-01
-1.3371724e-01
-1.0880410e-01
-4.3783736e-02
4.0053633e-02
1.0031431e-01
9.8450095e-02
4.0596679e-02
-3.5258166e-02
-9.5785160e-02
-1.2894916e-01
-1.3154770e-01
-9.8935345e-02
-4.7856830e-02
-1.6867796e-02
-2.3676231e-02
-5.6129111e-02
-9.8070555e-02
-1.1807566e-01
-7.3420608e-02
4.1483854e-02
1.8980898e-01
3.2094101e-01
3.8289341e-01
3.4201055e-01
2.2383547e-01
9.5257928e-02
3.9718916e-03
-4.3381157e-02
-7.3108811e-02
-9.9855586e-02
-1.2295123e-01
-1.4453290e-01
-1.5704448e-01
-1.5382938e-01
-1.3619490e-01
-1.0996153e-01
-9.2838507e-02
-9.0569261e-02
-7.9650806e-02
-5.0424237e-02
-7.2253484e-03
4.3871149e-02
6.3672184e-02
3.0717976e-02
-5.6387001e-03
-4.8080980e-03
1.2885918e-02
3.6809307e-02
9.3898069e-02
1.7727488e-01
2.3353810e-01
2.1386744e-01
1.2316630e-01
2.1913176e-02
-4.1465817e-02
-6.1316166e-02
-7.2767944e-02
-9.8627369e-02
-1.1159660e-01
-1.0152039e-01
-8.7282271e-02
-8.3934671e-02
-9.0114703e-02
-9.1365272e-02
-8.5765766e-02
-7.6904960e-02
-7.4029011e-02
-8.0034965e-02
-6.7477703e-02
-1.1029690e-02
8.3252186e-02
1.6654427e-01
1.7179570e-01
8.9289243e-02
-2.0092519e-02
-8.7707632e-02
-8.3266782e-02
-1.1792894e-02
1.0196536e-01
2.1317198e-01
2.5959859e-01
1.9695547e-01
6.0926455e-02
-6.2830006e-02
-1.1872995e-01
-9.5870549e-02
-3.8470187e-02
-1.0477038e-02
-4.3207899e-02
-1.2232881e-01
-1.8205975e-01
-1.7208858e-01
-9.8448939e-02
2.7960654e-02
1.9296804e-01
3.2178197e-01
3.2371909e-01
1.9980569e-01
2.7847770e-02
-1.1818939e-01
-2.0695371e-01
-2.4215653e-01
-2.3785390e-01
-1.9302971e-01
-1.1270915e-01
-3.2676509e-02
4.3811710e-02
1.3332105e-01
1.9192604e-01
1.6761441e-01
7.8438392e-02
-1.2998275e-02
-5.7498359e-02
-3.7130257e-02
3.8225880e-02
1.0729422e-01
9.8880359e-02
3.1281187e-02
-3.5137955e-02
-9.2678128e-02
-1.4882475e-01
-1.7866696e-01
-1.6245446e-01
-9.6915285e-02
2.6458495e-02
1.5843807e-01
1.9751729e-01
1.4428311e-01
9.4425763e-02
8.9790817e-02
9.9601654e-02
8.1403031e-02
1.8563674e-02
-6.7800257e-02
-1.2712597e-01
-1.3152326e-01
-9.5284718e-02
-5.1178726e-02
-2.9831681e-02
-2.0596162e-02
6.7725393e-03
5.1965381e-02
1.0689785e-01
1.4174940e-01
1.1725097e-01
6.1242060e-02
4.6831119e-03
-5.8115245e-02
-1.0929578e-01
-1.2219050e-01
-9.6596552e-02
-3.9225535e-02
2.9607538e-02
6.5869490e-02
5.7304821e-02
2.3309620e-02
-2.2976395e-02
-6.3809032e-02
-8.4802520e-02
-8.7820932e-02
-8.2237060e-02
-7.6315940e-02
-7.0202563e-02
-5.7132312e-02
-2.5280742e-02
2.2914816e-02
4.0984950e-02
9.9959288e-03
-9.6520381e-03
1.5838801e-03
1.5289832e-02
4.8066891e-02
1.1809761e-01
1.8904834e-01
2.0378785e-01
1.5369709e-01
6.9327354e-02
-1.3338952e-02
-5.4626738e-02
-5.5007635e-02
-4.7694410e-02
-5.2720810e-02
-6.3030190e-02
-6.2112253e-02
-4.8068567e-02
-3.3658732e-02
-3.9802045e-02
-6.2245786e-02
-7.5001559e-02
-7.2840118e-02
-6.7953967e-02
-6.1313549e-02
-3.7003630e-02
1.7178105e-02
8.4268078e-02
1.2921033e-01
1.2208834e-01
8.2333211e-02
6.8446459e-02
8.2617503e-02
8.2164222e-02
4.6840720e-02
-7.1030041e-03
-5.4488918e-02
-7.7556246e-02
-7.0742864e-02
-5.2863321e-02
-4.1995967e-02
-3.4896047e-02
-2.0235198e-02
2.7267706e-03
2.2218739e-02
2.4328607e-02
9.8333738e-03
-1.4052816e-02
-4.0806178e-02
-5.5884058e-02
-6.0108301e-02
-6.6239049e-02
-6.6884705e-02
-4.3689854e-02
1.6703570e-02
1.0943364e-01
1.8713759e-01
1.8995799e-01
1.1926974e-01
2.8924618e-02
-4.0806623e-02
-8.3783278e-02
-1.0677699e-01
-1.1210221e-01
-1.0452184e-01
-8.5847290e-02
-4.9253724e-02
9.9460206e-03
6.9064508e-02
7.7324854e-02
2.9683428e-02
-2.6647523e-02
-6.3533571e-02
-6.8473050e-02
-3.6276651e-02
1.5519936e-02
7.1509356e-02
1.2459722e-01
1.4980445e-01
1.1681011e-01
4.1152215e-02
-2.9146943e-02
-7.5900836e-02
-9.7455928e-02
-9.5595032e-02
-8.3144502e-02
-6.1599420e-02
-2.3266489e-02
3.0279030e-02
8.9396008e-02
1.4313228e-01
1.6707607e-01
1.3759467e-01
7.2776399e-02
1.6604043e-02
-2.5725787e-02
-6.9798883e-02
-1.0139525e-01
-1.1337045e-01
-1.1794382e-01
-1.1381209e-01
-9.2788030e-02
-5.1490336e-02
3.8613294e-03
5.4501450e-02
7.1156650e-02
4.5398547e-02
7.6714687e-03
-2.2231975e-02
-4.9099200e-02
-6.9573800e-02
-6.9901097e-02
-4.3955522e-02
6.1630156e-03
5.0366505e-02
5.9767977e-02
6.0222437e-02
7.7753282e-02
9.6897545e-02
8.5270665e-02
3.8811385e-02
-1.0266581e-02
-3.9373626e-02
-4.3897441e-02
-1.8757483e-02
1.7760542e-02
2.2973411e-02
-9.8229013e-03
-4.7944475e-02
-6.4648066e-02
-6.5945603e-02
-7.0562037e-02
-7.2359243e-02
-5.5460294e-02
-1.1418224e-02
4.6970389e-02
8.9347146e-02
1.0876395e-01
1.1073087e-01
7.0100883e-02
-1.3350583e-02
-7.9753631e-02
-1.0056657e-01
-8.7459121e-02
-4.9709394e-02
-1.0347979e-02
1.8212495e-02
6.2906641e-02
1.2734493e-01
1.3839228e-01
7.2452438e-02
1.1761320e-02
-8.6669106e-03
-1.7167846e-02
-2.5022344e-02
-3.0582073e-02
-3.0971126e-02
-1.1153883e-02
2.3933153e-02
2.6873406e-02
-1.2068535e-02
-5.1380905e-02
-7.6306224e-02
-8.9829326e-02
-7.7091511e-02
-2.5702255e-02
5.5360141e-02
1.1477280e-01
1.0115664e-01
4.5215762e-02
1.4006025e-03
-2.4622610e-02
-4.3119919e-02
-5.5153620e-02
-6.9067818e-02
-8.9108232e-02
-9.5061437e-02
-8.3961981e-02
-6.9697449e-02
-5.7464888e-02
-3.8910564e-02
1.5569625e-02
1.2029390e-01
2.2240649e-01
2.3988177e-01
1.6665801e-01
6.1691548e-02
-3.0838371e-02
-1.0105119e-01
-1.4942742e-01
-1.6600052e-01
-1.3828531e-01
-7.2153907e-02
4.0034538e-03
5.5066985e-02
7.6381299e-02
9.6440775e-02
1.2450224e-01
1.3990867e-01
9.5026405e-02
-1.6617660e-02
-1.1663680e-01
-1.6072847e-01
-1.6772286e-01
-1.5146291e-01
-1.0314339e-01
-1.4124220e-02
1.0528775e-01
2.2871702e-01
2.8002000e-01
2.3001024e-01
1.6916934e-01
1.4298042e-01
1.1398310e-01
5.8781515e-02
-1.5463654e-02
-9.7531302e-02
-1.7162591e-01
-2.1974039e-01
-2.4085455e-01
-2.3546354e-01
-2.0840309e-01
-1.6953543e-01
-1.1924467e-01
-5.7366578e-02
1.2289574e-02
8.5463454e-02
1.6085679e-01
2.1147360e-01
1.7083733e-01
5.3627567e-02
-3.4996054e-02
-6.7986332e-02
-7.4176931e-02
-7.4460538e-02
-9.9952465e-02
-1.2680885e-01
-9.2386934e-02
1.2045863e-02
1.6742685e-01
3.0530338e-01
2.9303440e-01
1.2637478e-01
-5.9693823e-02
-1.7549875e-01
-2.0940575e-01
-1.7916890e-01
-1.2061708e-01
-6.2361693e-02
2.3745921e-02
1.3769427e-01
1.9401996e-01
1.5053978e-01
5.0033904e-02
-3.6551830e-02
-5.3170624e-02
4.5339623e-03
7.6866893e-02
9.8327010e-02
1.0312029e-01
1.2262775e-01
9.1669901e-02
-2.1183369e-03
-9.2585138e-02
-1.2995115e-01
-1.0106293e-01
-2.9985852e-02
1.6280011e-02
-2.9931812e-03
-3.4941908e-02
-4.5516316e-02
-6.4565643e-02
-8.3607805e-02
-7.3698641e-02
-2.5365714e-02
4.9784084e-02
1.1864736e-01
1.5388455e-01
1.2022598e-01
1.3389066e-02
-1.0302790e-01
-1.8234430e-01
-2.1781313e-01
-2.0006896e-01
-1.3035971e-01
-4.3179401e-02
2.5021180e-02
6.3766963e-02
7.6575938e-02
9.9723576e-02
1.4741380e-01
1.7755046e-01
1.5912127e-01
8.0674143e-02
-1.0709048e-02
-4.1306825e-02
-8.2144896e-03
4.1482355e-02
6.7650325e-02
4.4310929e-02
-2.8240568e-02
-1.0010805e-01
-1.3526312e-01
-1.3619813e-01
-1.0509639e-01
-5.2897700e-02
-2.5187353e-02
-4.2943350e-02
-5.0957491e-02
1.3998295e-02
1.1669351e-01
1.4781576e-01
1.0800374e-01
8.6673022e-02
1.1512004e-01
1.6981527e-01
1.6642656e-01
5.5285125e-02
-7.4323850e-02
-1.4747599e-01
-1.7310763e-01
-1.6889862e-01
-1.3977903e-01
-8.4550860e-02
-9.3500426e-03
5.6751781e-02
6.8598595e-02
3.1353224e-02
-7.6658211e-04
-8.3300231e-03
-1.9777737e-02
-3.9903218e-02
-3.2172425e-02
2.7401721e-02
1.2630044e-01
2.0776660e-01
1.9810780e-01
1.0212695e-01
-4.8497035e-04
-6.3933231e-02
-9.5144289e-02
-1.1462373e-01
-1.3195210e-01
-1.4441692e-01
-1.5039603e-01
-1.6571301e-01
-2.0380642e-01
-2.3847626e-01
-2.4692643e-01
-2.4026862e-01
-2.2470023e-01
-1.8369103e-01
-9.4936871e-02
5.7788625e-02
2.6628685e-01
4.7048332e-01
5.8902331e-01
6.1713588e-01
5.9200195e-01
4.5648018e-01
2.0921031e-01
-5.8145580e-03
-1.2394263e-01
-1.8226457e-01
-2.1775457e-01
-2.4731117e-01
-2.5756327e-01
-2.2846245e-01
-1.5392192e-01
-8.5498133e-02
-6.8106919e-02
-4.5920807e-02
3.8387696e-04
2.6570711e-02
2.7570930e-02
1.0970892e-02
-1.3211873e-02
-2.6850348e-02
-2.7468492e-02
-3.6741965e-02
-6.2446825e-02
-8.6034696e-02
-1.1150696e-01
-1.3888004e-01
-1.3501502e-01
-7.8709976e-02
3.2690335e-02
1.9720821e-01
3.4335059e-01
3.2790516e-01
1.5241334e-01
-2.3605740e-02
-1.3439393e-01
-2.0189389e-01
-2.2804457e-01
-2.0625334e-01
-1.2744368e-01
2.6928863e-03
1.3651068e-01
1.8310459e-01
1.2875776e-01
5.5328025e-02
-1.9078387e-02
-1.1305888e-01
-1.9643375e-01
-2.1693928e-01
-1.2768652e-01
7.3711568e-02
2.7728903e-01
3.2299518e-01
2.3434010e-01
1.7395429e-01
1.9418177e-01
2.4243528e-01
2.2906343e-01
1.1432416e-01
-3.1965833e-02
-1.4752798e-01
-2.2832696e-01
-2.7570886e-01
-2.8475226e-01
-2.6280109e-01
-2.3172946e-01
-2.1451813e-01
-2.0129830e-01
-1.4393307e-01
-1.7169141e-02
1.3853878e-01
2.5772838e-01
3.1196853e-01
3.0387529e-01
2.4185890e-01
1.4132607e-01
1.8515451e-02
-8.4156245e-02
-1.0116640e-01
-2.2823542e-02
7.4572522e-02
1.0526499e-01
8.1099306e-02
5.3732240e-02
2.0965896e-02
-1.3302603e-02
-2.7822531e-02
-2.2060969e-02
-8.4483251e-03
-1.0936666e-02
-4.8391590e-02
-1.0704128e-01
-1.5162027e-01
-1.6285591e-01
-1.4441955e-01
-1.0310120e-01
-4.7401709e-02
1.7756468e-02
9.0307453e-02
1.4014461e-01
1.2827509e-01
5.6682204e-02
-4.2444022e-02
-1.2848679e-01
-1.7813103e-01
-1.9704498e-01
-1.8363821e-01
-1.2376830e-01
-1.7584422e-02
1.0936674e-01
2.1061713e-01
2.4362140e-01
2.2748858e-01
2.1133750e-01
1.7983651e-01
1.0685165e-01
4.6596866e-03
-1.1366178e-01
-2.1834471e-01
-2.7467777e-01
-2.7063769e-01
-1.9957340e-01
-6.2149181e-02
7.0799565e-02
1.1316818e-01
9.7784442e-02
9.3697884e-02
1.1859846e-01
1.7303343e-01
2.1423833e-01
1.6867155e-01
4.2102910e-02
-8.9491285e-02
-1.6879104e-01
-1.7522261e-01
-1.1734707e-01
-1.8182757e-02
8.8673840e-02
1.4318417e-01
9.0203585e-02
-3.9144667e-02
-1.5439822e-01
-2.0148317e-01
-1.8446636e-01
-1.3818361e-01
-9.5523322e-02
-6.2146019e-02
-1.1976428e-02
6.3567340e-02
1.3278296e-01
1.9364509e-01
2.6541135e-01
2.6946160e-01
1.4861464e-01
6.9808807e-03
-7.4128637e-02
-1.0818460e-01
-1.1640054e-01
-1.0851996e-01
-8.9216842e-02
-7.6751701e-02
-7.7852090e-02
-5.9419330e-02
-2.4688745e-02
-1.6262503e-02
-3.9468817e-02
-9.2986223e-02
-1.7348390e-01
-2.5144661e-01
-2.8465098e-01
-2.3882819e-01
-9.2174768e-02
1.3365274e-01
3.6677227e-01
5.5576097e-01
6.5571039e-01
6.1088419e-01
4.1901493e-01
1.4377418e-01
-1.1417024e-01
-2.6437021e-01
-2.8316886e-01
-2.1463591e-01
-1.3910705e-01
-1.1285502e-01
-1.2908157e-01
-1.5446420e-01
-1.5505013e-01
-1.3269130e-01
-1.2356951e-01
-1.2482657e-01
-9.8822796e-02
-3.2089007e-02
5.7674721e-02
1.6017158e-01
2.6887427e-01
3.3954641e-01
3.2163120e-01
2.2302929e-01
9.2973482e-02
-1.0941589e-02
-5.8681136e-02
-8.9031906e-02
-1.4633727e-01
-2.0872841e-01
-2.3746611e-01
-2.2484994e-01
-1.8379481e-01
-1.3722577e-01
-1.0328884e-01
-7.3301540e-02
-2.2480080e-02
3.9664174e-02
9.5343221e-02
1.6092161e-01
2.3818764e-01
2.8719799e-01
2.6493464e-01
1.6491902e-01
3.0062205e-02
-7.0609268e-02
-1.0644071e-01
-1.0262328e-01
-1.0275107e-01
-1.2281256e-01
-1.3736726e-01
-1.2762489e-01
-9.1466536e-02
-3.6235438e-02
2.1310324e-02
7.5582856e-02
1.1473681e-01
1.1071421e-01
5.1999269e-02
-4.0635837e-02
-1.3302208e-01
-2.0106556e-01
-2.2711614e-01
-1.9671335e-01
-1.0414861e-01
3.6521538e-02
1.7055790e-01
2.0350538e-01
1.3371250e-01
8.6890429e-02
1.0819172e-01
1.4364245e-01
1.4810525e-01
1.1434612e-01
8.9450818e-02
9.2385568e-02
7.2200264e-02
4.6408467e-03
-6.4252825e-02
-8.4460160e-02
-7.0416117e-02
-6.4305372e-02
-7.1025249e-02
-7.7092863e-02
-6.8698800e-02
-4.4954993e-02
-1.8449573e-02
-8.8732073e-03
-3.2766982e-02
-6.6121396e-02
-8.0831114e-02
-7.3755570e-02
-4.8730281e-02
-1.1433371e-02
3.5393435e-02
9.0735897e-02
1.3551204e-01
1.3202217e-01
8.0614625e-02
2.2219441e-02
-1.1019802e-02
-1.1365150e-02
3.2324078e-03
4.4118104e-03
-1.4013599e-02
-3.5638412e-02
-5.0196614e-02
-5.8765508e-02
-6.4387047e-02
-7.0425437e-02
-7.1133261e-02
-5.2076034e-02
-1.0870818e-02
3.8199491e-02
7.2400778e-02
7.7373836e-02
5.6271157e-02
2.0020475e-02
-1.3944398e-02
-3.3489565e-02
-3.3934410e-02
-7.4029336e-03
3.6422020e-02
6.8236855e-02
7.3492570e-02
5.3456966e-02
1.3961502e-02
-2.8738961e-02
-6.4678040e-02
-9.1480167e-02
-9.6672510e-02
-7.0975575e-02
-2.5484704e-02
1.7494388e-02
4.8465434e-02
6.7425282e-02
7.3527766e-02
5.7925154e-02
1.8700440e-02
-1.2364329e-02
-1.2295008e-02
1.0461697e-02
3.4515148e-02
3.6545944e-02
1.3825271e-02
-1.8772432e-02
-5.0339960e-02
-7.4710826e-02
-9.5070030e-02
-1.2411597e-01
-1.5468941e-01
-1.6043752e-01
-1.2621052e-01
-5.7746233e-02
2.6567649e-02
9.4726543e-02
1.1873305e-01
9.9203751e-02
5.7557503e-02
2.5964192e-02
2.6701967e-02
6.4541880e-02
1.4095043e-01
2.2047158e-01
2.3668767e-01
1.7809163e-01
7.8430974e-02
-2.9925988e-02
-1.1682975e-01
-1.7030117e-01
-1.9409070e-01
-1.9477550e-01
-1.7516489e-01
-1.2772668e-01
-4.7443889e-02
5.3282380e-02
1.2402892e-01
1.0878068e-01
3.5620820e-02
-2.1931460e-02
-3.6716341e-02
-1.0535055e-02
4.7439996e-02
1.1212712e-01
1.4582870e-01
1.1587786e-01
4.4916404e-02
-1.5365918e-02
-5.3331271e-02
-7.3958132e-02
-7.0291636e-02
-3.2654502e-02
3.4451316e-02
9.1492803e-02
9.3226473e-02
4.6402990e-02
-7.0232712e-03
-4.2373542e-02
-6.1392609e-02
-7.4209395e-02
-8.7746243e-02
-1.0081533e-01
-1.0240225e-01
-8.9320252e-02
-7.2364646e-02
-5.6917435e-02
-4.3309570e-02
-4.4675575e-02
-5.8222673e-02
-4.8349392e-02
7.5659830e-03
1.0522343e-01
2.0750915e-01
2.5125106e-01
2.0542979e-01
9.9722253e-02
-7.1694981e-03
-7.3470085e-02
-9.3164429e-02
-8.0447053e-02
-4.9222949e-02
-2.2460546e-02
-2.2656113e-02
-3.8201944e-02
-4.1778969e-02
-2.4960261e-02
8.6936032e-03
5.0554743e-02
7.8093502e-02
7.0034576e-02
3.4254795e-02
-2.7366422e-03
-2.3905291e-02
-2.5866124e-02
-1.2234458e-02
6.8034235e-03
1.8927249e-02
1.5905335e-02
-5.9878049e-03
-3.4966411e-02
-4.8082273e-02
-3.5346441e-02
-4.1326657e-03
2.6486445e-02
3.9060377e-02
3.9535182e-02
4.3467874e-02
4.4022323e-02
3.0787720e-02
9.2329974e-03
-1.9544953e-02
-5.4885220e-02
-9.1188532e-02
-1.2079488e-01
-1.3016745e-01
-1.1548268e-01
-8.2775087e-02
-2.9288203e-02
4.4028831e-02
1.1903535e-01
1.7176626e-01
1.9260519e-01
1.9774491e-01
1.8130276e-01
1.3100392e-01
8.0196845e-02
4.8764242e-02
2.6291525e-02
