-3.9237628e-04
2.8539850e-02
6.9415160e-02
9.6391128e-02
7.1998607e-02
-1.0881560e-02
-8.5185606e-02
-8.5880259e-02
-2.6174919e-02
4.3316289e-02
7.2970179e-02
4.8949338e-02
5.2364946e-03
-2.3746531e-02
-1.4507659e-02
2.7566169e-02
5.7210754e-02
4.6436217e-02
2.7208576e-03
-4.9656570e-02
-8.5921306e-02
-9.4472341e-02
-7.6936991e-02
-5.0742368e-02
-3.7688278e-02
-4.2955418e-02
-5.3231107e-02
-4.7744873e-02
-3.0748624e-02
-3.5205592e-02
-7.4935607e-02
-1.2634969e-01
-1.5019838e-01
-1.1894411e-01
-3.5322698e-02
6.4914034e-02
1.2890389e-01
1.2320116e-01
5.2973272e-02
-5.0758733e-02
-1.5289151e-01
-2.2028335e-01
-2.2268959e-01
-1.5063882e-01
-1.3648683e-02
1.8106132e-01
3.9352665e-01
5.3393507e-01
5.1899322e-01
3.2043778e-01
2.4941938e-02
-2.2320537e-01
-3.6674641e-01
-4.1044928e-01
-3.5430273e-01
-2.2200319e-01
-7.0198758e-02
5.9757161e-02
1.5636594e-01
2.2249594e-01
2.8324758e-01
3.4124464e-01
3.7168264e-01
3.5492921e-01
2.6936365e-01
1.3350069e-01
-1.4776780e-04
-9.7937232e-02
-1.5905382e-01
-2.0837727e-01
-2.6306201e-01
-3.1885935e-01
-3.6204446e-01
-3.8174569e-01
-3.8128910e-01
-3.5998906e-01
-3.0040593e-01
-1.8935316e-01
-2.1251421e-02
2.0637533e-01
4.4622328e-01
6.0312299e-01
6.2870510e-01
5.3165372e-01
3.5582597e-01
1.6915562e-01
6.4920667e-03
-1.2430780e-01
-2.0697893e-01
-2.1686805e-01
-1.8001973e-01
-1.5967497e-01
-1.5913443e-01
-1.5300925e-01
-1.3122624e-01
-1.0152895e-01
-7.5704134e-02
-4.3707365e-02
-3.9280381e-03
1.7545139e-02
1.9664156e-03
-3.3538505e-02
-5.8236523e-02
-4.7734063e-02
1.6833724e-03
5.5423948e-02
7.4000215e-02
5.0671419e-02
4.7981508e-03
-2.3211528e-02
-7.4493274e-03
3.0349346e-02
6.5712522e-02
8.4376225e-02
7.4883374e-02
4.6723859e-02
1.7541257e-02
-3.5828584e-03
-2.8273053e-02
-7.7021045e-02
-1.3185094e-01
-1.4283200e-01
-8.8865620e-02
1.7565958e-02
1.3795024e-01
2.0180385e-01
1.6335536e-01
6.3193813e-02
-1.5447419e-02
-3.1472208e-02
-2.0647758e-02
-3.6092592e-02
-6.8996627e-02
-1.0055897e-01
-1.2059827e-01
-1.0457086e-01
-6.6682150e-02
-4.3946338e-02
-2.9333972e-02
1.0962625e-02
8.2407709e-02
1.6820920e-01
2.4903952e-01
2.8187332e-01
2.4143343e-01
1.5886628e-01
6.7971326e-02
-1.6339211e-02
-6.9874447e-02
-1.0304676e-01
-1.4604509e-01
-1.6419866e-01
-1.4158064e-01
-1.2097887e-01
-1.2289982e-01
-1.3209499e-01
-1.3475030e-01
-1.2533565e-01
-9.9255921e-02
-5.2823230e-02
1.8015227e-02
8.2650000e-02
7.4338574e-02
-1.9649920e-02
-1.2145307e-01
-1.5450462e-01
-1.0793334e-01
-4.4039079e-02
-3.7388441e-02
-6.0414937e-02
-1.8027125e-02
1.1313856e-01
2.5471720e-01
3.3654252e-01
3.4816106e-01
3.0826774e-01
2.5158839e-01
1.6566591e-01
3.2517816e-02
-9.6369173e-02
-1.6389387e-01
-1.4303833e-01
-5.5794386e-02
1.5910879e-02
1.2315735e-02
-4.3262718e-02
-9.5408599e-02
-1.1834446e-01
-1.1469339e-01
-9.8807058e-02
-8.3638584e-02
-7.2894092e-02
-5.8824907e-02
-3.8298473e-02
-1.7928483e-02
-5.5967642e-03
-7.3977718e-03
-1.9200937e-04
4.7662648e-02
1.4243841e-01
2.1593806e-01
1.6359487e-01
1.0314321e-02
-1.3994643e-01
-2.3438209e-01
-2.5281370e-01
-1.8572667e-01
-5.4738687e-02
8.3694756e-02
1.7872366e-01
2.1196155e-01
2.0572189e-01
1.9147262e-01
1.6551178e-01
1.0540794e-01
-2.1456938e-03
-1.2415715e-01
-1.9144124e-01
-1.6884978e-01
-6.3141151e-02
5.6163759e-02
1.0612394e-01
1.0377668e-01
9.8319119e-02
7.9900975e-02
2.6630422e-02
-4.0037089e-02
-8.5900437e-02
-9.3161380e-02
-5.9257418e-02
-2.6876072e-02
-3.7839461e-02
-5.4593932e-02
-2.2428466e-02
4.5530043e-02
7.5071946e-02
2.3537705e-02
-6.2606911e-02
-1.1334584e-01
-9.2841528e-02
-4.3103622e-02
-3.1376620e-02
-3.5810156e-02
-9.4968416e-03
3.1581425e-02
3.4327131e-02
-7.9257072e-03
-3.3991600e-02
-6.9279471e-03
2.8102136e-02
2.3985438e-02
8.9482951e-03
1.0621620e-02
2.1643533e-02
2.9206468e-02
3.0817089e-02
4.5154860e-02
7.6946240e-02
1.0683258e-01
9.1557315e-02
1.1834818e-02
-7.7090251e-02
-1.2333483e-01
-1.1426074e-01
-5.7602976e-02
1.4055199e-02
6.8156602e-02
8.2050722e-02
6.1354655e-02
5.6525035e-02
6.8691824e-02
4.7947635e-02
1.2680354e-03
-4.8678688e-02
-9.4046414e-02
-1.1215747e-01
-9.4208103e-02
-5.1718194e-02
-1.0635347e-02
-1.6113914e-02
-7.1825130e-02
-1.2066560e-01
-1.1979813e-01
-6.6838929e-02
1.8380070e-02
1.0188104e-01
1.4316670e-01
1.1720324e-01
4.9000696e-02
-7.1200685e-03
-1.9014820e-02
8.7131050e-03
3.7240181e-02
3.6747847e-02
2.0267395e-02
2.4194860e-02
7.2318836e-02
1.3707808e-01
1.6405892e-01
1.2385182e-01
3.6116963e-02
-3.8848750e-02
-7.1940521e-02
-7.6263954e-02
-6.8549257e-02
-6.7742823e-02
-8.1215547e-02
-1.0419729e-01
-1.3394208e-01
-1.6363772e-01
-1.8518963e-01
-1.8707835e-01
-1.4435925e-01
-4.3329861e-02
9.8546291e-02
2.2606379e-01
2.7698908e-01
2.3475548e-01
1.4062738e-01
7.7254903e-02
7.9045285e-02
1.0044735e-01
1.0261172e-01
7.4022563e-02
1.8988949e-02
-5.1097115e-02
-1.1948946e-01
-1.6320313e-01
-1.7686596e-01
-1.7711452e-01
-1.9756475e-01
-2.3343113e-01
-2.3229058e-01
-1.7469354e-01
-7.4206274e-02
5.1972391e-02
1.6484051e-01
2.2393237e-01
2.1448781e-01
1.5992434e-01
1.0393886e-01
6.9663501e-02
7.1768055e-02
1.0728833e-01
1.2955082e-01
1.0748889e-01
6.9157594e-02
4.7444297e-02
3.8871001e-02
1.7042881e-02
-2.2224575e-02
-6.0180648e-02
-8.8663904e-02
-1.0642083e-01
-1.1487001e-01
-1.1482337e-01
-1.0371975e-01
-8.4395912e-02
-6.4842656e-02
-4.6965352e-02
-3.3733178e-02
-3.4016063e-02
-4.5838107e-02
-5.4635922e-02
-4.0782188e-02
-5.6751194e-03
2.0531858e-02
2.3318461e-02
1.4403350e-02
1.0960564e-02
1.3767045e-02
2.4456651e-02
5.8242202e-02
9.4864058e-02
1.0450196e-01
7.6719551e-02
1.4906957e-02
-3.5281263e-02
-1.8378849e-02
8.0738731e-02
1.7141014e-01
1.4825371e-01
4.8688589e-02
-6.0819510e-02
-1.4054693e-01
-1.5646980e-01
-1.1323112e-01
-4.2467568e-02
9.7738218e-03
9.9376950e-03
-3.4880630e-02
-6.4416815e-02
-3.8475022e-02
2.4916333e-02
8.7599782e-02
1.1100336e-01
7.4529994e-02
-4.7961841e-03
-7.1456048e-02
-8.4947838e-02
-6.1667930e-02
-4.1714364e-02
-3.2755094e-02
-1.4341935e-02
2.9049532e-02
9.0436419e-02
1.3387540e-01
1.2045359e-01
5.1325799e-02
-3.1433627e-02
-8.7490000e-02
-9.3422270e-02
-4.9324506e-02
1.3923762e-03
1.8398843e-02
9.1194971e-04
-3.4158181e-02
-4.9555788e-02
-2.2653110e-02
2.5694784e-02
5.4624859e-02
3.8574653e-02
-5.3045933e-04
-2.6674595e-02
-2.8086657e-02
-1.5164720e-02
-1.0570203e-02
-1.5866896e-02
-6.1417225e-03
4.0180076e-02
1.0155083e-01
1.1898637e-01
7.6891431e-02
1.8662331e-03
-7.5074379e-02
-1.1971596e-01
-1.1896980e-01
-7.1164700e-02
1.9806563e-02
1.0583846e-01
1.3643059e-01
1.2114784e-01
9.5075575e-02
6.8507694e-02
2.3799751e-02
-4.3172446e-02
-1.0693523e-01
-1.4308789e-01
-1.4281057e-01
-1.0207860e-01
-4.9513438e-02
-4.0857715e-02
-7.3748892e-02
-1.0052787e-01
-1.0455870e-01
-9.3654266e-02
-5.6104266e-02
1.8527412e-02
1.0397898e-01
1.5588244e-01
1.5561647e-01
1.3895820e-01
1.4606276e-01
1.6562335e-01
1.4740550e-01
6.6452395e-02
-3.5746891e-02
-9.9506874e-02
-9.2071395e-02
-1.6191501e-02
6.3360110e-02
7.6160363e-02
3.6008157e-02
-1.3074432e-02
-5.2352662e-02
-6.6540687e-02
-4.3782025e-02
4.0259470e-03
3.6819731e-02
2.0328239e-02
-3.2524372e-02
-8.1352640e-02
-1.0660210e-01
-1.1428285e-01
-1.1333057e-01
-1.0359539e-01
-8.0990216e-02
-4.1055518e-02
1.7594521e-02
9.0574894e-02
1.4904990e-01
1.4856571e-01
9.3967892e-02
3.2426809e-02
-2.0121111e-03
-1.2583079e-03
2.0394134e-02
3.0365124e-02
5.8027992e-03
-1.4365829e-02
1.7983318e-03
1.7241572e-02
1.1886214e-02
-1.2575653e-02
-5.7670806e-02
-9.2437243e-02
-8.4330368e-02
-4.0431700e-02
6.3398672e-03
4.8351165e-03
-5.0462385e-02
-9.5290395e-02
-9.8980408e-02
-6.7010506e-02
1.6972563e-03
7.8521198e-02
1.1752974e-01
1.0196936e-01
5.0750170e-02
6.8399757e-03
4.9679465e-03
4.3906285e-02
8.3242418e-02
7.7553081e-02
3.1833557e-02
-7.0769746e-03
-7.2332758e-03
1.2717732e-02
1.2904305e-02
-3.5233849e-02
-1.2181266e-01
-1.7669161e-01
-1.5419171e-01
-7.4841479e-02
1.3996004e-02
5.8082410e-02
4.0317965e-02
-6.8784741e-03
-3.8549419e-02
-2.4254830e-02
1.2531939e-02
2.1728445e-02
1.1723015e-02
1.8772398e-02
6.5425702e-02
1.5776642e-01
2.4728662e-01
2.4510643e-01
1.4913318e-01
5.7856122e-02
1.3761650e-04
-7.4948644e-02
-1.7624768e-01
-2.5480025e-01
-2.6592026e-01
-1.8693047e-01
-5.2229792e-02
2.8214727e-02
1.5146203e-02
-4.5139717e-03
1.8983909e-02
3.4566122e-02
1.4131437e-02
-2.9268371e-03
1.9667847e-02
6.1623733e-02
6.6507655e-02
2.1924842e-02
-2.2386373e-02
8.7135662e-03
7.6062593e-02
5.2999952e-02
-3.9925422e-02
-1.0250726e-01
-8.3673663e-02
4.1245586e-03
6.2353381e-02
3.5390181e-02
-1.7630459e-03
4.5040641e-02
1.3203974e-01
1.2764810e-01
3.7190247e-02
-3.8163164e-02
-3.9508302e-02
2.0653902e-02
6.3794063e-02
4.5382131e-02
-6.6008602e-03
-3.4285423e-02
-3.4455510e-02
-5.8348535e-02
-1.0731186e-01
-1.5188488e-01
-1.8115817e-01
-1.9450502e-01
-1.9094433e-01
-1.4377575e-01
-4.1807794e-02
3.8058495e-02
5.2475816e-02
7.1001380e-02
1.3843195e-01
2.2732077e-01
2.7592167e-01
2.2984823e-01
9.9567978e-02
-3.5830466e-02
-9.4039758e-02
-4.3338027e-02
3.9168406e-02
4.1511633e-02
-1.6662119e-02
-6.5313551e-02
-8.7880161e-02
-8.5761640e-02
-4.9551842e-02
1.1619657e-02
5.5598081e-02
5.7962470e-02
4.1166972e-02
5.6046080e-02
1.0884648e-01
1.5037491e-01
1.3684188e-01
5.5501628e-02
-6.5159710e-02
-1.7743168e-01
-2.5301828e-01
-2.8300105e-01
-2.5458443e-01
-1.6151556e-01
-4.6416773e-02
3.4735201e-02
7.9585490e-02
1.2430483e-01
1.9522677e-01
2.7226252e-01
2.8627045e-01
1.7936985e-01
-9.8124223e-03
-1.7808698e-01
-2.6749010e-01
-2.7579502e-01
-2.4251107e-01
-2.2527811e-01
-2.3123072e-01
-2.2104601e-01
-1.5531393e-01
-1.1879876e-02
1.9848605e-01
4.3097997e-01
6.0992068e-01
6.3795598e-01
4.7699116e-01
1.9977328e-01
-7.3776962e-02
-2.5395410e-01
-3.2198784e-01
-2.9297805e-01
-1.9252583e-01
-7.0564718e-02
3.0645898e-02
7.6607318e-02
6.5477468e-02
4.8124324e-02
5.3076621e-02
6.4537073e-02
6.3717580e-02
3.4412870e-02
-2.2723277e-02
-8.1584115e-02
-1.1467504e-01
-1.1306042e-01
-8.0242180e-02
-4.1510017e-02
-3.9547681e-02
-7.2902098e-02
-1.0197104e-01
-9.8238250e-02
-6.3136385e-02
-2.2762761e-02
-3.5984205e-04
-1.1467988e-03
-1.5703489e-02
-2.4695967e-02
-6.8187660e-03
4.1710621e-02
9.2139273e-02
1.0368119e-01
6.3906392e-02
-4.6709297e-03
-5.5342570e-02
-5.1666489e-02
-1.3121091e-03
4.6674884e-02
2.9666610e-02
-6.9668922e-02
-1.9424171e-01
-2.7247074e-01
-2.6927686e-01
-1.9719730e-01
-1.3044883e-01
-1.4536901e-01
-2.0398658e-01
-1.6046173e-01
5.8844703e-02
3.6253116e-01
5.8785847e-01
6.5139636e-01
6.1881067e-01
5.6133923e-01
4.3360930e-01
2.0161270e-01
-4.1807632e-02
-1.5784182e-01
-1.1388297e-01
-1.7128208e-02
3.0153557e-02
4.8898707e-02
6.7262403e-02
1.0994390e-02
-1.3376627e-01
-2.7101367e-01
-3.4038796e-01
-3.3125941e-01
-2.5891522e-01
-1.5997277e-01
-6.7074413e-02
-1.1734907e-02
-2.2795804e-02
-8.1837386e-02
-1.2290898e-01
-1.0469691e-01
-4.1173233e-02
1.2747093e-02
1.6929004e-02
-8.3250183e-03
-2.7135278e-02
-4.3263316e-02
-5.3750960e-02
-8.4828741e-03
1.0622847e-01
1.9333974e-01
1.3647073e-01
-1.8679548e-02
-1.2069793e-01
-1.0493502e-01
-6.6252116e-03
7.6138853e-02
8.7013269e-02
1.0428841e-01
1.6779678e-01
2.0452297e-01
1.5662069e-01
3.6431813e-02
-8.7016782e-02
-1.5020412e-01
-1.4279194e-01
-1.1771694e-01
-1.1270932e-01
-8.1386867e-02
1.0639098e-02
1.1874751e-01
1.7381776e-01
1.2917416e-01
9.0977258e-03
-9.6279653e-02
-1.3905925e-01
-1.4094876e-01
-1.4580870e-01
-1.8944777e-01
-2.4895732e-01
-2.4717992e-01
-1.3859265e-01
4.8288198e-02
2.4385160e-01
3.7693541e-01
3.8311959e-01
2.6307297e-01
1.1048369e-01
1.8708688e-02
1.2732700e-02
4.9626218e-02
6.0912793e-02
2.4081254e-03
-9.5102861e-02
-1.5194139e-01
-1.3260963e-01
-7.6199036e-02
-3.3308182e-02
6.9495727e-03
5.7492695e-02
8.5118645e-02
6.6604800e-02
1.5253399e-02
-3.5767393e-02
-6.1051598e-02
-5.1143502e-02
-3.2026125e-02
-3.3872791e-02
-2.0919030e-02
3.9623288e-02
1.1279169e-01
1.0910871e-01
-9.7294443e-03
-1.4117124e-01
-1.7119110e-01
-9.2331397e-02
7.4068069e-04
1.6903422e-03
-7.0630015e-02
-1.0166374e-01
-2.2441063e-02
1.3554665e-01
2.4341829e-01
1.9927727e-01
5.3499065e-02
-6.0528573e-02
-3.0625984e-02
9.1195799e-02
1.0676757e-01
-4.2014938e-02
-2.2806409e-01
-3.1841965e-01
-2.5486518e-01
-8.8477872e-02
5.4361325e-02
1.1390187e-01
1.4661266e-01
2.0306815e-01
2.3789089e-01
1.8042384e-01
2.4951088e-02
-1.4216342e-01
-1.8532607e-01
-5.5617080e-02
1.4080625e-01
2.4396786e-01
1.7744148e-01
2.7810628e-02
-3.2377002e-02
3.0059273e-02
9.2939803e-02
5.3945686e-02
-6.9342045e-02
-1.7677479e-01
-1.9874761e-01
-1.3226709e-01
-6.9357838e-02
-8.0040284e-02
-1.0112876e-01
-9.8755978e-02
-8.8306648e-02
-6.1634370e-02
-3.0742079e-02
-1.5443779e-02
-2.4655959e-02
-5.1605168e-02
-4.6915323e-02
1.2617234e-02
8.1743176e-02
1.2536759e-01
1.3343524e-01
1.1482817e-01
9.7923799e-02
9.4939586e-02
1.0482955e-01
1.0392641e-01
5.9121905e-02
-1.4608951e-02
-8.1870904e-02
-1.3075536e-01
-1.5245341e-01
-1.6290558e-01
-1.7721693e-01
-1.5063832e-01
-6.8210683e-02
1.0661521e-02
6.7781449e-02
1.1678343e-01
1.3133788e-01
1.1125503e-01
7.3414111e-02
1.8506539e-02
-3.1349400e-02
-3.0594828e-02
5.7119022e-02
1.9605549e-01
2.6499650e-01
2.1336905e-01
1.3214561e-01
8.8611277e-02
4.7241569e-02
-4.2102608e-02
-1.5600192e-01
-2.2775894e-01
-2.2655595e-01
-1.8568210e-01
-1.5707400e-01
-1.2884676e-01
-6.0896541e-02
6.9861993e-03
-1.0432514e-02
-1.0781024e-01
-1.9796739e-01
-2.1409242e-01
-1.3782516e-01
5.7465383e-03
1.4543410e-01
2.0929812e-01
1.9172999e-01
1.2117317e-01
3.2386698e-02
-2.0258048e-02
-1.3635987e-02
8.8421052e-03
-8.7240394e-03
-5.5053925e-02
-6.1388698e-02
5.1922006e-03
9.3732492e-02
1.4676595e-01
1.7812645e-01
1.8942683e-01
1.4715247e-01
8.0554335e-02
3.4076298e-02
3.5391868e-03
-2.0860809e-02
-3.3439858e-02
-2.5569491e-02
8.5127274e-04
1.9067204e-02
3.6853702e-03
-3.8931288e-02
-8.7270407e-02
-1.2354699e-01
-1.3651808e-01
-1.3355058e-01
-1.4018749e-01
-1.5153735e-01
-1.3909097e-01
-9.8208267e-02
-3.1051304e-02
4.9060572e-02
1.0141231e-01
1.0869925e-01
9.2660772e-02
8.4466739e-02
7.3565063e-02
1.6708895e-02
-5.7606756e-02
-8.1295532e-02
-4.1921325e-02
3.2400610e-02
9.8533344e-02
1.2866729e-01
1.1431031e-01
7.6179544e-02
6.7589749e-02
9.8127965e-02
1.3970010e-01
1.4658004e-01
6.8576029e-02
-6.8057647e-02
-1.8449862e-01
-2.3666548e-01
-2.1636518e-01
-1.4818648e-01
-8.8368327e-02
-6.7560543e-02
-6.6767152e-02
-5.5946336e-02
-2.2572687e-02
3.6832368e-02
1.1364432e-01
1.6760467e-01
1.5223214e-01
8.2516142e-02
3.4293851e-02
5.9198108e-02
1.2946632e-01
1.7226606e-01
1.4457705e-01
6.4868567e-02
-1.7326708e-02
-7.7957336e-02
-1.1502600e-01
-1.3636668e-01
-1.5246965e-01
-1.5095611e-01
-1.2766357e-01
-9.8488835e-02
-7.5987372e-02
-6.3767751e-02
-5.6292829e-02
-4.5061332e-02
-3.0610560e-02
-2.4484507e-02
-3.4711042e-02
-5.0161075e-02
-4.8719523e-02
-2.4798397e-02
8.4391433e-03
4.4309380e-02
8.9504213e-02
1.4135172e-01
1.8947285e-01
2.2077115e-01
2.1483289e-01
1.7649746e-01
1.3189808e-01
9.0757404e-02
3.8873571e-02
-3.0800439e-02
-1.0553871e-01
-1.7496928e-01
-2.1060458e-01
-1.8015551e-01
-1.3392143e-01
-1.5033779e-01
-2.0583243e-01
-2.3695697e-01
-2.1495277e-01
-1.1905358e-01
3.9933966e-02
1.9213617e-01
2.5962415e-01
2.1197420e-01
9.8888296e-02
1.8884296e-02
1.6273945e-02
6.1348327e-02
1.1475614e-01
1.3946767e-01
1.1652530e-01
7.6460874e-02
5.2740307e-02
6.4382828e-02
9.6749703e-02
8.6744121e-02
4.5468521e-03
-1.0071880e-01
-1.7325783e-01
-1.9676867e-01
-1.6610932e-01
-9.5522704e-02
-1.9157209e-02
2.7483982e-02
1.7052852e-02
-2.6249843e-02
-3.9194050e-02
6.8618138e-03
9.1078184e-02
1.5743812e-01
1.4828130e-01
6.8156591e-02
-1.8331195e-02
-6.5958546e-02
-6.4426753e-02
-8.9699346e-04
1.1269812e-01
1.9944755e-01
1.7607691e-01
5.6308901e-02
-6.8694887e-02
-1.3146461e-01
-1.3322911e-01
-1.3192306e-01
-1.5668201e-01
-1.5683661e-01
-9.9802438e-02
-2.3002667e-02
1.6070312e-02
-5.1060885e-03
-4.8955076e-02
-7.5201465e-02
-8.5941446e-02
-1.0001602e-01
-1.0355061e-01
-5.1178397e-02
5.1694299e-02
1.3494320e-01
1.4426741e-01
9.2594331e-02
4.6373834e-02
4.4372268e-02
5.8677215e-02
4.0231618e-02
-1.4086847e-02
-4.0168413e-02
5.1698536e-03
7.6849162e-02
9.3909976e-02
5.3533814e-02
1.1072540e-02
-1.5786170e-03
2.3727938e-02
4.0740073e-02
2.4014478e-02
4.1307535e-02
9.5238808e-02
8.5999184e-02
-1.0156748e-02
-1.1409851e-01
-1.6144542e-01
-1.5502862e-01
-1.3034161e-01
-1.0746509e-01
-8.1465359e-02
-3.9636569e-02
7.1078832e-03
1.7774194e-02
-1.7770225e-02
-4.7012527e-02
-1.9859152e-02
5.2283312e-02
9.9327915e-02
6.7049816e-02
3.3118455e-03
-1.0956427e-03
5.7229589e-02
1.3246236e-01
1.6613989e-01
1.1189317e-01
3.0961657e-02
-1.4384796e-02
-4.0711161e-02
-5.2096174e-02
-4.9261473e-02
-6.0378383e-02
-8.2386397e-02
-7.6121530e-02
-1.1404453e-02
9.4365020e-02
1.5573341e-01
1.0835017e-01
-4.7196341e-03
-1.0016423e-01
-1.4086340e-01
-1.2833775e-01
-8.2664193e-02
-5.1172614e-02
-6.2975612e-02
-9.0223215e-02
-9.5859245e-02
-5.7398804e-02
1.9411805e-02
7.2940983e-02
6.4075466e-02
3.3607149e-02
2.2202205e-02
3.4916698e-02
6.9248607e-02
9.4874169e-02
6.8987880e-02
8.0185185e-03
-3.3611709e-02
-1.5551597e-02
3.4951896e-02
3.3985750e-02
-2.8643383e-02
-9.1526974e-02
-1.0795411e-01
-6.3064356e-02
1.8621279e-02
9.4426148e-02
1.2401691e-01
9.4980497e-02
5.3738042e-02
5.6144194e-02
9.3848561e-02
1.0490928e-01
5.9617576e-02
-6.3466899e-03
-5.3276579e-02
-7.3302426e-02
-6.3016853e-02
-6.0511987e-02
-1.1144503e-01
-1.7204959e-01
-1.9111886e-01
-1.7839077e-01
-1.6614013e-01
-1.6530200e-01
-1.6468551e-01
-1.4187860e-01
-6.3844182e-02
4.4077652e-02
1.4108551e-01
2.2180255e-01
2.6697499e-01
2.9198552e-01
3.4095313e-01
4.0157472e-01
4.1912243e-01
3.6448922e-01
2.5579582e-01
1.2507241e-01
1.0057429e-03
-9.7450222e-02
-1.8625737e-01
-2.7185211e-01
-3.2183915e-01
-3.1916196e-01
-2.7903053e-01
-2.0975907e-01
-1.2107917e-01
-5.0235630e-02
-2.5028631e-02
-3.1890978e-02
-3.3625169e-02
-6.7256389e-03
3.1742653e-02
5.0583667e-02
5.3845407e-02
6.2099577e-02
8.9065864e-02
1.3276967e-01
1.4836042e-01
8.9016871e-02
-1.5482093e-02
-9.7454542e-02
-1.4372601e-01
-1.5160334e-01
-9.5079244e-02
-4.3477287e-03
4.4651538e-02
3.0319851e-02
1.9158071e-04
-6.9377641e-03
1.9581587e-02
7.1951968e-02
1.1207084e-01
1.1101447e-01
8.0033740e-02
4.8972233e-02
2.5864441e-02
-1.4909403e-02
-7.8514882e-02
-1.3691741e-01
-1.7476898e-01
-1.8242097e-01
-1.6122250e-01
-1.2862293e-01
-7.9649082e-02
9.5284384e-03
1.3858625e-01
2.3253563e-01
2.1443724e-01
1.1528310e-01
-5.5013764e-03
-1.1633247e-01
-1.8033809e-01
-1.7973689e-01
-1.2059110e-01
-2.1350025e-02
6.9127246e-02
8.9246231e-02
3.9347744e-02
-1.5313612e-02
-3.0104996e-02
7.3597715e-03
7.9843598e-02
1.3360195e-01
1.3196997e-01
8.4838405e-02
3.2779675e-02
8.7289566e-03
1.0152794e-03
-1.5261268e-02
-3.5945735e-02
-5.0630890e-02
-4.9878542e-02
-2.0533688e-02
3.5416129e-02
1.0251888e-01
1.4358441e-01
1.0951061e-01
1.1278447e-02
-8.1359108e-02
-1.1545040e-01
-8.6219892e-02
-4.2662671e-02
-3.6882614e-02
-6.6132867e-02
-1.0529164e-01
-1.3144846e-01
-1.2139986e-01
-8.1827811e-02
-3.8791152e-02
1.7095073e-02
1.0391693e-01
2.0512440e-01
2.9181634e-01
3.1545121e-01
2.3577303e-01
1.1023532e-01
3.3236676e-02
-1.3882870e-02
-8.2828704e-02
-1.3316421e-01
-1.2380991e-01
-8.5034815e-02
-6.4622400e-02
-8.9511211e-02
-1.4832891e-01
-1.8186108e-01
-1.5577641e-01
-1.0271260e-01
-5.9106116e-02
-2.1052156e-02
2.5138640e-02
6.2565704e-02
5.6102385e-02
1.0595205e-02
-2.5993434e-02
-2.3038050e-02
1.2623506e-02
4.3001002e-02
5.0966365e-02
7.8069495e-02
1.4050934e-01
1.7979561e-01
1.3600581e-01
2.4463032e-02
-8.2852647e-02
-1.3317359e-01
-1.3207311e-01
-1.1815732e-01
-9.9136375e-02
-5.2712332e-02
2.9702341e-02
1.3205716e-01
2.0559249e-01
1.9468744e-01
1.1134707e-01
2.9042075e-02
-2.5905348e-03
-1.6891225e-02
-7.0699556e-02
-1.3948276e-01
-1.6741158e-01
-1.3969155e-01
-7.7520182e-02
-1.7944492e-02
2.9444425e-02
8.2786845e-02
1.4542340e-01
1.8369112e-01
1.6271860e-01
1.0281012e-01
4.0594893e-02
-1.7906721e-02
-7.2843806e-02
-1.1886730e-01
-1.4496139e-01
-1.4173479e-01
-1.1322928e-01
-6.3305544e-02
2.4565087e-03
6.2384374e-02
8.3499044e-02
4.5884202e-02
-2.6835680e-02
-8.5477879e-02
-1.0156159e-01
-8.3098310e-02
-5.7678907e-02
-3.4431177e-02
-3.5925455e-03
3.2926985e-02
4.9640435e-02
3.0018597e-02
-1.9454507e-03
-2.2371037e-02
-2.5063199e-02
-1.5892202e-02
-1.3549061e-02
-7.7437530e-03
2.6558946e-02
7.7856921e-02
1.0441438e-01
9.0628343e-02
7.9321909e-02
8.9135070e-02
7.9255886e-02
3.4759624e-02
-3.1129612e-03
-3.1547282e-03
2.3090355e-02
5.9477054e-02
8.6777971e-02
7.4724894e-02
1.9849541e-02
-5.1823720e-02
-1.0687134e-01
-1.2613554e-01
-1.3563144e-01
-1.5818402e-01
-1.6483978e-01
-1.2281622e-01
-4.3122904e-02
2.8262574e-02
7.4342533e-02
1.2306073e-01
1.9002581e-01
2.4235203e-01
2.0698883e-01
9.0129045e-02
-3.1800716e-03
-3.0594896e-02
-2.4529279e-02
-3.1455599e-02
-7.8285789e-02
-1.3380535e-01
-1.6191062e-01
-1.5571593e-01
-1.2564309e-01
-9.1717598e-02
-5.7245373e-02
-1.4890454e-02
3.2222093e-02
5.6701332e-02
3.5184363e-02
-3.4592740e-04
-8.4443089e-03
1.5605798e-02
5.4559334e-02
5.6111501e-02
-1.3425096e-03
-5.1202417e-02
-4.2146913e-02
1.2517679e-02
6.6883506e-02
7.3610912e-02
4.0692204e-02
1.4522345e-02
1.5355545e-02
2.4793755e-02
1.6802704e-02
-5.7669336e-03
-2.4515700e-02
-3.0313523e-02
-3.4242971e-02
-4.8079688e-02
-4.8421349e-02
-2.2329571e-02
4.4565887e-03
2.8738271e-02
6.7304022e-02
9.9286175e-02
8.0210626e-02
7.3236940e-03
-6.6657917e-02
-9.7282471e-02
-8.4811648e-02
-7.3667429e-02
-9.4128049e-02
-1.0513809e-01
-7.8327546e-02
-3.5011399e-02
1.1781466e-02
7.2378700e-02
1.7493947e-01
3.1785935e-01
4.0398068e-01
3.4197057e-01
1.9189945e-01
6.3351661e-02
-1.3836895e-02
-6.9570100e-02
-1.3743563e-01
-2.0851290e-01
-2.4422388e-01
-2.2264916e-01
-1.6537031e-01
-1.1749939e-01
-1.0682733e-01
-1.2576830e-01
-1.3892682e-01
-1.2390609e-01
-8.4551897e-02
-3.1711573e-02
3.0520723e-02
1.0159330e-01
1.5298708e-01
1.5728937e-01
1.3140056e-01
1.0263086e-01
7.0647281e-02
1.4140438e-02
-6.5012274e-02
-1.3610312e-01
-1.5497330e-01
-1.0425888e-01
-5.5257993e-03
1.2021057e-01
2.1509348e-01
2.2570433e-01
1.7035889e-01
7.9004756e-02
-2.5370515e-02
-1.0642104e-01
-1.3955951e-01
-1.1719127e-01
-4.1852174e-02
4.7129618e-02
8.9083390e-02
7.1891727e-02
3.3092719e-02
6.4622029e-03
1.9514333e-03
7.8761826e-03
5.3637698e-03
-1.4153420e-02
-4.3008480e-02
-6.1713194e-02
-5.1474924e-02
-1.5906742e-02
2.2138003e-02
4.5966434e-02
5.5553830e-02
4.5269288e-02
2.0891416e-02
2.5272864e-02
5.8321374e-02
6.8006603e-02
4.3548792e-02
-4.0464137e-03
-7.3231235e-02
-1.2678054e-01
-1.3330849e-01
-1.0255205e-01
-6.3375832e-02
-5.2274257e-02
-7.9355602e-02
-1.1410350e-01
-1.1356938e-01
-7.0422635e-02
-9.9407417e-03
5.1616213e-02
1.1119638e-01
1.5775231e-01
1.5164029e-01
7.6153886e-02
-2.3710410e-02
-9.4115577e-02
-9.4365572e-02
-5.9033355e-02
-5.5298414e-02
-4.6188893e-02
2.4320466e-02
1.2505434e-01
1.6972605e-01
1.1400108e-01
5.3017318e-03
-7.2899894e-02
-7.7824780e-02
-5.8162133e-02
-6.4160058e-02
-4.7539571e-02
5.0940432e-02
2.0020374e-01
2.7985116e-01
2.0349786e-01
3.8689584e-02
-8.1533707e-02
-9.4569973e-02
-6.1665869e-02
-7.2501777e-02
-1.0645978e-01
-1.1066244e-01
-7.9583567e-02
-3.3276287e-02
-1.8501406e-03
1.2454542e-02
4.0826490e-02
1.0660427e-01
1.6426678e-01
1.5105019e-01
9.2858540e-02
4.2008414e-02
2.0269223e-03
-4.0504474e-02
-8.1685429e-02
-1.1392355e-01
-1.3693229e-01
-1.5608734e-01
-1.7159232e-01
-1.6041143e-01
-1.0266099e-01
-7.2081608e-03
6.6179007e-02
6.0285547e-02
1.2146797e-02
-1.8714097e-02
-1.1395376e-02
2.6460000e-02
5.4266058e-02
4.3159423e-02
-7.8553925e-03
-8.0801696e-02
-1.3697263e-01
-1.3784522e-01
-7.0702621e-02
3.0088280e-02
9.8736246e-02
1.1436999e-01
1.2488666e-01
1.4882760e-01
1.4278409e-01
8.2594425e-02
3.8905216e-03
-1.1524530e-02
8.3195893e-02
2.2577738e-01
2.8901657e-01
2.1221502e-01
6.6943506e-02
-5.7162455e-02
-1.4322960e-01
-1.9725965e-01
-2.1331159e-01
-1.8898481e-01
-1.3168454e-01
-6.6733027e-02
-2.7926173e-02
-1.7882171e-02
-1.2785915e-02
-9.1632080e-03
-2.2737610e-02
-4.9634985e-02
-6.5665273e-02
-5.0341919e-02
1.2349850e-03
7.0192619e-02
1.1269734e-01
1.0777855e-01
6.9784825e-02
3.1311538e-03
-7.1029183e-02
-1.0621515e-01
-7.6226053e-02
8.4419546e-03
1.1434520e-01
1.9228752e-01
2.0340928e-01
1.7289683e-01
1.1398213e-01
-3.8283429e-03
-1.4702856e-01
-2.4527087e-01
-2.6599630e-01
-2.1586443e-01
-1.2810813e-01
-3.7764183e-02
4.5545322e-02
1.4131186e-01
2.0136426e-01
1.5042710e-01
5.0559144e-02
-1.7316693e-03
-3.2629603e-03
4.5696945e-03
-1.0248684e-02
-4.7624816e-02
-7.0357258e-02
-4.6839474e-02
-2.0395061e-02
-4.5779975e-02
-8.2587731e-02
-6.5973337e-02
-9.9776826e-04
6.0004702e-02
8.0757403e-02
7.5237524e-02
7.5731532e-02
1.1127787e-01
1.4249754e-01
9.5034083e-02
1.0489534e-02
-4.4044071e-02
-6.2522078e-02
-5.2497624e-02
-4.7310134e-02
-7.5747697e-02
-1.1692638e-01
-1.3909866e-01
-1.5086571e-01
-1.7115257e-01
-1.8162076e-01
-1.5997937e-01
-1.0588173e-01
-2.4979081e-02
7.5917291e-02
1.8268539e-01
2.8163723e-01
3.3396183e-01
2.8664703e-01
1.6465427e-01
4.2697051e-02
-3.5823136e-02
-6.0198984e-02
-4.6582127e-02
-3.5097640e-02
-4.6339217e-02
-6.5023284e-02
-5.3423936e-02
-4.1653125e-03
3.7736639e-02
4.2686987e-02
5.7014668e-03
-5.7795447e-02
-1.0824533e-01
-1.0842213e-01
-4.9962224e-02
2.3718020e-02
4.6400278e-02
8.3351035e-03
-5.6153681e-02
-1.4042986e-01
-2.2367574e-01
-2.5345629e-01
-1.9639425e-01
-4.0837674e-02
1.6404611e-01
3.2228312e-01
3.9404659e-01
3.9284809e-01
3.1003294e-01
1.5070647e-01
-1.4283030e-02
-1.1554350e-01
-1.3737052e-01
-1.1607484e-01
-1.0545643e-01
-1.1996594e-01
-1.1951023e-01
-9.9330996e-02
-1.0754663e-01
-1.2510388e-01
-9.1556995e-02
-2.5924191e-03
8.7981406e-02
1.0177056e-01
5.1162557e-02
5.0096571e-02
9.7387597e-02
1.0438157e-01
6.4524227e-02
6.8906815e-03
-4.3442455e-02
-6.2682692e-02
-4.5378140e-02
-3.9132625e-03
3.3889279e-02
3.7562563e-02
1.7308459e-02
1.3104013e-02
3.2291335e-02
5.6201689e-02
6.9818735e-02
7.5373262e-02
6.0598531e-02
1.6710032e-03
-7.6997306e-02
-1.2927458e-01
-1.3719344e-01
-1.3741549e-01
-1.6675125e-01
-1.9311300e-01
-1.6815155e-01
-7.7421288e-02
3.9515167e-02
1.0382462e-01
8.9636541e-02
3.9496169e-02
1.3118513e-02
3.5760389e-02
7.9140987e-02
1.1360990e-01
1.2061484e-01
8.5919182e-02
2.0760214e-02
-2.7673032e-02
-1.9184093e-02
4.2212689e-02
1.1925400e-01
1.4208263e-01
7.2252895e-02
-3.1361188e-02
-9.4528243e-02
-8.6360636e-02
-1.1252797e-02
7.5767675e-02
9.5043426e-02
3.0900243e-02
-5.5112830e-02
-1.0836871e-01
-1.0715517e-01
-5.8533007e-02
-9.0352178e-03
-1.5232802e-02
-6.5670630e-02
-9.2672232e-02
-6.2500280e-02
1.0112336e-02
8.8952252e-02
1.4220808e-01
1.5168823e-01
1.0980652e-01
3.3831538e-02
-3.7379242e-02
-6.5020721e-02
-3.4023990e-02
1.8184364e-02
3.7483139e-02
1.3927666e-02
-2.4453449e-02
-3.3446891e-02
-2.5224314e-03
2.8276285e-02
1.3360154e-03
-1.0368957e-01
-2.1520307e-01
-2.5326320e-01
-2.0328350e-01
-1.0113866e-01
-3.2093792e-04
7.0774977e-02
8.8980138e-02
3.5506617e-02
-5.2389422e-02
-1.0521068e-01
-8.6837481e-02
-9.7662919e-03
5.9939129e-02
6.5032491e-02
4.8097956e-02
8.2848855e-02
1.5291422e-01
1.8119328e-01
1.4650066e-01
1.0964742e-01
1.2822313e-01
1.7302565e-01
1.4735708e-01
4.0435039e-02
-4.1000972e-02
-4.7335226e-02
-2.7713176e-02
-3.9953533e-02
-8.4047290e-02
-1.1114615e-01
-9.8596676e-02
-6.9998981e-02
-5.1083194e-02
-3.1487795e-02
-9.5924619e-03
-8.2465848e-03
-3.1274527e-02
-6.6589897e-02
-9.0794813e-02
-8.0166700e-02
-3.1244047e-02
3.8748528e-02
1.1668430e-01
2.0291155e-01
2.3199000e-01
1.3922764e-01
8.8550763e-03
-4.5742100e-02
-5.8507480e-03
4.4048700e-02
3.6706804e-03
-9.9892511e-02
-1.6040240e-01
-1.1579346e-01
-3.0138142e-02
-1.9413881e-02
-7.7247385e-02
-1.2811607e-01
-1.4137555e-01
-1.1710197e-01
-6.8730675e-02
-1.3063115e-02
4.9096321e-02
1.3736223e-01
1.9906623e-01
1.4327462e-01
2.1530733e-02
-6.2141691e-02
-7.6690522e-02
-5.7827507e-02
-7.1845001e-02
-1.1601686e-01
-1.2590991e-01
-5.8515437e-02
3.4443173e-02
6.6218229e-02
6.7033232e-02
1.1997846e-01
2.2284782e-01
2.9105179e-01
2.3929410e-01
9.2365965e-02
-2.0071722e-02
-1.4530020e-02
2.9241558e-02
-1.0434745e-02
-9.9426200e-02
-1.5179488e-01
-1.5049115e-01
-1.1263976e-01
-7.3976758e-02
-5.1453028e-02
-3.4153370e-02
-1.3821165e-02
-1.8546914e-02
-6.9783033e-02
-1.1483488e-01
-1.0226599e-01
-3.2762639e-02
7.0265407e-02
1.6820839e-01
2.2994439e-01
2.3301839e-01
1.6611026e-01
7.4899772e-02
2.5337884e-02
2.6915799e-02
3.6853482e-02
4.7767933e-06
-8.3104941e-02
-1.5405910e-01
-1.7317285e-01
-1.4987102e-01
-1.2828577e-01
-1.2742766e-01
-1.1187941e-01
-6.0498986e-02
-7.6624361e-03
1.2143315e-02
1.2985232e-02
1.7098743e-02
2.8955544e-02
4.2460675e-02
2.2050099e-02
-3.5550068e-02
-6.1028966e-02
-2.4480743e-02
2.0638082e-02
1.3142713e-02
-3.7910127e-02
-6.0974546e-02
-2.7891821e-02
2.9637795e-02
6.6497337e-02
8.3253877e-02
1.5239693e-01
2.7012855e-01
3.1862673e-01
2.3476377e-01
8.8412321e-02
-1.4493640e-02
-4.2701201e-02
-2.9136624e-02
-3.8770225e-02
-9.9392820e-02
-1.6257072e-01
-1.9857853e-01
-2.1548065e-01
-2.0325200e-01
-1.4396274e-01
-6.4299831e-02
-1.3188384e-02
-1.4195862e-03
-1.8844309e-02
-3.5098826e-02
-1.5631981e-03
8.4181404e-02
1.7905215e-01
2.5700072e-01
3.0178079e-01
2.7503408e-01
1.6458154e-01
3.1065047e-02
-5.2892690e-02
-7.8799261e-02
-1.0793650e-01
-1.9005078e-01
-2.8765513e-01
-3.3370542e-01
-2.8914998e-01
-1.6270731e-01
-5.5576938e-03
1.4076920e-01
2.2085796e-01
1.7975548e-01
4.5966360e-02
-9.3680553e-02
-1.7437359e-01
-1.7593155e-01
-1.0358867e-01
2.0047734e-02
1.4548698e-01
2.0396771e-01
1.6483394e-01
7.5776157e-02
1.1367084e-02
7.5992459e-03
5.6204155e-02
1.0895573e-01
1.1109193e-01
7.0304745e-02
4.1359753e-02
4.6741612e-02
7.7293385e-02
9.7938774e-02
6.2530435e-02
-7.8434064e-03
-6.3828257e-02
-9.0420674e-02
-8.9630106e-02
-7.2556721e-02
-5.2342150e-02
-3.9899154e-02
-3.9664988e-02
-5.0928818e-02
-6.8415655e-02
-8.4047283e-02
-9.9375169e-02
-1.1645249e-01
-1.3206003e-01
-1.3286872e-01
-1.0441643e-01
-6.2093538e-02
-2.6430765e-02
1.8022209e-02
1.0822486e-01
2.5218238e-01
3.8772295e-01
4.2592171e-01
3.4323496e-01
2.0050058e-01
6.6518248e-02
-2.7333947e-02
-8.7064882e-02
-1.5440043e-01
-2.2813880e-01
-2.5497778e-01
-2.0884680e-01
-1.2073207e-01
-7.5402878e-02
-1.0752253e-01
-1.5046014e-01
-1.4631391e-01
-1.0542023e-01
-5.5044901e-02
1.1110183e-02
1.0377224e-01
2.0686138e-01
2.5981458e-01
2.0368438e-01
7.4923771e-02
-3.9302328e-02
-9.9295597e-02
-1.2914374e-01
-1.4460917e-01
-1.1608335e-01
-2.9363773e-02
9.7094266e-02
1.9140980e-01
1.7777340e-01
9.8620214e-02
4.3331422e-02
3.1571073e-02
1.2979410e-02
-3.4707196e-02
-5.4578104e-02
-2.5686664e-02
1.0736334e-03
-1.3143927e-02
-5.6555176e-02
-8.9234987e-02
-8.3220830e-02
-4.9030280e-02
-2.4592690e-02
-1.6664127e-02
6.2872731e-03
5.6652191e-02
1.0255998e-01
9.2341725e-02
3.3298693e-02
-1.4728595e-02
-1.8690786e-02
1.3246394e-02
3.7325458e-02
3.0774172e-02
1.7816066e-02
7.1305695e-03
-3.1388059e-02
-1.0322626e-01
-1.5683549e-01
-1.5464107e-01
-1.0753650e-01
-4.3378644e-02
3.2278846e-03
3.4095010e-02
8.9461881e-02
1.3065953e-01
6.6045353e-02
-7.9676216e-02
-1.8555736e-01
-1.8109230e-01
-7.8410850e-02
6.3433921e-02
1.8209472e-01
2.4384751e-01
2.4170570e-01
1.7331705e-01
5.6188051e-02
-6.0132710e-02
-1.3441572e-01
-1.5879563e-01
-1.5878831e-01
-1.3302791e-01
-3.1581283e-02
1.0992338e-01
1.5993239e-01
9.3215509e-02
1.1834709e-02
-6.7488316e-04
4.9827086e-02
8.7490625e-02
5.6539650e-02
-1.4489713e-02
-5.3608366e-02
-4.5454968e-02
-4.4453043e-02
-8.6607935e-02
-1.5103144e-01
-1.9156153e-01
-1.6876081e-01
-6.7848513e-02
8.0694176e-02
2.0769872e-01
2.4241616e-01
1.6906802e-01
5.4541488e-02
-2.3408090e-02
-4.7048902e-02
-4.4664182e-02
-4.6030574e-02
-6.3456845e-02
-7.7327462e-02
-5.2249544e-02
1.7142878e-02
7.5414886e-02
5.2957852e-02
-3.1904314e-02
-9.9899203e-02
-1.0151639e-01
-3.2295242e-02
5.6088393e-02
1.0977957e-01
1.3337263e-01
1.3445027e-01
1.1223243e-01
8.3430964e-02
5.8580391e-02
3.1988015e-02
-2.4864569e-02
-1.0903149e-01
-1.4960156e-01
-1.2906505e-01
-1.0267211e-01
-9.3371389e-02
-8.3579213e-02
-5.4905275e-02
1.2957338e-02
9.8639760e-02
1.3284182e-01
9.5168406e-02
3.4735913e-02
1.3980530e-02
4.1581438e-02
6.0674232e-02
4.6175675e-02
3.3551754e-02
2.1269961e-02
-1.8135469e-02
-7.7055619e-02
-1.3683180e-01
-1.7328498e-01
-1.5249932e-01
-7.7123311e-02
3.2151017e-02
1.3079169e-01
1.4466782e-01
9.0412026e-02
4.3277725e-02
3.8780658e-02
5.8390885e-02
5.1819292e-02
4.5227001e-03
-4.9569237e-02
-6.5160505e-02
-6.0022033e-02
-7.9242004e-02
-9.4200763e-02
-6.1665670e-02
5.0530817e-03
5.9052646e-02
7.5565456e-02
6.5947135e-02
5.0858047e-02
4.0495526e-02
3.0064069e-02
2.5183517e-02
4.2752962e-02
6.5757642e-02
4.4150241e-02
-3.2479480e-02
-1.1181394e-01
-1.4641347e-01
-1.4038922e-01
-1.3932074e-01
-1.5671925e-01
-1.4991130e-01
-1.0298808e-01
-3.5894438e-02
3.3576135e-02
8.4297407e-02
1.0024853e-01
9.2793195e-02
9.3482686e-02
1.4348918e-01
2.0793275e-01
1.7906637e-01
7.5782532e-02
8.3587946e-03
1.2210684e-02
3.8159670e-02
2.3990690e-02
-3.5100310e-02
-9.9633775e-02
-1.1572222e-01
-8.4331976e-02
-5.9963643e-02
-4.9115427e-02
-2.3918378e-02
8.8568363e-03
1.5518986e-02
-1.1330180e-02
-4.9020380e-02
-7.3103294e-02
-7.0560495e-02
-4.6337491e-02
-8.2521539e-03
5.2836077e-02
1.2629533e-01
1.5646280e-01
1.1488050e-01
3.7362287e-02
-2.3398325e-02
-4.3595909e-02
-4.2282501e-02
-3.6624308e-02
-1.7104466e-02
1.9018455e-02
5.1811093e-02
5.4222875e-02
2.9845965e-02
3.8836731e-03
-1.1616365e-02
-1.7933641e-02
-4.1490953e-02
-8.8169107e-02
-1.0614593e-01
-7.6321706e-02
-3.7990041e-02
-3.3842817e-02
-7.5549388e-02
-1.1709040e-01
-1.0068980e-01
-2.1162381e-02
6.6850890e-02
1.1947387e-01
1.6123381e-01
2.1740683e-01
2.4829508e-01
1.9072934e-01
5.3409672e-02
-8.7430498e-02
-1.7994781e-01
-2.2139948e-01
-2.3205981e-01
-2.2573256e-01
-1.8314123e-01
-8.4041697e-02
2.7185671e-02
7.7220067e-02
6.9283683e-02
7.1097443e-02
1.2853329e-01
2.2032940e-01
2.3917456e-01
1.5141351e-01
7.2968459e-02
5.4082613e-02
2.4851968e-02
-5.8548764e-02
-1.4803587e-01
-1.8509829e-01
-1.6011923e-01
-8.7016596e-02
1.2288991e-02
7.6917250e-02
3.9911098e-02
-6.5436805e-02
-1.5598851e-01
-1.8438730e-01
-1.2785153e-01
-7.0693755e-03
1.1395922e-01
2.0274617e-01
2.9509786e-01
3.7715552e-01
3.5059846e-01
1.9626826e-01
-6.4851975e-03
-1.6709008e-01
-2.2870131e-01
-1.9791398e-01
-1.4368784e-01
-1.2213293e-01
-1.0615089e-01
-7.4087454e-02
-7.7444294e-02
-1.4355478e-01
-2.2026861e-01
-2.3867941e-01
-1.5361272e-01
1.8120521e-02
1.9397449e-01
3.0966566e-01
3.3237386e-01
2.7276423e-01
1.9365212e-01
1.1051920e-01
6.0571371e-03
-9.7743135e-02
-1.7278923e-01
-2.0882604e-01
-2.0343142e-01
-1.6610263e-01
-1.1235378e-01
-5.2048390e-02
1.7674248e-03
4.4203414e-02
9.5926720e-02
1.7950528e-01
2.6721137e-01
2.7878522e-01
1.7856877e-01
2.8473381e-02
-8.6163417e-02
-1.5311319e-01
-2.0402029e-01
-2.3768569e-01
-2.3720610e-01
-1.9404653e-01
-9.1924418e-02
7.7852579e-02
2.6211763e-01
3.6528617e-01
3.4647035e-01
2.4225727e-01
1.0147919e-01
-2.2433697e-02
-8.4465152e-02
-8.7490078e-02
-7.2403430e-02
-8.0272315e-02
-1.1024036e-01
-1.2298158e-01
-9.3322630e-02
-6.4137971e-02
-7.1602052e-02
-6.8593616e-02
-1.2013888e-02
7.0606511e-02
9.9971382e-02
3.9927299e-02
-3.9219031e-02
-5.3030751e-02
-1.4680153e-02
-9.9367147e-03
-5.5666725e-02
-7.6481128e-02
-2.4485288e-02
5.4214042e-02
7.6626411e-02
3.2932872e-02
-1.6211355e-02
-2.4605750e-02
-7.1512733e-03
-1.2606866e-02
-3.1438059e-02
-6.6310077e-03
6.9122668e-02
1.4034079e-01
1.4791308e-01
9.3743269e-02
4.5079087e-02
4.0798169e-02
5.1600298e-02
2.0676106e-02
-7.5082737e-02
-1.7058935e-01
-2.0734526e-01
-1.9225356e-01
-1.4967519e-01
-1.0395156e-01
-6.2419696e-02
-2.3590977e-02
4.8915188e-04
-1.5766265e-03
-9.9285030e-03
4.9159125e-03
4.0071871e-02
7.6209262e-02
1.1509129e-01
1.6042404e-01
1.7914980e-01
1.4279220e-01
5.6931478e-02
-3.7038661e-02
-6.4178165e-02
-1.0065042e-02
4.8985554e-02
2.7939626e-02
-6.7420683e-02
-1.3798804e-01
-1.0961853e-01
-4.2891062e-03
6.4454955e-02
3.7842709e-02
-6.4296138e-03
-7.8145555e-03
2.8731929e-02
7.0047010e-02
7.5912705e-02
3.8461011e-02
-2.7049209e-02
-7.8458505e-02
-7.5078157e-02
-5.5290631e-02
-8.4365861e-02
-1.5021370e-01
-1.9506435e-01
-1.7393992e-01
-7.8222373e-02
6.5611633e-02
2.0465642e-01
2.7552580e-01
2.2494235e-01
5.7123405e-02
-1.2904105e-01
-2.5685133e-01
-3.0566272e-01
-2.5779726e-01
-1.1272847e-01
1.1344664e-01
3.2501361e-01
3.8915123e-01
3.3324728e-01
2.5803932e-01
1.4828446e-01
-5.4597962e-03
-1.4655308e-01
-2.2523932e-01
-2.0259931e-01
-8.8471082e-02
5.2150755e-02
1.4631674e-01
1.4406166e-01
7.7998060e-02
3.1382572e-02
2.9823680e-02
5.5766084e-02
8.4362775e-02
6.8740735e-02
-1.1550571e-02
-1.1889681e-01
-2.0122793e-01
-2.1279986e-01
-1.5341673e-01
-7.2017500e-02
-1.5032328e-02
-1.6376912e-03
-9.1152460e-03
1.1441617e-02
6.9361532e-02
1.1703494e-01
1.3337251e-01
1.3824415e-01
9.5359622e-02
-1.7443107e-02
-1.2060651e-01
-1.6145045e-01
-1.4061671e-01
-7.8871593e-02
-4.3134746e-02
-8.4005266e-02
-1.6646084e-01
-2.0253350e-01
-1.5079296e-01
-5.5280020e-02
3.1504109e-02
1.1247999e-01
1.7568285e-01
1.7862035e-01
1.3944284e-01
9.7684857e-02
6.2255576e-02
5.9171914e-02
1.0059715e-01
1.3526206e-01
1.3028698e-01
9.5902698e-02
3.8446871e-02
-2.2634181e-02
-6.1042245e-02
-7.2299665e-02
-8.5781286e-02
-1.3701213e-01
-2.0815449e-01
-2.4217286e-01
-2.1289611e-01
-1.2955787e-01
-8.8533979e-03
1.2010928e-01
1.9742607e-01
1.7893803e-01
1.2444540e-01
1.2257494e-01
1.6444405e-01
1.7972066e-01
1.2348037e-01
1.3461898e-02
-9.2524193e-02
-1.4403761e-01
-1.4239400e-01
-1.1777365e-01
-7.2401577e-02
5.4070835e-03
8.0228826e-02
8.7311439e-02
3.5350983e-02
-2.1936594e-02
-5.0850954e-02
-3.7268926e-02
-1.5456078e-02
-3.6407669e-02
-8.5400445e-02
-1.0931306e-01
-9.3121060e-02
-3.6754481e-02
5.5131959e-02
1.3199928e-01
1.0879165e-01
-3.4681589e-02
-1.9827682e-01
-2.8620912e-01
-2.7770295e-01
-1.7135003e-01
-1.4275165e-02
9.1999822e-02
1.1159898e-01
9.0400230e-02
8.1010978e-02
1.3057675e-01
2.3393975e-01
3.0015245e-01
2.7308538e-01
2.1693280e-01
1.7344877e-01
8.3051332e-02
-7.2037054e-02
-2.1629575e-01
-2.8048384e-01
-2.5159452e-01
-1.6136970e-01
-7.6292591e-02
-2.2336392e-02
1.7572201e-02
4.1364154e-02
6.9454759e-02
1.0430448e-01
1.1530216e-01
9.4424780e-02
3.4787343e-02
-4.6344362e-02
-9.7904050e-02
-9.7411594e-02
-6.9827734e-02
-4.2227759e-02
-2.5699896e-02
-2.7821599e-02
-5.0899576e-02
-8.4392122e-02
-1.0149082e-01
-7.2365596e-02
1.7293301e-02
1.5452893e-01
2.8861627e-01
3.3704859e-01
2.7618479e-01
1.5730103e-01
2.4457129e-02
-1.0520458e-01
-2.0095473e-01
-2.0286795e-01
-1.1223945e-01
-9.1350863e-03
4.0213785e-02
3.0378306e-02
-1.9801106e-03
-1.2129894e-02
1.0280894e-02
1.7208142e-02
-4.0890318e-02
-1.3818510e-01
-2.0756773e-01
-2.1549344e-01
-1.7455932e-01
-1.2583972e-01
-7.9431498e-02
-3.3188446e-03
1.1144792e-01
2.0298562e-01
1.8848814e-01
9.7049198e-02
4.6272230e-02
7.6035844e-02
1.0425155e-01
7.7985535e-02
6.1811935e-02
1.0928988e-01
1.8303936e-01
1.9151676e-01
9.2180596e-02
-4.2216246e-02
-1.2644781e-01
-1.4697321e-01
-1.3501764e-01
-1.2064767e-01
-1.0508055e-01
-7.9906093e-02
-5.7729345e-02
-5.5751519e-02
-6.2243819e-02
-5.3692412e-02
-2.9942385e-02
-3.7370604e-03
-8.8506558e-04
-5.0935636e-02
-1.2707851e-01
-1.5834609e-01
-1.1830968e-01
-2.9142209e-02
1.0154249e-01
2.5752909e-01
3.6830679e-01
3.5984413e-01
2.3763228e-01
9.4061323e-02
7.7875032e-03
-3.1917785e-02
-7.6115895e-02
-1.3547890e-01
-1.7824692e-01
-1.7592721e-01
-1.2628737e-01
-5.6352840e-02
-2.0234754e-02
-2.8893355e-02
-1.9787275e-02
4.5473722e-03
-2.2896675e-02
-9.0200371e-02
-1.2281108e-01
-8.2129217e-02
3.6691276e-03
8.3486742e-02
9.3087984e-02
1.8565224e-02
-5.4468465e-02
-6.8962144e-02
-2.4795912e-02
7.1584216e-02
1.8565629e-01
2.4056600e-01
1.9256037e-01
9.5264426e-02
8.6859564e-03
-5.8665471e-02
-9.9664543e-02
-1.0225147e-01
-7.6192199e-02
-4.1138255e-02
-1.1260307e-02
9.9243372e-03
3.2263793e-02
6.0496778e-02
7.1229900e-02
4.2491317e-02
-1.1163257e-02
-6.2613169e-02
-9.5382233e-02
-1.1221969e-01
-1.2645991e-01
-1.3409048e-01
-1.2038245e-01
-8.5755055e-02
-3.6461079e-02
4.8712934e-03
1.4158121e-02
1.9769174e-02
5.6867435e-02
1.2116367e-01
1.7316615e-01
1.6147136e-01
8.4937041e-02
3.6727342e-04
-3.8694860e-02
-3.6856331e-02
-1.7397563e-02
3.2735673e-02
1.0697999e-01
1.6204373e-01
1.5731175e-01
9.2936904e-02
1.7454858e-02
-2.3762949e-02
-4.0210042e-02
-7.2564957e-02
-1.0532047e-01
-1.0885280e-01
-8.0465465e-02
-1.6599874e-02
4.2536403e-02
3.0417893e-02
-4.0565980e-02
-9.5176667e-02
-9.0084008e-02
-6.4240610e-02
-8.4104952e-02
-1.1702398e-01
-9.9849891e-02
-4.3123227e-02
1.0197088e-02
2.2784672e-02
-5.9820492e-03
-3.6853705e-02
-3.8081579e-02
-8.1482422e-03
4.6957322e-02
1.2531464e-01
2.1892701e-01
2.7416075e-01
2.3326651e-01
1.3469116e-01
4.2228921e-02
-2.9833493e-02
-7.8965760e-02
-1.1124788e-01
-1.4012882e-01
-1.6651680e-01
-1.9235290e-01
-2.1388672e-01
-2.0361163e-01
-1.3758607e-01
-3.1475431e-02
5.6917643e-02
8.3616683e-02
7.8528448e-02
1.0773725e-01
1.8972474e-01
2.9087093e-01
3.4143978e-01
2.9548953e-01
2.1027652e-01
1.4585714e-01
1.0182322e-01
3.7048955e-02
-8.9508802e-02
-2.2078993e-01
-2.8011713e-01
-2.5364060e-01
-1.8550789e-01
-1.5599215e-01
-1.7330217e-01
-1.7506055e-01
-1.2568888e-01
-3.4673586e-02
4.0600204e-02
6.3056416e-02
7.5978352e-02
1.1446484e-01
1.4419466e-01
1.2196603e-01
5.8639316e-02
-1.2947166e-02
-6.5765393e-02
-9.3513791e-02
-1.0584492e-01
-9.3675060e-02
-3.9504905e-02
4.6479905e-02
1.2606826e-01
1.5417734e-01
1.0621011e-01
1.9195370e-02
-4.7304203e-02
-5.8961031e-02
-2.0862900e-02
2.1103030e-02
2.8619493e-02
-4.3998037e-03
-6.0670654e-02
-1.0582391e-01
-1.1687202e-01
-1.0362604e-01
-7.1068750e-02
-6.2857669e-03
7.3467388e-02
8.7219392e-02
-9.6515404e-03
-1.3813246e-01
-2.0250194e-01
-1.6138199e-01
-2.0418661e-02
1.6934849e-01
3.4541866e-01
4.4685539e-01
4.1603950e-01
2.6232111e-01
6.3735208e-02
-1.1273961e-01
-2.2682056e-01
-2.6574454e-01
-2.4100737e-01
-1.6797296e-01
-6.6145334e-02
3.7904882e-02
1.0088632e-01
1.0250329e-01
8.7509192e-02
6.9683886e-02
9.0155944e-03
-8.4015582e-02
-1.6806691e-01
-2.1599980e-01
-2.0295898e-01
-1.2285221e-01
-1.3483743e-02
7.5269032e-02
1.1874872e-01
1.1167841e-01
4.5686277e-02
-6.0379440e-02
-1.2727627e-01
-1.1289143e-01
-4.5807301e-02
3.6515054e-02
