-1.1710079e-01
9.9064794e-01
1.5686569e+00
1.2787704e+00
2.6529367e-01
-9.3704239e-01
-1.8384734e+00
-2.2350232e+00
-2.1404981e+00
-1.6499367e+00
-9.3539107e-01
-2.1175757e-01
3.8265532e-01
8.1261560e-01
1.0822676e+00
1.1726054e+00
1.0715187e+00
8.1024700e-01
3.9596526e-01
-1.6383474e-01
-7.2324195e-01
-1.0352992e+00
-9.5909615e-01
-5.4400879e-01
5.9920974e-02
6.9647704e-01
1.1785565e+00
1.2758671e+00
8.9494124e-01
2.1500038e-01
-4.6409833e-01
-9.4011586e-01
-1.1405526e+00
-1.0726228e+00
-8.4552770e-01
-6.4408468e-01
-5.6858435e-01
-5.5878245e-01
-5.0243512e-01
-3.3334770e-01
-6.3284295e-02
1.7326602e-01
1.5647844e-01
-1.5723770e-01
-4.1291113e-01
-8.8589621e-02
1.0933141e+00
2.9655607e+00
4.7838101e+00
5.4128572e+00
4.1354509e+00
1.3883584e+00
-1.5327119e+00
-3.5404969e+00
-4.2966724e+00
-3.9669263e+00
-2.9048061e+00
-1.5436023e+00
-3.1453087e-01
5.4795537e-01
1.0160403e+00
1.0946552e+00
7.9482631e-01
1.8001767e-01
-5.6860331e-01
-1.1775974e+00
-1.4678864e+00
-1.4251937e+00
-1.1123531e+00
-6.0283661e-01
3.6481196e-02
7.6999810e-01
1.5134717e+00
2.0228404e+00
2.0231074e+00
1.4983632e+00
7.9125083e-01
2.9033222e-01
9.5701473e-02
7.6975236e-02
9.5222347e-02
5.4453095e-02
-1.4634695e-01
-5.4710582e-01
-1.0443325e+00
-1.4418109e+00
-1.5771206e+00
-1.3899001e+00
-9.2275996e-01
-3.0484022e-01
3.0964252e-01
7.9740235e-01
1.0562510e+00
9.9497134e-01
5.9272534e-01
-8.5005761e-03
-5.0596837e-01
-6.1629664e-01
-2.7802721e-01
2.9639609e-01
7.4945568e-01
8.1892344e-01
4.7942183e-01
-6.8287264e-02
-5.2770667e-01
-7.0809563e-01
-6.2461256e-01
-4.3167954e-01
-2.5036905e-01
-5.9768498e-02
2.2339040e-01
5.9247976e-01
8.9623263e-01
8.9712992e-01
3.9838177e-01
-5.2106583e-01
-1.3941763e+00
-1.6900078e+00
-1.1853714e+00
-1.3834637e-02
1.3809663e+00
2.3374815e+00
2.3032723e+00
1.3302485e+00
1.2863283e-01
-5.3647199e-01
-4.0594525e-01
1.0418927e-01
4.4232171e-01
4.6705357e-01
1.1662000e-01
-6.1258688e-01
-1.4200291e+00
-1.9768147e+00
-2.1565519e+00
-2.0050213e+00
-1.5925538e+00
-9.2434153e-01
-4.8399648e-02
8.9136491e-01
1.6951401e+00
2.1125495e+00
1.9143878e+00
1.0873128e+00
3.5283768e-02
-6.1414657e-01
-4.7112292e-01
4.4950404e-01
1.7096019e+00
2.5136255e+00
2.1511023e+00
6.3517364e-01
-1.1967541e+00
-2.4114314e+00
-2.6120789e+00
-1.8820941e+00
-5.6571164e-01
7.3864270e-01
1.3392577e+00
9.8437500e-01
5.3965366e-02
-8.8872445e-01
-1.4802207e+00
-1.6064938e+00
-1.3559652e+00
-9.4913953e-01
-6.2359851e-01
-4.5315445e-01
-2.8041122e-01
8.7493763e-02
6.4073414e-01
1.1143680e+00
1.2624152e+00
1.1903275e+00
1.2296720e+00
1.5429888e+00
1.9573123e+00
2.1272677e+00
1.8296153e+00
1.1060351e+00
1.0036075e-01
-1.0529756e+00
-2.0958404e+00
-2.7023095e+00
-2.6911539e+00
-2.0967547e+00
-1.1157248e+00
-2.7304460e-02
8.1780168e-01
1.1014609e+00
7.6814285e-01
9.2018266e-02
-4.9061018e-01
-6.6145001e-01
-3.8410043e-01
1.4648043e-01
6.6762924e-01
9.9172667e-01
1.0131670e+00
7.2011443e-01
2.4781522e-01
-1.9138284e-01
-4.6328751e-01
-5.7467080e-01
-5.7970503e-01
-4.9458993e-01
-3.5713659e-01
-2.6448430e-01
-2.4879382e-01
-2.2834184e-01
-1.4083759e-01
-2.3023040e-02
5.8443056e-02
9.8091140e-02
1.0417898e-01
3.9517236e-02
-5.4394533e-02
2.0495014e-02
4.3033357e-01
1.0567951e+00
1.5516630e+00
1.6774304e+00
1.4966002e+00
1.2222767e+00
9.4628653e-01
5.7195573e-01
-4.1046711e-02
-9.0881385e-01
-1.8378273e+00
-2.4881085e+00
-2.5704822e+00
-2.0333775e+00
-1.0697250e+00
-4.8736914e-02
6.1050675e-01
7.0965247e-01
4.2965387e-01
1.3675246e-01
6.0232615e-02
1.2095928e-01
1.7065681e-02
-4.1596037e-01
-1.0190021e+00
-1.4891509e+00
-1.5343866e+00
-9.6438898e-01
2.3306621e-01
1.8518921e+00
3.3485895e+00
3.9195587e+00
3.0312542e+00
9.5074596e-01
-1.3340089e+00
-2.7898094e+00
-2.9196136e+00
-1.8479550e+00
-1.0351405e-01
1.7052024e+00
2.9575241e+00
3.0793176e+00
1.9686747e+00
1.7033321e-01
-1.5012874e+00
-2.5064065e+00
-2.7170400e+00
-2.2106607e+00
-1.2139253e+00
-1.0411601e-01
7.2599486e-01
1.0659314e+00
9.4542051e-01
5.3590515e-01
5.5806515e-02
-3.2443579e-01
-5.7871611e-01
-7.5749473e-01
-8.1056355e-01
-5.8826259e-01
-1.9445517e-02
7.5706979e-01
1.4154041e+00
1.6322073e+00
1.2958680e+00
5.7294404e-01
-1.9639153e-01
-7.1961716e-01
-9.1048476e-01
-8.7460458e-01
-7.3926235e-01
-5.1916562e-01
-1.9214412e-01
1.9607303e-01
5.4211914e-01
7.3436255e-01
6.8943814e-01
4.0965847e-01
2.6203477e-02
-2.9298455e-01
-4.8494036e-01
-5.8789876e-01
-6.1879957e-01
-5.3354810e-01
-3.2475713e-01
-7.3019209e-02
1.3625487e-01
2.9380663e-01
4.3466397e-01
5.5476288e-01
6.1117092e-01
5.6956535e-01
3.8731685e-01
4.8593707e-02
-3.1659820e-01
-4.9956937e-01
-4.3227971e-01
-2.3882742e-01
-7.6813241e-02
-5.4439945e-04
-1.6123698e-02
-1.2593301e-01
-2.5214109e-01
-2.5345501e-01
-6.1946339e-02
2.3515359e-01
4.7280866e-01
5.4691335e-01
4.4107589e-01
1.9506693e-01
-8.6019798e-02
-2.7448460e-01
-3.2338039e-01
-2.9089593e-01
-2.3849246e-01
-1.6195663e-01
-6.2225886e-02
1.2138146e-02
3.2298706e-02
1.5129974e-02
-4.8354781e-02
-1.9789140e-01
-3.7974379e-01
-4.2558821e-01
-2.0241281e-01
2.6254740e-01
7.7805514e-01
1.0825072e+00
9.7115598e-01
4.4711708e-01
-2.1339762e-01
-6.6225411e-01
-7.4215632e-01
-5.4305922e-01
-2.6157237e-01
-2.9108611e-02
9.9189845e-02
1.0742654e-01
5.1671893e-02
3.0391470e-02
8.1729461e-02
1.4273545e-01
1.3537369e-01
4.9429977e-02
-1.0315174e-01
-3.1598143e-01
-5.1408330e-01
-5.6144183e-01
-3.9651293e-01
-1.0562189e-01
1.8077564e-01
4.0020933e-01
5.1008505e-01
4.5916505e-01
3.0160641e-01
1.9648276e-01
2.1470512e-01
2.4362990e-01
1.3285476e-01
-1.5319701e-01
-5.7308112e-01
-1.0000549e+00
-1.1404102e+00
-6.9154075e-01
2.8032011e-01
1.2137972e+00
1.7461125e+00
2.0265494e+00
1.9874960e+00
1.3822484e+00
3.3142492e-01
-7.8223618e-01
-1.6226805e+00
-2.0513453e+00
-2.0650609e+00
-1.7007291e+00
-1.0761581e+00
-3.9144014e-01
1.7330245e-01
5.3707830e-01
7.1444825e-01
7.6118544e-01
7.4914259e-01
7.2173764e-01
6.3075804e-01
3.9685741e-01
6.8346999e-02
-1.8775523e-01
-2.9257230e-01
-3.3460996e-01
-4.0423159e-01
-4.6397613e-01
-4.4458884e-01
-3.3779219e-01
-1.4794977e-01
1.3174011e-01
4.4973065e-01
6.6692922e-01
6.6981786e-01
4.7455281e-01
1.6687013e-01
-1.8051188e-01
-4.7483480e-01
-6.0472305e-01
-5.4834170e-01
-4.0628242e-01
-2.7829675e-01
-1.6360772e-01
-2.9547362e-02
1.1321224e-01
2.6137793e-01
4.4214320e-01
6.2981673e-01
7.1121280e-01
5.9520790e-01
3.0348369e-01
-9.5568355e-02
-5.2771807e-01
-8.4468382e-01
-8.6559693e-01
-5.3985463e-01
-2.1267693e-02
4.4803449e-01
7.2011132e-01
7.7155045e-01
6.2836161e-01
3.3385148e-01
-4.7731269e-02
-4.4972226e-01
-8.0475291e-01
-9.8854041e-01
-8.5883444e-01
-3.8972519e-01
2.6794410e-01
8.3779515e-01
1.0566672e+00
8.0670324e-01
1.9669462e-01
-4.5630798e-01
-8.2540500e-01
-7.7309512e-01
-3.8947701e-01
1.1291221e-01
5.3699623e-01
7.3587701e-01
6.4914580e-01
3.6924729e-01
5.5839801e-02
-2.2298374e-01
-4.8510526e-01
-6.8083228e-01
-6.6394156e-01
-3.6439114e-01
9.1136173e-02
4.6225258e-01
5.7271822e-01
3.8886525e-01
1.1391069e-02
-3.5532389e-01
-5.2204857e-01
-4.4085850e-01
-2.1033816e-01
4.5456810e-02
2.7530832e-01
4.4247914e-01
4.7534274e-01
3.6537288e-01
2.1257745e-01
1.0465662e-01
3.7386026e-02
-6.4507500e-03
-1.0227480e-02
-4.3364280e-03
-6.7636596e-02
-2.0473923e-01
-3.2611395e-01
-3.8470183e-01
-4.3132548e-01
-4.8504529e-01
-4.6564976e-01
-3.1067455e-01
-6.7500147e-02
1.7237790e-01
3.5892904e-01
4.4475513e-01
3.5213302e-01
8.0255598e-02
-2.6440727e-01
-6.0407167e-01
-8.8542911e-01
-9.1825394e-01
-4.4510827e-01
5.0439566e-01
1.5100080e+00
2.2671891e+00
2.7209461e+00
2.5933044e+00
1.6443349e+00
1.9528838e-01
-1.1296208e+00
-1.9077712e+00
-2.0784081e+00
-1.7934091e+00
-1.2573427e+00
-7.2490336e-01
-4.1020877e-01
-3.0506170e-01
-2.2188402e-01
1.0330594e-02
3.9733980e-01
7.8034388e-01
9.6394478e-01
8.2397201e-01
3.7970228e-01
-1.6543274e-01
-5.6022302e-01
-7.1160141e-01
-7.0021517e-01
-6.1010179e-01
-4.3122077e-01
-1.7982050e-01
3.3414086e-02
9.7383421e-02
-3.0031587e-02
-3.3701552e-01
-7.2299660e-01
-9.1491918e-01
-6.0337307e-01
3.4727152e-01
1.8587119e+00
3.4984815e+00
4.3951588e+00
3.7414406e+00
1.5931421e+00
-1.0087634e+00
-2.8901635e+00
-3.5421444e+00
-3.0862223e+00
-1.9276093e+00
-6.5021015e-01
1.3783801e-01
2.4711037e-01
5.8935894e-03
-1.7717104e-01
-1.2810773e-01
4.5861522e-02
1.0160957e-01
-2.5931789e-02
-1.4766783e-01
-6.1181239e-02
2.8238207e-01
7.5114309e-01
1.0446005e+00
9.0581879e-01
4.2425329e-01
-3.1861827e-02
-1.7141143e-01
-3.7374109e-03
2.3829879e-01
3.4803656e-01
2.5340986e-01
-1.4546203e-04
-2.7001625e-01
-4.1660522e-01
-4.3783998e-01
-4.7584519e-01
-6.2976846e-01
-8.2571930e-01
-9.2811293e-01
-8.5119874e-01
-5.5117418e-01
-4.1322041e-02
5.5219767e-01
1.0343118e+00
1.2607863e+00
1.1621363e+00
6.9790588e-01
-7.2189857e-02
-8.6277511e-01
-1.2771626e+00
-1.0724419e+00
-2.7942177e-01
8.2429750e-01
1.8200327e+00
2.3439928e+00
2.2546168e+00
1.5938295e+00
4.9889429e-01
-7.6880998e-01
-1.8159932e+00
-2.2675266e+00
-1.9921953e+00
-1.1824706e+00
-2.6700529e-01
2.9923424e-01
3.2786404e-01
-1.5688338e-02
-4.2374841e-01
-6.6011797e-01
-6.3564628e-01
-4.0363638e-01
-1.0375905e-01
1.4638769e-01
3.1007735e-01
3.8797254e-01
4.0288729e-01
4.2741640e-01
5.2779704e-01
6.0991532e-01
4.3770890e-01
-3.8514846e-02
-5.1420790e-01
-6.1639239e-01
-2.1973650e-01
4.8636995e-01
1.0801363e+00
1.1608825e+00
7.2535972e-01
2.2392017e-01
1.3624932e-01
4.9151202e-01
7.1577784e-01
4.1779675e-01
-1.0364756e-01
-6.4001756e-01
-1.2181628e+00
-1.7223765e+00
-2.0108798e+00
-2.0264431e+00
-1.7706559e+00
-1.2451726e+00
-4.5526666e-01
5.4080144e-01
1.6368724e+00
2.5975107e+00
2.9827704e+00
2.4511461e+00
1.1721806e+00
-2.1902398e-01
-1.1045150e+00
-1.2552903e+00
-8.7725917e-01
-3.8309488e-01
-3.7100030e-02
1.2807114e-01
1.7078725e-01
1.5413131e-01
1.0513792e-01
-1.6374888e-02
-2.5979510e-01
-5.5804149e-01
-7.4874902e-01
-7.4710180e-01
-6.1047204e-01
-4.1665594e-01
-1.5740909e-01
1.9843158e-01
5.9796575e-01
8.9827603e-01
9.6136163e-01
7.5575865e-01
3.7353840e-01
-1.9237438e-02
-2.7837061e-01
-3.7669347e-01
-4.1510966e-01
-4.7268749e-01
-5.0258338e-01
-4.4491614e-01
-3.0824882e-01
-1.4768588e-01
-5.9827959e-02
-1.8725557e-01
-5.7791201e-01
-9.9886137e-01
-1.0513221e+00
-4.4005037e-01
8.8149230e-01
2.5785833e+00
3.8606023e+00
3.8788113e+00
2.5104286e+00
5.3192003e-01
-1.1380259e+00
-2.0829576e+00
-2.3954718e+00
-2.3719808e+00
-2.2326475e+00
-2.0740921e+00
-1.8663307e+00
-1.4706132e+00
-7.5637553e-01
3.5279520e-01
1.8209607e+00
3.2506264e+00
3.8432314e+00
3.0530490e+00
1.2638683e+00
-5.2518775e-01
-1.5920537e+00
-1.8198177e+00
-1.4925491e+00
-9.9121724e-01
-5.4187551e-01
-2.3921796e-01
-1.0903234e-01
-8.7875776e-02
-8.0914398e-02
-4.7714244e-02
-2.4555424e-02
-4.1795845e-02
-5.3344873e-02
-4.2169189e-04
1.1789342e-01
2.7505410e-01
4.3761023e-01
5.0695687e-01
3.3814567e-01
-1.0117044e-01
-6.6962562e-01
-1.1836194e+00
-1.5192158e+00
-1.6121405e+00
-1.4707569e+00
-1.2088764e+00
-9.3403591e-01
-5.4039248e-01
2.5874679e-01
1.7074544e+00
3.7105876e+00
5.5401529e+00
6.0853577e+00
4.7533316e+00
2.0864135e+00
-6.8102563e-01
-2.6050447e+00
-3.4740031e+00
-3.5719882e+00
-3.2863748e+00
-2.8516529e+00
-2.3482199e+00
-1.7727517e+00
-1.1052680e+00
-4.4661230e-01
2.5653584e-02
2.7996304e-01
5.0431637e-01
9.0299239e-01
1.4338172e+00
1.8399982e+00
1.9677374e+00
1.7955281e+00
1.2323487e+00
3.3691784e-01
-5.1483595e-01
-9.6060562e-01
-8.7766376e-01
-3.8365297e-01
1.8852644e-01
4.7742428e-01
3.1259470e-01
-1.7439619e-01
-6.1459773e-01
-6.8875538e-01
-3.6789565e-01
4.8583461e-02
2.1268237e-01
4.8720638e-02
-3.3528193e-01
-7.9161479e-01
-1.1562357e+00
-1.3408006e+00
-1.4221968e+00
-1.5193249e+00
-1.5396351e+00
-1.1822895e+00
-1.5127648e-01
1.6378866e+00
3.7297998e+00
5.0422678e+00
4.6918953e+00
2.9636528e+00
1.0174949e+00
-2.5764725e-01
-7.8832948e-01
-1.0890095e+00
-1.6144494e+00
-2.2644894e+00
-2.6704323e+00
-2.5957661e+00
-1.9907427e+00
-9.7394977e-01
2.0220880e-01
1.2189960e+00
1.7541228e+00
1.5832761e+00
7.6315746e-01
-2.8898427e-01
-1.0188467e+00
-1.1048123e+00
-5.5192891e-01
4.3901917e-01
1.5053643e+00
2.1266878e+00
1.8887747e+00
8.8014521e-01
-3.8536049e-01
-1.4489109e+00
-2.1229471e+00
-2.3913688e+00
-2.2602252e+00
-1.6785905e+00
-6.1456366e-01
8.0272181e-01
2.1809216e+00
2.9129407e+00
2.5287740e+00
1.1353093e+00
-5.8859975e-01
-1.9446270e+00
-2.6305890e+00
-2.6523648e+00
-2.1753795e+00
-1.5424726e+00
-1.1672732e+00
-1.1206794e+00
-9.5496807e-01
-1.0484499e-01
1.7192955e+00
4.2852030e+00
6.5962160e+00
7.2489971e+00
5.5083891e+00
2.0607955e+00
-1.4870095e+00
-3.8436682e+00
-4.6055249e+00
-4.0004760e+00
-2.6086095e+00
-1.2304745e+00
-5.3270799e-01
-5.7980166e-01
-9.1510221e-01
-1.0853223e+00
-8.7076571e-01
-2.1715051e-01
7.5945818e-01
1.6585575e+00
1.8680869e+00
1.1384366e+00
3.1855301e-03
-6.8930559e-01
-4.2536961e-01
7.2777867e-01
2.0825371e+00
2.6678540e+00
1.9513831e+00
3.2369247e-01
-1.2604162e+00
-2.1004837e+00
-2.0462617e+00
-1.3141223e+00
-3.3671949e-01
3.8969514e-01
5.1657680e-01
4.5671700e-02
-6.5910058e-01
-1.1585101e+00
-1.2088912e+00
-8.3198260e-01
-2.4651852e-01
2.6291499e-01
4.5134233e-01
2.9137176e-01
9.9172633e-02
2.6278321e-01
7.7820692e-01
1.1855937e+00
1.3280600e+00
1.5482491e+00
1.7357981e+00
1.4324864e+00
6.2652082e-01
-3.3525464e-01
-1.1371182e+00
-1.6397777e+00
-1.8441159e+00
-1.7869365e+00
-1.5179054e+00
-1.1263193e+00
-6.8058446e-01
-2.0339284e-01
2.9145291e-01
7.8456178e-01
1.2636010e+00
1.6602541e+00
1.6864391e+00
9.7368636e-01
-3.9020914e-01
-1.7792734e+00
-2.6114084e+00
-2.6759773e+00
-1.9870904e+00
-6.4212876e-01
1.1357285e+00
2.9317127e+00
4.1892870e+00
4.4115958e+00
3.4477708e+00
1.6156317e+00
-4.1348911e-01
-1.9383180e+00
-2.5949874e+00
-2.4357173e+00
-1.7527395e+00
-9.0782019e-01
-2.4634909e-01
1.9729892e-02
-1.0434937e-01
-4.5441287e-01
-8.0201600e-01
-9.6261965e-01
-8.6752733e-01
-5.5361422e-01
-1.2387541e-01
3.0757259e-01
6.6150051e-01
8.8545808e-01
9.3789274e-01
8.1173114e-01
5.7440437e-01
3.3808498e-01
1.4155374e-01
-6.6192000e-02
-2.7154336e-01
-3.4384640e-01
-2.0087788e-01
7.3150940e-02
3.0498277e-01
3.6094197e-01
1.7520338e-01
-2.2187076e-01
-6.5071472e-01
-8.7749017e-01
-7.8511441e-01
-4.4134585e-01
-1.5517016e-02
3.6023841e-01
6.2582275e-01
7.6822332e-01
8.0929566e-01
7.5944536e-01
5.7518784e-01
2.2037513e-01
-2.0726282e-01
-5.0660023e-01
-5.5733222e-01
-3.9909648e-01
-1.4667533e-01
9.3413617e-02
2.1724013e-01
1.5221134e-01
-5.0204981e-02
-2.3358103e-01
-2.8468840e-01
-2.2002243e-01
-1.1649249e-01
-3.2741777e-02
-4.1622883e-02
-2.0035414e-01
-4.2484196e-01
-5.1936260e-01
-3.5384890e-01
2.6984387e-02
4.4097877e-01
6.9792315e-01
6.9220698e-01
4.4444888e-01
1.1293901e-01
-1.0855413e-01
-1.3599139e-01
-3.5448286e-02
7.8733487e-02
1.4493051e-01
1.1799839e-01
-3.8907923e-02
-2.5409638e-01
-3.6579792e-01
-2.9728674e-01
-1.3962035e-01
-3.1141446e-02
-3.1265636e-02
-1.6782174e-01
-4.5275368e-01
-7.5074879e-01
-8.0439661e-01
-4.5371395e-01
2.2533591e-01
9.3906857e-01
1.2978589e+00
1.0240394e+00
2.3123025e-01
-5.3265348e-01
-6.8024033e-01
-5.2107091e-02
9.2077829e-01
1.7383132e+00
2.2097206e+00
2.0849856e+00
1.2110145e+00
-9.3061108e-02
-1.3089268e+00
-2.0824228e+00
-2.3287870e+00
-2.1263735e+00
-1.6053147e+00
-9.6504613e-01
-4.3347631e-01
-1.1628637e-01
3.4895389e-02
1.0633453e-01
1.4812039e-01
1.7866529e-01
1.6516074e-01
-1.2037288e-02
-4.1093740e-01
-7.7681841e-01
-6.7419994e-01
1.5823009e-01
1.6870463e+00
3.4406174e+00
4.4429713e+00
3.8059977e+00
1.6162093e+00
-9.9621330e-01
-2.8259434e+00
-3.3783300e+00
-2.7514343e+00
-1.3240492e+00
2.3111145e-01
1.1104674e+00
9.9448832e-01
2.6380318e-01
-5.0931366e-01
-9.7182518e-01
-1.0239971e+00
-7.5354336e-01
-3.6509020e-01
-1.1163066e-01
-1.3186971e-01
-3.1026680e-01
-4.0887859e-01
-2.6885855e-01
1.5682255e-01
8.0491839e-01
1.4419857e+00
1.6758911e+00
1.2600208e+00
4.0376567e-01
-4.2554104e-01
-8.9134530e-01
-9.3158800e-01
-6.9490114e-01
-3.8057691e-01
-1.2991100e-01
2.9718014e-02
1.7310142e-01
3.7103826e-01
6.1676491e-01
7.9564962e-01
7.5196828e-01
4.4246468e-01
-4.4404283e-02
-5.6441973e-01
-9.3014750e-01
-9.7401876e-01
-6.9013901e-01
-2.7210624e-01
2.3814578e-02
6.4153848e-02
-1.1649587e-01
-3.5493780e-01
-4.2251129e-01
-1.6885429e-01
3.4539331e-01
8.3407252e-01
9.6670156e-01
6.6909159e-01
1.9585181e-01
-1.3160106e-01
-1.5318319e-01
1.1319343e-01
4.9928787e-01
7.3559073e-01
6.4194206e-01
2.5550051e-01
-2.9900328e-01
-9.2368095e-01
-1.5166492e+00
-1.9524504e+00
-2.1425394e+00
-2.0325887e+00
-1.5094162e+00
-4.5178977e-01
1.1222530e+00
2.9523417e+00
4.4520885e+00
4.8866509e+00
3.8731191e+00
1.7158387e+00
-7.0874302e-01
-2.4767366e+00
-3.1639981e+00
-2.8939287e+00
-2.0431994e+00
-1.0154091e+00
-1.6189938e-01
2.9527683e-01
3.0086852e-01
-8.6076608e-02
-7.0053294e-01
-1.2923057e+00
-1.5955841e+00
-1.4118397e+00
-6.7972184e-01
4.7268338e-01
1.7017261e+00
2.5041442e+00
2.4494769e+00
1.5486354e+00
3.6606596e-01
-3.8764226e-01
-4.1144412e-01
4.7713018e-02
6.0933097e-01
1.0398559e+00
1.0569892e+00
4.7110317e-01
-4.7688551e-01
-1.3124997e+00
-1.7034538e+00
-1.5871783e+00
-1.0972113e+00
-4.5817405e-01
5.0763778e-02
2.3857628e-01
1.6503361e-01
4.3248699e-02
2.8912843e-02
1.1458860e-01
2.1907216e-01
3.2468041e-01
4.4209137e-01
5.2661868e-01
5.1239049e-01
3.6953509e-01
7.1186981e-02
-3.7365253e-01
-7.9490042e-01
-9.4012172e-01
-7.0035294e-01
-1.7750990e-01
4.1942462e-01
8.8673385e-01
1.0342589e+00
7.4910049e-01
1.5528057e-01
-4.3555381e-01
-7.6988903e-01
-8.0478473e-01
-6.6688278e-01
-5.2249583e-01
-4.9024266e-01
-5.4624887e-01
-4.8706630e-01
-8.4540587e-02
7.3723161e-01
1.7858074e+00
2.5650566e+00
2.5557133e+00
1.6778980e+00
3.7042288e-01
-7.8923391e-01
-1.4457951e+00
-1.5387668e+00
-1.2392790e+00
-8.3192356e-01
-5.5241317e-01
-5.1077677e-01
-6.7845553e-01
-9.1762985e-01
-1.0879944e+00
-1.1430896e+00
-1.1216014e+00
-1.0313995e+00
-7.5395502e-01
-1.2451424e-01
8.6716314e-01
1.9788007e+00
2.8389789e+00
3.1939955e+00
3.0667483e+00
2.6355637e+00
1.9810939e+00
1.1146522e+00
1.8481186e-01
-5.9826924e-01
-1.1890642e+00
-1.6923180e+00
-2.1764484e+00
-2.5799232e+00
-2.7404635e+00
-2.4851250e+00
-1.7473917e+00
-6.3034795e-01
5.3684504e-01
1.2597243e+00
1.2197615e+00
5.6901250e-01
-2.3843480e-01
-8.3187891e-01
-1.0685246e+00
-1.0012971e+00
-8.2806752e-01
-7.8606159e-01
-8.8860036e-01
-7.9165714e-01
-8.8201952e-02
1.4001281e+00
3.4761088e+00
5.3908889e+00
6.0484690e+00
4.7736458e+00
1.9660446e+00
-1.1185729e+00
-3.3157295e+00
-4.1864558e+00
-3.8817292e+00
-2.8242377e+00
-1.5554802e+00
-5.7362552e-01
-8.7705811e-02
8.4410208e-03
-6.8001764e-02
-9.8917999e-02
6.2171563e-02
3.9628364e-01
6.9466023e-01
6.7294329e-01
2.4528319e-01
-3.1699744e-01
-6.1990816e-01
-4.7869678e-01
-6.3740320e-03
5.1393172e-01
7.9955868e-01
6.4975143e-01
1.1100678e-01
-4.1519313e-01
-4.6249057e-01
4.0506818e-02
6.2970683e-01
1.0089487e+00
1.3113326e+00
1.3081877e+00
6.4416150e-01
-4.3446276e-01
-1.3622914e+00
-1.7839615e+00
-1.6587542e+00
-1.1484886e+00
-5.6228880e-01
-3.2449023e-01
-6.2601490e-01
-1.0832262e+00
-1.0748081e+00
-2.0761078e-01
1.5417071e+00
3.6772598e+00
5.1379873e+00
4.9298356e+00
3.0959650e+00
6.9764245e-01
-1.2334029e+00
-2.3529103e+00
-2.8287589e+00
-2.9112532e+00
-2.6713125e+00
-2.1071359e+00
-1.3106837e+00
-4.5477968e-01
2.5388646e-01
6.4778779e-01
6.6393824e-01
3.6725059e-01
-8.1676181e-02
-5.1593253e-01
-8.1161286e-01
-8.8600114e-01
-7.3346236e-01
-4.7938627e-01
-2.7950610e-01
-1.1892806e-01
2.0146218e-01
8.7991729e-01
1.8908540e+00
2.8261385e+00
3.0435291e+00
2.1748257e+00
5.3305107e-01
-1.0759507e+00
-1.9728336e+00
-1.9547395e+00
-1.2569983e+00
-3.6074035e-01
3.0232036e-01
5.3585899e-01
3.9568138e-01
9.0254942e-02
-1.9775015e-01
-4.1415306e-01
-5.9825970e-01
-7.5913668e-01
-8.1918276e-01
-7.1513489e-01
-4.7422142e-01
-1.5440496e-01
2.2393188e-01
6.5182303e-01
1.0642406e+00
1.3289103e+00
1.3100644e+00
9.4436898e-01
3.1643783e-01
-3.0454574e-01
-6.2010616e-01
-5.4073199e-01
-2.5674223e-01
-5.6190154e-02
-6.3800215e-02
-2.3068616e-01
-4.5900574e-01
-6.2271048e-01
-5.9795303e-01
-3.5408864e-01
-6.8868378e-03
2.3505989e-01
2.1283600e-01
-9.2223958e-02
-5.4837499e-01
-9.0466860e-01
-9.2417881e-01
-5.0724976e-01
3.0293561e-01
1.3111639e+00
2.1372582e+00
2.3357927e+00
1.7364400e+00
6.6578244e-01
-3.2656601e-01
-9.2648093e-01
-1.1821591e+00
-1.2419669e+00
-1.1093848e+00
-7.5895160e-01
-2.8908667e-01
1.4570599e-01
4.5316681e-01
6.1990246e-01
6.5414124e-01
5.6834756e-01
3.6693772e-01
2.4840941e-02
-4.3596585e-01
-8.5750373e-01
-1.0525423e+00
-1.0111458e+00
-9.1237409e-01
-8.8002227e-01
-8.1604117e-01
-5.3711374e-01
3.6257393e-02
8.1375801e-01
1.5219768e+00
1.7734438e+00
1.3450116e+00
5.0684229e-01
-1.3301713e-01
-2.1209401e-01
1.2170274e-01
6.4297188e-01
1.2830929e+00
1.6940042e+00
1.3977841e+00
3.9836644e-01
-8.4128210e-01
-1.8269687e+00
-2.3247788e+00
-2.3310776e+00
-1.9295706e+00
-1.2755261e+00
-5.6351967e-01
6.5796255e-02
5.6274663e-01
9.7113628e-01
1.3612673e+00
1.6925903e+00
1.7489276e+00
1.2754133e+00
2.9168245e-01
-7.6813733e-01
-1.3738252e+00
-1.2865061e+00
-6.2213162e-01
2.9617690e-01
1.0928483e+00
1.4333359e+00
1.1833180e+00
5.3229311e-01
-1.7896489e-01
-7.4804487e-01
-1.1776619e+00
-1.4894068e+00
-1.5988541e+00
-1.4432858e+00
-1.0787077e+00
-5.9698040e-01
-3.5291362e-02
6.0790183e-01
1.2935169e+00
1.8612600e+00
2.0425793e+00
1.6487737e+00
7.7037596e-01
-2.2984092e-01
-9.7522362e-01
-1.3311722e+00
-1.3982647e+00
-1.2827536e+00
-9.4348258e-01
-3.0639279e-01
5.5898850e-01
1.3675690e+00
1.7371273e+00
1.4646904e+00
6.9849889e-01
-1.5384078e-01
-7.2988481e-01
-9.2733888e-01
-8.4676128e-01
-6.0075331e-01
-2.3740937e-01
1.2884306e-01
2.9202096e-01
1.5745707e-01
-1.5480502e-01
-4.4726243e-01
-5.9788094e-01
-5.5750074e-01
-3.0764800e-01
1.0946684e-01
5.8005204e-01
9.6763259e-01
1.1478030e+00
1.0275573e+00
6.0157130e-01
2.6284826e-02
-4.5058698e-01
-6.8605626e-01
-7.1001634e-01
-6.1241400e-01
-4.5601137e-01
-3.2544323e-01
-3.0896413e-01
-3.9250853e-01
-4.9070068e-01
-5.6467326e-01
-6.0661041e-01
-5.1569674e-01
-1.1476967e-01
6.9768680e-01
1.8272011e+00
2.8955461e+00
3.3217985e+00
2.7001310e+00
1.1686212e+00
-6.4248275e-01
-2.0637078e+00
-2.7551833e+00
-2.7090450e+00
-2.0875462e+00
-1.1424614e+00
-2.2549736e-01
3.1922404e-01
3.6055911e-01
2.6402928e-02
-4.4984687e-01
-8.7577408e-01
-1.0867453e+00
-8.9721749e-01
-1.7266396e-01
9.9683548e-01
2.1701055e+00
2.7528793e+00
2.5183563e+00
1.8472134e+00
1.3037437e+00
1.0686258e+00
8.4190166e-01
2.3486644e-01
-7.3611450e-01
-1.6697115e+00
-2.2612775e+00
-2.4917632e+00
-2.4183903e+00
-2.0520622e+00
-1.4761927e+00
-8.6518391e-01
-2.3505583e-01
5.5468438e-01
1.4213114e+00
2.0057493e+00
2.0136740e+00
1.4298466e+00
4.8068535e-01
-4.9482894e-01
-1.1549086e+00
-1.2894932e+00
-9.5205082e-01
-4.0220265e-01
1.1924727e-01
5.2556307e-01
8.5362176e-01
1.1453645e+00
1.3633682e+00
1.4022642e+00
1.1148333e+00
4.3355033e-01
-4.2604322e-01
-1.0742207e+00
-1.3155089e+00
-1.2558978e+00
-1.0844303e+00
-8.7135671e-01
-6.0788836e-01
-2.9983363e-01
9.6942926e-03
2.4360178e-01
3.4540699e-01
3.2556626e-01
2.5027611e-01
1.7123684e-01
7.7005198e-02
-6.3491949e-02
-1.9457090e-01
-1.6959023e-01
1.0275687e-01
5.3993060e-01
8.9729848e-01
9.0544811e-01
4.3727123e-01
-3.4947532e-01
-1.0283798e+00
-1.1972598e+00
-7.2680813e-01
2.0535794e-01
1.1881223e+00
1.7666487e+00
1.6606012e+00
9.2536535e-01
-5.8231484e-02
-8.6297467e-01
-1.2916703e+00
-1.3939358e+00
-1.2737956e+00
-9.4037398e-01
-3.9570835e-01
2.3321042e-01
7.1707193e-01
8.7089115e-01
6.7630474e-01
2.8793815e-01
-4.9151759e-02
-1.6240483e-01
-6.5905719e-02
1.0337424e-01
2.4885492e-01
3.6942063e-01
4.2163377e-01
2.7106106e-01
-9.1374570e-02
-4.4552463e-01
-5.5515873e-01
-3.8225501e-01
-7.8065269e-02
1.3671466e-01
8.6777998e-02
-2.1956449e-01
-5.8595705e-01
-8.1033270e-01
-8.2532848e-01
-6.8747413e-01
-4.3919089e-01
-3.0515122e-02
5.8130862e-01
1.2982923e+00
1.8349974e+00
1.8429401e+00
1.1644865e+00
2.3239409e-02
-1.0571245e+00
-1.6209592e+00
-1.5413331e+00
-1.0180532e+00
-4.0373752e-01
7.9547992e-02
4.3538860e-01
7.6541593e-01
1.1254709e+00
1.4116577e+00
1.3750601e+00
8.4891071e-01
-5.0094486e-03
-7.8381672e-01
-1.2047656e+00
-1.2672873e+00
-1.1013961e+00
-8.1367605e-01
-4.8710181e-01
-1.7634078e-01
1.3646681e-01
4.8187386e-01
7.5832417e-01
7.4249321e-01
3.6285859e-01
-1.5991070e-01
-5.4125653e-01
-6.6458532e-01
-5.7327761e-01
-3.8402895e-01
-2.2921330e-01
-1.3316455e-01
5.5505764e-02
4.8559250e-01
1.0188289e+00
1.2130229e+00
9.8769152e-01
7.5136967e-01
5.3240332e-01
6.6182332e-02
-5.5973912e-01
-9.9031241e-01
-9.4984765e-01
-4.2516818e-01
3.4608859e-01
9.8630835e-01
1.1466507e+00
7.5431201e-01
8.3546382e-02
-5.2637856e-01
-9.1635130e-01
-1.0680338e+00
-9.9212481e-01
-7.0861904e-01
-3.0156856e-01
6.4745103e-02
2.6753229e-01
3.1753792e-01
2.6925987e-01
1.2434848e-01
-1.0891264e-01
-3.5718527e-01
-5.5709119e-01
-6.7658854e-01
-6.8025758e-01
-5.8137155e-01
-4.7996535e-01
-4.4385736e-01
-3.6333660e-01
-1.3871336e-02
7.8272925e-01
2.0478939e+00
3.4674641e+00
4.2945436e+00
3.7554497e+00
1.7535377e+00
-8.7165167e-01
-2.9609283e+00
-3.8895596e+00
-3.6893799e+00
-2.6863045e+00
-1.3097745e+00
-7.0123264e-02
6.3291635e-01
7.3180871e-01
4.0054952e-01
-1.4001882e-01
-7.0403870e-01
-1.1021725e+00
-1.1155397e+00
-5.9644806e-01
4.1242075e-01
1.6020902e+00
2.4698759e+00
2.6826500e+00
2.3670781e+00
1.8885869e+00
1.4195890e+00
8.1358245e-01
-1.1870624e-01
-1.2401323e+00
-2.1006065e+00
-2.3447383e+00
-1.9632948e+00
-1.2007250e+00
-4.0859208e-01
6.4436575e-02
5.7560456e-02
-2.8827024e-01
-6.8994759e-01
-9.4888080e-01
-1.0459240e+00
-1.1153689e+00
-1.2779743e+00
-1.4877890e+00
-1.5211812e+00
-1.0403196e+00
2.3791431e-01
2.3430528e+00
4.8240809e+00
6.6722827e+00
6.8175783e+00
4.9308489e+00
1.7736115e+00
-1.3237501e+00
-3.3741954e+00
-4.1341440e+00
-3.8746773e+00
-3.0567490e+00
-2.1410279e+00
-1.4484174e+00
-1.0329471e+00
-7.4643301e-01
-4.4381162e-01
-3.1171798e-02
5.1813357e-01
1.0636564e+00
1.3037951e+00
1.0131153e+00
3.1382059e-01
-3.7545240e-01
-6.7377672e-01
-4.7224749e-01
4.1216785e-02
5.2539395e-01
7.3681780e-01
6.4556560e-01
3.8245436e-01
1.2852031e-01
-2.5411083e-02
-1.7043620e-01
-4.5460597e-01
-7.8798497e-01
-8.3493580e-01
-3.4268718e-01
6.2998074e-01
1.6852978e+00
2.2257473e+00
1.8149161e+00
5.9152473e-01
-7.7678404e-01
-1.6552585e+00
-1.9177002e+00
-2.0602615e+00
-2.3336529e+00
-2.1226858e+00
-9.3454330e-01
1.0856698e+00
3.2841332e+00
4.5604558e+00
4.1456783e+00
2.3703242e+00
3.2509057e-01
-1.1048152e+00
-1.6880886e+00
-1.7044914e+00
-1.5729142e+00
-1.4865061e+00
-1.3880373e+00
-1.1635221e+00
-7.5982052e-01
-2.1576883e-01
3.4512269e-01
7.3844210e-01
8.1117507e-01
5.6176410e-01
1.0891160e-01
-4.0170106e-01
-8.1118081e-01
-9.9438781e-01
-9.3017294e-01
-6.6451231e-01
-2.3329621e-01
3.2518416e-01
8.6741332e-01
1.1430078e+00
1.0138973e+00
6.3191312e-01
3.1627855e-01
2.8012697e-01
5.1743150e-01
8.2478240e-01
8.5574028e-01
3.9028174e-01
-3.7384160e-01
-9.9535867e-01
-1.2015358e+00
-1.0165916e+00
-6.0095887e-01
-1.0851869e-01
2.9160253e-01
4.4341928e-01
3.1627156e-01
7.4355187e-03
-3.6269374e-01
-7.1229339e-01
-9.2511840e-01
-8.4390590e-01
-3.9088252e-01
3.7795897e-01
1.2575972e+00
1.8770592e+00
1.8320398e+00
1.0345442e+00
-1.0353134e-01
-9.9934092e-01
-1.3207149e+00
-1.0909273e+00
-5.7226800e-01
-7.7772261e-02
1.6530322e-01
1.1355773e-01
-7.0380924e-02
-1.5924920e-01
-1.8869395e-02
3.2074604e-01
6.9208308e-01
8.9332584e-01
7.7737575e-01
3.4566503e-01
-1.9613901e-01
-5.8548395e-01
-7.1328764e-01
-6.3635551e-01
-4.3137981e-01
-1.2666506e-01
2.1035146e-01
4.4631364e-01
4.8819933e-01
3.5123337e-01
1.0080779e-01
-2.1041742e-01
-4.9787507e-01
-6.3868201e-01
-5.6801344e-01
-3.2106478e-01
2.0255870e-02
3.8967681e-01
7.2564568e-01
9.2387516e-01
8.7074275e-01
5.1212576e-01
-1.2535611e-01
-8.9447354e-01
-1.5217030e+00
-1.7584092e+00
-1.5383975e+00
-9.9746252e-01
-3.6066561e-01
2.4446387e-01
8.5103110e-01
1.5301940e+00
2.2005484e+00
2.5217674e+00
2.0892600e+00
8.6703267e-01
-6.2524120e-01
-1.7006422e+00
-2.0173673e+00
-1.6941072e+00
-1.0815137e+00
-4.5305960e-01
8.4403073e-02
4.8554880e-01
6.7030367e-01
5.2468547e-01
1.3214285e-02
-6.6990431e-01
-1.0872381e+00
-8.2829334e-01
8.7928121e-02
1.0787622e+00
1.7217134e+00
2.1300086e+00
2.1816413e+00
1.5611251e+00
3.8973482e-01
-8.7343581e-01
-1.7964981e+00
-2.1847735e+00
-2.0313374e+00
-1.4004319e+00
-4.7504117e-01
4.3137644e-01
1.0187904e+00
1.1482922e+00
8.7065227e-01
3.6030800e-01
-1.3046853e-01
-3.7444251e-01
-3.3192576e-01
-1.7270928e-01
-9.0029380e-02
-1.2173162e-01
-1.9881152e-01
-2.4604295e-01
-1.9676159e-01
-3.2154079e-02
1.4907603e-01
1.8112847e-01
2.3615913e-02
-1.6327701e-01
-1.8369638e-01
9.4077258e-04
2.7361369e-01
4.9312096e-01
5.7546715e-01
5.2591874e-01
4.3635513e-01
3.7275961e-01
2.5421107e-01
-6.1681592e-02
-5.3088166e-01
-9.0424653e-01
-1.0005860e+00
-8.3955886e-01
-5.4715082e-01
-2.6390150e-01
-1.2013189e-01
-1.4962008e-01
-2.1149758e-01
-9.3139923e-02
3.2783017e-01
9.6245309e-01
1.4879592e+00
1.5456570e+00
1.0056407e+00
6.2080599e-02
-8.7692195e-01
-1.4438086e+00
-1.4785134e+00
-1.0233586e+00
-2.5929038e-01
5.4106869e-01
1.0397806e+00
1.0053155e+00
5.5443782e-01
7.5352796e-02
-1.1276145e-01
3.0945541e-02
3.2507073e-01
5.1988683e-01
3.6477464e-01
-2.2992882e-01
-1.0169476e+00
-1.6190430e+00
-1.8659655e+00
-1.7930424e+00
-1.4353384e+00
-7.5144499e-01
3.2236144e-01
1.8124680e+00
3.5208920e+00
4.7734351e+00
4.6643704e+00
2.8536703e+00
9.2337429e-02
-2.3125598e+00
-3.5390928e+00
-3.5324409e+00
-2.6409720e+00
-1.3608392e+00
-2.2429619e-01
4.3084145e-01
5.7532486e-01
3.2996334e-01
-1.2205961e-01
-5.6488862e-01
-8.0350265e-01
-7.2313006e-01
-3.5459382e-01
1.4069135e-01
5.6971482e-01
8.0785690e-01
8.1503923e-01
6.2658292e-01
3.5556814e-01
1.3566001e-01
2.7685073e-02
-5.5549751e-03
-1.3201124e-02
4.6914083e-03
3.2222104e-02
6.4826347e-03
-8.7329142e-02
-1.8212542e-01
-2.4543061e-01
-3.4013227e-01
-4.9444021e-01
-6.1355086e-01
-6.1188658e-01
-5.3152582e-01
-4.6634997e-01
-4.8327451e-01
-6.5809088e-01
-9.6342771e-01
-1.0489061e+00
-4.0172690e-01
1.1669287e+00
3.3383751e+00
5.4216713e+00
6.4862381e+00
5.7049204e+00
3.0670695e+00
-2.9133846e-01
-2.9614703e+00
-4.3116477e+00
-4.4580394e+00
-3.7640086e+00
-2.6423955e+00
-1.5421571e+00
-8.3927016e-01
-6.1929898e-01
-6.6174591e-01
-7.0074975e-01
-6.0629397e-01
-3.4717796e-01
8.5495817e-02
6.2549582e-01
1.0732713e+00
1.2180810e+00
1.0297695e+00
6.8543818e-01
4.0945479e-01
3.3704693e-01
4.3359857e-01
4.6905690e-01
2.1643930e-01
-2.6396307e-01
-6.6575436e-01
-7.4822688e-01
-5.0939679e-01
-1.3287427e-01
1.4914151e-01
1.7974227e-01
-7.3639151e-03
-1.7875203e-01
-8.4960564e-02
3.4999911e-01
9.2492938e-01
1.2519957e+00
1.0641174e+00
3.8189418e-01
-5.2551283e-01
-1.2549363e+00
-1.4927143e+00
-1.1784939e+00
-4.9626136e-01
2.4138312e-01
7.5997870e-01
9.1690377e-01
7.4744536e-01
4.6570997e-01
3.0040497e-01
2.9758846e-01
2.9614146e-01
1.2743558e-01
-1.9039044e-01
-5.2663687e-01
-7.7028239e-01
-8.3119595e-01
-6.5035737e-01
-2.8617579e-01
3.9223080e-02
1.0780387e-01
-6.7471773e-02
-2.8362384e-01
-3.3458722e-01
-9.8687790e-02
3.9030896e-01
8.6400002e-01
9.6386667e-01
5.9404197e-01
3.9623792e-02
-3.2190423e-01
-3.0162367e-01
8.3934187e-02
6.6338786e-01
1.1377585e+00
1.2029730e+00
7.4018489e-01
-6.4717242e-02
-8.3465028e-01
-1.2925908e+00
-1.3570365e+00
-1.0823775e+00
-6.5270604e-01
-2.9112149e-01
-8.7996807e-02
1.4384180e-02
3.4474449e-02
-1.5944232e-01
-6.9792909e-01
-1.4650312e+00
-2.1235534e+00
-2.3492853e+00
-1.9044959e+00
-6.3554537e-01
1.4595624e+00
4.0610179e+00
6.2800657e+00
6.9040922e+00
5.3225272e+00
2.1616269e+00
-1.1514270e+00
-3.4252972e+00
-4.2553977e+00
-3.8389435e+00
-2.6730160e+00
-1.3868675e+00
-5.2357043e-01
-2.6303018e-01
-3.9808233e-01
-6.1563524e-01
-6.9015012e-01
-4.8283495e-01
4.5148657e-02
7.3342813e-01
1.1499170e+00
8.6840247e-01
-1.3722413e-02
-9.1275168e-01
-1.2829755e+00
-8.8206849e-01
2.6244722e-01
1.8079039e+00
2.9647642e+00
2.9521967e+00
2.0206315e+00
1.1061620e+00
4.6667262e-01
-1.6817888e-01
-8.7242522e-01
-1.5241544e+00
-1.9678616e+00
-2.1271343e+00
-1.9709795e+00
-1.4815282e+00
-7.3385657e-01
1.0545597e-01
8.1293046e-01
1.1225190e+00
8.3474652e-01
5.3129149e-02
-7.3776202e-01
-9.9666472e-01
-4.5686973e-01
7.3344016e-01
1.9985987e+00
2.6515203e+00
2.3941110e+00
1.4821147e+00
4.2435141e-01
-4.3002436e-01
-1.0570421e+00
-1.5813006e+00
-1.9805554e+00
-2.0603807e+00
-1.7158327e+00
-1.0881910e+00
-4.4769781e-01
4.4657171e-02
4.2458643e-01
8.1255157e-01
1.2412889e+00
1.5376200e+00
1.4219669e+00
7.9492243e-01
-9.3925245e-02
-8.5518919e-01
-1.2787144e+00
-1.3606540e+00
-1.1376883e+00
-6.1161553e-01
1.6347114e-01
1.0040045e+00
1.6192419e+00
1.7179268e+00
1.1800269e+00
1.9944553e-01
-7.7037493e-01
-1.3000143e+00
-1.2080004e+00
-6.1639970e-01
1.1218096e-01
5.9327183e-01
6.5446360e-01
4.1159040e-01
1.0950160e-01
-1.0376613e-01
-2.1871648e-01
-2.9256795e-01
-3.5292354e-01
-3.6114321e-01
-2.9450175e-01
-1.8371321e-01
-3.9549908e-02
1.6291194e-01
3.9154457e-01
5.2932728e-01
4.8353054e-01
2.7254031e-01
-4.2462342e-02
-4.0418727e-01
-6.8688157e-01
-7.3265765e-01
-5.0258391e-01
-1.1606569e-01
2.5870398e-01
5.2898120e-01
6.7913610e-01
7.0611240e-01
6.1661613e-01
4.2515061e-01
1.1104075e-01
-3.3359231e-01
-7.7704562e-01
-9.9514844e-01
-8.6667931e-01
-4.5524847e-01
5.7534567e-02
4.8435368e-01
6.9835767e-01
6.7471046e-01
5.0738742e-01
3.2177462e-01
1.6690449e-01
1.2565746e-02
-1.4865913e-01
-2.6565668e-01
-3.3527455e-01
-4.1729226e-01
-5.0190187e-01
-4.9150724e-01
-3.4909163e-01
-1.7102641e-01
-6.6019562e-02
-2.7905378e-02
2.0722560e-02
1.4329117e-01
3.6775307e-01
6.3987188e-01
7.6603794e-01
5.2817834e-01
-2.9724443e-02
-5.5768964e-01
-7.1621445e-01
-4.3218427e-01
1.0026635e-01
5.0690358e-01
3.9776416e-01
-2.5256697e-01
-9.6403626e-01
-1.1655329e+00
-6.3264297e-01
3.6328447e-01
1.4072536e+00
2.2416075e+00
2.4869095e+00
1.8175742e+00
4.5887430e-01
-9.5675101e-01
-1.8710321e+00
-2.0697820e+00
-1.6262208e+00
-7.8982600e-01
2.6857377e-02
4.4347582e-01
4.0300621e-01
1.2175414e-01
-1.8697350e-01
-4.2774129e-01
-5.3546509e-01
-4.4396584e-01
-1.7429546e-01
1.6558089e-01
4.8223346e-01
7.3400957e-01
8.6917585e-01
8.1835874e-01
5.8541617e-01
2.6789369e-01
-2.8567629e-02
-2.3795948e-01
-2.9536238e-01
-1.5628248e-01
9.4495559e-02
2.4317582e-01
1.4443904e-01
-1.6698556e-01
-6.2896235e-01
-1.2430631e+00
-1.9325971e+00
-2.4771922e+00
-2.6642579e+00
-2.3645111e+00
-1.4709111e+00
9.7877897e-02
2.2964441e+00
4.7503786e+00
6.6107390e+00
6.8765348e+00
5.1384221e+00
2.0083951e+00
-1.2533009e+00
-3.5618622e+00
-4.5061007e+00
-4.2496891e+00
-3.2419177e+00
-2.0283431e+00
-1.0833796e+00
-5.8583139e-01
-3.9855071e-01
-3.1068398e-01
-1.6770104e-01
1.2423223e-01
5.2919147e-01
8.1276081e-01
6.3567277e-01
-6.8190256e-02
-8.4464682e-01
-1.0701396e+00
-3.7430280e-01
1.2214994e+00
3.1507644e+00
4.3476280e+00
3.9270334e+00
2.0260578e+00
-2.8155242e-01
-1.9608812e+00
-2.6194380e+00
-2.3900176e+00
-1.7047559e+00
-1.0649446e+00
-7.6204659e-01
-7.2361885e-01
-6.4316513e-01
-2.8764258e-01
3.7161108e-01
1.1471418e+00
1.6660579e+00
1.6047777e+00
9.1590409e-01
-1.3271177e-01
-1.0758520e+00
-1.5447184e+00
-1.4692533e+00
-1.0001108e+00
-3.4366850e-01
3.1207723e-01
7.5204355e-01
7.9679703e-01
4.9667215e-01
1.2200104e-01
-6.0301102e-02
4.8830012e-02
3.7552806e-01
7.0111148e-01
6.9870229e-01
1.9222954e-01
-5.6466467e-01
-1.0869589e+00
-1.0719964e+00
-5.3028364e-01
2.9263468e-01
1.0103167e+00
1.2354140e+00
8.4554310e-01
1.1508201e-01
-5.4649527e-01
-9.4754704e-01
-1.1511499e+00
-1.1925914e+00
-9.2687909e-01
-2.3949014e-01
7.2656078e-01
1.5512076e+00
1.7520786e+00
1.1277994e+00
-7.7040512e-03
-9.8651357e-01
-1.2582408e+00
-7.2741709e-01
7.6000487e-02
6.6168282e-01
1.0941871e+00
1.2268117e+00
7.7262276e-01
-4.5146471e-02
-7.4877956e-01
-1.0219499e+00
-8.7049011e-01
-6.3474937e-01
-7.0441394e-01
-1.1302572e+00
-1.5811454e+00
-1.5861261e+00
-8.3422393e-01
6.9725260e-01
2.7210720e+00
4.5474890e+00
5.2474741e+00
4.2574121e+00
1.9036505e+00
-7.8909464e-01
-2.8448206e+00
-3.8397574e+00
-3.8421841e+00
-3.1642439e+00
-2.2048834e+00
-1.3359081e+00
-7.4245354e-01
-3.6815586e-01
-7.6335958e-02
2.4818925e-01
6.9517724e-01
1.2420804e+00
1.6306673e+00
1.4394299e+00
5.4318144e-01
-5.5916673e-01
-1.1379271e+00
-7.7090144e-01
5.1205075e-01
2.2010206e+00
3.3949396e+00
3.3088372e+00
1.9437700e+00
7.3642574e-02
-1.4838473e+00
-2.3513145e+00
-2.5312574e+00
-2.1927082e+00
-1.5561551e+00
-9.0576039e-01
-4.7579053e-01
-2.5122750e-01
-4.0522590e-02
3.1825924e-01
8.3275072e-01
1.2967575e+00
1.3888875e+00
9.2412986e-01
6.0533622e-02
-7.6183782e-01
-1.1545569e+00
-1.0238806e+00
-5.6042853e-01
-7.7985232e-02
2.0900956e-01
2.6314785e-01
1.7960553e-01
1.2876283e-01
2.3280981e-01
4.4866406e-01
5.9140699e-01
5.1519081e-01
2.3510773e-01
-1.7803809e-01
-6.8041419e-01
-1.1488376e+00
-1.3758730e+00
-1.2261567e+00
-6.8408527e-01
1.9845332e-01
1.2696792e+00
2.1655157e+00
2.3529071e+00
1.4967988e+00
-1.4117247e-01
-1.8397614e+00
-2.9126261e+00
-2.9331582e+00
-1.7637446e+00
3.8498351e-01
2.8953758e+00
4.8288651e+00
5.3387064e+00
4.1620589e+00
1.7680012e+00
-8.6520569e-01
-2.7605031e+00
-3.4759382e+00
-3.1751427e+00
-2.3218799e+00
-1.4106887e+00
-8.2388306e-01
-6.7604599e-01
-7.7911475e-01
-8.5795376e-01
-7.3113911e-01
-3.4826997e-01
1.9807453e-01
6.6800963e-01
7.7404866e-01
4.4940119e-01
2.8001778e-02
1.5577318e-03
6.4877581e-01
1.9087819e+00
3.3234031e+00
4.0814081e+00
3.4632423e+00
1.4960595e+00
-9.1931364e-01
-2.7423442e+00
-3.5505560e+00
-3.5079831e+00
-2.9178204e+00
-2.0042607e+00
-9.8561084e-01
-3.1594550e-02
8.4080562e-01
1.5809275e+00
1.9539344e+00
1.7447032e+00
1.0421623e+00
1.7092624e-01
-5.8551736e-01
-1.0952335e+00
-1.3210288e+00
-1.2565739e+00
-9.6020255e-01
-5.3862569e-01
-6.2216170e-02
4.0972043e-01
7.8397821e-01
9.8644330e-01
1.0149877e+00
9.2164226e-01
7.2697494e-01
4.0267719e-01
1.4390870e-02
-2.5934181e-01
-3.2077574e-01
-2.4850880e-01
-1.5959008e-01
-9.4081050e-02
-1.1358527e-01
-3.0966404e-01
-6.2948121e-01
-8.7060267e-01
-8.7400451e-01
-6.2401005e-01
-2.0165257e-01
2.4842059e-01
5.1353149e-01
4.5551559e-01
2.1278544e-01
1.1274458e-01
4.1035165e-01
1.1231999e+00
1.9815517e+00
2.4817025e+00
2.1275994e+00
8.2950882e-01
-9.3988535e-01
-2.4698783e+00
-3.2679404e+00
-3.2143160e+00
-2.4269616e+00
-1.1309336e+00
3.4820037e-01
1.6058406e+00
2.2488708e+00
2.0624866e+00
1.1740060e+00
2.4585271e-03
-9.6111724e-01
-1.3523271e+00
-1.0357561e+00
-1.8403072e-01
7.5578179e-01
1.3395268e+00
1.4458883e+00
1.2951318e+00
1.0774361e+00
7.0244431e-01
-6.2166718e-03
-9.7711636e-01
-1.8014635e+00
-2.0287511e+00
-1.4941957e+00
-3.9724627e-01
7.7158970e-01
1.4428760e+00
1.3107274e+00
5.4968055e-01
-3.6768433e-01
-1.0549165e+00
-1.3720427e+00
-1.3639789e+00
-1.1496356e+00
-8.2930985e-01
-4.8617629e-01
-1.8929523e-01
5.5442370e-02
3.1518076e-01
6.9318462e-01
1.2467966e+00
1.9000317e+00
2.3870545e+00
2.3154276e+00
1.4851488e+00
1.9642793e-01
-9.4809543e-01
-1.5452409e+00
-1.5859081e+00
-1.2802767e+00
-8.4144755e-01
-4.5486332e-01
-2.6649116e-01
-2.7772570e-01
-3.4232372e-01
-2.9316724e-01
-6.5235765e-02
2.5665381e-01
4.7861585e-01
4.1376810e-01
4.5918887e-02
-3.9246006e-01
-5.9090679e-01
-3.8480481e-01
1.8101034e-01
8.8018560e-01
1.3821220e+00
1.3881714e+00
8.3589391e-01
1.6011977e-02
-6.3946144e-01
-9.0534703e-01
-8.8128871e-01
-7.7261167e-01
-6.3619569e-01
-4.5117124e-01
-2.1730846e-01
1.4538340e-01
7.2000033e-01
1.2668719e+00
1.2625134e+00
6.7176641e-01
7.3740341e-02
-1.6946441e-01
-5.4616280e-02
1.9600303e-01
1.4594805e-01
-4.5874023e-01
-1.3530673e+00
-1.9015941e+00
-1.6340874e+00
-5.1538124e-01
1.1920947e+00
2.9583163e+00
3.9785859e+00
3.5596768e+00
1.7095982e+00
-7.2405140e-01
-2.6728494e+00
-3.5775650e+00
-3.4543259e+00
-2.5790027e+00
-1.3136652e+00
-4.6626426e-02
9.3440874e-01
1.4703654e+00
1.4579234e+00
9.3877177e-01
1.6265015e-01
-5.2062117e-01
-8.5065449e-01
-7.8493695e-01
-4.6766541e-01
-9.5836277e-02
2.1193206e-01
4.2499022e-01
5.5071386e-01
6.1213111e-01
6.2291200e-01
5.5780873e-01
3.6656664e-01
6.1079146e-02
-2.4442899e-01
-4.3171519e-01
-4.6218497e-01
-3.2792463e-01
-3.8368445e-02
2.6505300e-01
3.0918329e-01
-1.8107501e-02
-5.0428221e-01
-8.7769458e-01
-1.0108580e+00
-8.4836958e-01
-3.8363393e-01
1.9733886e-01
5.2798370e-01
4.3583691e-01
2.1926495e-01
3.9207607e-01
1.2308814e+00
2.5078934e+00
3.4551949e+00
3.1971178e+00
1.5415839e+00
-7.2292892e-01
-2.5131414e+00
-3.2616650e+00
-2.9795599e+00
-1.9530572e+00
-6.2606901e-01
4.3519467e-01
8.1711578e-01
5.5153077e-01
-1.1136163e-02
-5.4105420e-01
-9.0292432e-01
-1.1258260e+00
-1.2627234e+00
-1.2984219e+00
-1.1370125e+00
-6.2007853e-01
3.4442079e-01
1.5354130e+00
2.3873876e+00
2.4644674e+00
1.9352781e+00
1.3909628e+00
1.2493543e+00
1.4244836e+00
1.4578581e+00
9.2340625e-01
-1.8467737e-01
-1.4785128e+00
-2.5383545e+00
-3.1217516e+00
-3.1504111e+00
-2.6530861e+00
-1.7600846e+00
-6.6627413e-01
4.7651953e-01
1.4486603e+00
1.8437840e+00
1.3503517e+00
1.7446758e-01
-9.3842400e-01
-1.2446652e+00
-4.3427415e-01
1.3570860e+00
3.4772986e+00
4.7819264e+00
4.3263390e+00
2.2785736e+00
-1.9129539e-01
-1.9692280e+00
-2.6710035e+00
-2.6020463e+00
-2.3315208e+00
-2.1893688e+00
-2.1748312e+00
-2.1400750e+00
-1.9128345e+00
-1.3602459e+00
-4.4152605e-01
7.2390848e-01
1.8231907e+00
2.4244670e+00
2.2891723e+00
1.7283051e+00
1.3494565e+00
1.3993343e+00
1.5784698e+00
1.4134231e+00
7.1359833e-01
-3.0352734e-01
-1.2448177e+00
-1.8399564e+00
-2.0016758e+00
-1.7480941e+00
-1.2120616e+00
-5.7960029e-01
5.3152776e-03
4.2584170e-01
5.6594349e-01
4.0035412e-01
9.3220477e-02
-1.2095208e-01
-1.4090533e-01
-3.6181137e-02
1.1136615e-01
2.9656086e-01
4.4271873e-01
3.4291058e-01
-1.4419137e-01
-8.8855022e-01
-1.5739567e+00
-1.9230946e+00
-1.7199697e+00
-8.0589130e-01
8.2329763e-01
2.8951984e+00
4.7274848e+00
5.3929744e+00
4.3442416e+00
1.9223223e+00
-8.4610423e-01
-2.9703394e+00
-4.0043860e+00
-3.9876228e+00
-3.2101196e+00
-2.1020759e+00
-1.1069291e+00
-4.6376460e-01
-1.4090960e-01
-4.7003704e-03
9.0739487e-02
3.0911939e-01
7.1862055e-01
1.1172146e+00
1.0725535e+00
3.8941046e-01
-5.1619776e-01
-9.5990677e-01
-5.0032074e-01
8.6915823e-01
2.6031277e+00
3.6959525e+00
3.3527864e+00
1.7684855e+00
-7.4151475e-02
-1.3338741e+00
-1.7583368e+00
-1.6022763e+00
-1.3379592e+00
-1.2268804e+00
-1.1924748e+00
-1.0721187e+00
-8.0212179e-01
-4.0006497e-01
6.3632908e-02
4.6365827e-01
6.5602931e-01
5.3406920e-01
7.9594383e-02
-5.3985118e-01
-9.8520980e-01
-1.0017476e+00
-6.3738979e-01
-1.8780962e-01
1.0254463e-01
3.0501671e-01
7.0769655e-01
1.4934457e+00
2.5039478e+00
3.1794023e+00
2.8817747e+00
1.4802749e+00
-4.5397021e-01
-2.0934055e+00
-2.9260208e+00
-2.9031710e+00
-2.2267102e+00
-1.1853935e+00
-1.5784512e-01
5.0828332e-01
6.9624777e-01
5.0999145e-01
1.2334895e-01
-3.2711793e-01
-7.1649387e-01
-8.9096003e-01
-7.6168743e-01
-4.1554355e-01
-3.5507658e-02
3.4925023e-01
9.4170004e-01
1.9331752e+00
3.1524459e+00
3.9313725e+00
3.5104383e+00
1.7312947e+00
-6.7187621e-01
-2.6003680e+00
-3.4286687e+00
-3.2008163e+00
-2.3079266e+00
-1.2709980e+00
-6.2724359e-01
-6.9317622e-01
-1.3478367e+00
-2.1624738e+00
-2.7617523e+00
-2.9887592e+00
-2.7795477e+00
-2.0888984e+00
-1.0427853e+00
1.1765701e-01
