-1.5994983e-03
-6.9898059e-03
4.2828652e-03
4.5651423e-02
1.1552962e-01
1.8408856e-01
2.0676422e-01
1.5617083e-01
4.7992187e-02
-6.1226179e-02
-1.1940059e-01
-1.0508581e-01
-1.7649015e-02
1.2511032e-01
2.8273761e-01
3.9354556e-01
3.9964661e-01
2.8631145e-01
9.2940800e-02
-1.1302341e-01
-2.7078325e-01
-3.5002098e-01
-3.5125364e-01
-2.8788900e-01
-1.7872514e-01
-4.6127154e-02
7.9689963e-02
1.6361126e-01
1.8534250e-01
1.4865825e-01
7.9317684e-02
8.6819624e-03
-4.0373787e-02
-5.2577319e-02
-2.9570323e-02
-1.1501571e-04
2.1295104e-03
-3.3324943e-02
-9.4501418e-02
-1.5487338e-01
-1.9166705e-01
-1.8935549e-01
-1.2765160e-01
1.4265737e-03
1.8052674e-01
3.5921156e-01
4.5224116e-01
3.8548872e-01
1.6554156e-01
-1.1263063e-01
-3.3736162e-01
-4.4565545e-01
-4.3580317e-01
-3.2624163e-01
-1.1720367e-01
1.7155101e-01
4.5731116e-01
6.2977611e-01
6.2369163e-01
4.5447916e-01
1.9816920e-01
-5.5981915e-02
-2.4616592e-01
-3.5180188e-01
-3.8187562e-01
-3.5892594e-01
-3.0715182e-01
-2.4428189e-01
-1.8403305e-01
-1.3350370e-01
-9.7627465e-02
-8.3154325e-02
-8.6869769e-02
-8.8909838e-02
-5.9601348e-02
2.6765104e-02
1.9009005e-01
4.2731969e-01
6.6949198e-01
7.8455410e-01
6.6888848e-01
3.4304118e-01
-5.3624972e-02
-3.6823409e-01
-5.3119151e-01
-5.5392955e-01
-4.7208683e-01
-3.2478792e-01
-1.6833228e-01
-6.1172341e-02
-2.6595949e-02
-4.1459889e-02
-6.1554299e-02
-4.7232422e-02
2.7338301e-02
1.5764595e-01
3.0269487e-01
3.9879836e-01
3.8760265e-01
2.6211901e-01
7.6241688e-02
-9.8531551e-02
-2.1036001e-01
-2.3817074e-01
-1.8975045e-01
-9.5244043e-02
-2.3064694e-03
4.1795223e-02
2.2162256e-02
-3.6077685e-02
-9.1170474e-02
-1.1136594e-01
-8.8258737e-02
-3.6090640e-02
1.8468977e-02
5.2600857e-02
6.0327165e-02
5.3641012e-02
4.9387242e-02
5.5456779e-02
6.9998764e-02
8.5342316e-02
9.2844008e-02
8.6230660e-02
6.3827393e-02
3.0375624e-02
-5.8265647e-03
-3.6515496e-02
-5.7010247e-02
-6.6826050e-02
-7.0750952e-02
-7.6222374e-02
-8.7646190e-02
-1.0689078e-01
-1.2971208e-01
-1.4713368e-01
-1.5396162e-01
-1.5042776e-01
-1.4381716e-01
-1.4221434e-01
-1.3704825e-01
-1.0522145e-01
-2.5968111e-02
1.0832226e-01
2.7974852e-01
4.4191062e-01
5.2895437e-01
4.8800118e-01
3.2704395e-01
1.1322073e-01
-7.1212936e-02
-1.7117152e-01
-1.8113150e-01
-1.3289730e-01
-7.4648414e-02
-4.9337338e-02
-6.4006341e-02
-9.3113137e-02
-1.1434456e-01
-1.2167120e-01
-1.2082421e-01
-1.2289996e-01
-1.2759546e-01
-1.1917227e-01
-8.5517211e-02
-3.0390136e-02
2.9354450e-02
6.6951866e-02
7.2474110e-02
8.3692238e-02
1.4696061e-01
2.5591199e-01
3.4492954e-01
3.3158708e-01
1.8978429e-01
-1.7969197e-02
-2.0019611e-01
-3.0277378e-01
-3.2000725e-01
-2.9152315e-01
-2.5188735e-01
-1.8783148e-01
-9.0406947e-02
2.4479175e-02
1.3205192e-01
1.9950695e-01
2.1044129e-01
1.7586141e-01
1.1979550e-01
6.5143483e-02
2.2517984e-02
-8.3185403e-03
-2.7553935e-02
-3.2639632e-02
-2.2982187e-02
-1.3075993e-03
2.4134691e-02
3.8036183e-02
3.0042721e-02
2.0933395e-03
-3.5299948e-02
-6.8088785e-02
-8.5859041e-02
-8.3497606e-02
-6.1037429e-02
-2.5795046e-02
7.0608289e-03
2.3123037e-02
1.7455282e-02
-2.8428763e-03
-1.8598353e-02
-1.3847222e-02
1.0538134e-02
3.3868559e-02
2.4820828e-02
-3.2146556e-02
-1.1727308e-01
-1.8457904e-01
-1.9311597e-01
-1.2466760e-01
1.1978355e-02
1.7251688e-01
2.8303539e-01
2.8588645e-01
1.8960259e-01
5.6726089e-02
-4.2818469e-02
-6.5013195e-02
-7.3645698e-03
9.7273558e-02
1.8980291e-01
2.1107111e-01
1.4583669e-01
2.4395304e-02
-1.0783529e-01
-2.1555418e-01
-2.8832720e-01
-3.2678089e-01
-3.2740410e-01
-2.9076626e-01
-2.2073565e-01
-1.2065067e-01
6.2998469e-03
1.5333758e-01
2.9803269e-01
4.0415099e-01
4.3219983e-01
3.5857169e-01
2.0309331e-01
2.2486898e-02
-1.2400819e-01
-1.9967881e-01
-2.0078806e-01
-1.4920005e-01
-8.1044493e-02
-3.0163032e-02
-5.7982535e-03
2.8062303e-03
6.2649955e-03
5.7497407e-03
-4.5842848e-03
-2.6143765e-02
-5.2055201e-02
-6.9973674e-02
-6.6144189e-02
-3.7274693e-02
8.2644522e-03
5.8704790e-02
9.9815170e-02
1.1791538e-01
1.0599074e-01
6.2914540e-02
-1.6794164e-03
-6.5584906e-02
-1.0891456e-01
-1.2035386e-01
-9.7897247e-02
-4.9504168e-02
9.6413113e-03
5.7129736e-02
7.2004400e-02
5.1404483e-02
1.5342703e-02
-9.5300473e-03
-1.0088744e-02
6.3989295e-03
1.9096228e-02
9.2681718e-03
-2.2627545e-02
-5.5083656e-02
-6.2986985e-02
-3.2352906e-02
3.1707833e-02
9.9781132e-02
1.3265060e-01
1.0953921e-01
4.4990129e-02
-2.4287620e-02
-7.1145511e-02
-8.7196848e-02
-7.5805105e-02
-4.6408706e-02
-8.4008679e-03
2.7949902e-02
5.1130408e-02
5.2615779e-02
3.1795739e-02
-3.9730406e-03
-4.1799766e-02
-6.8453333e-02
-7.8478070e-02
-7.0671177e-02
-4.5890836e-02
-1.0447468e-02
2.5652311e-02
5.1001303e-02
5.6702902e-02
4.2746133e-02
2.0823851e-02
6.3639273e-03
8.4293339e-03
2.3646788e-02
3.5125308e-02
2.5151790e-02
-9.5353398e-03
-5.3052795e-02
-7.9208765e-02
-6.8390932e-02
-1.9042669e-02
4.7747961e-02
9.6157692e-02
9.7666765e-02
5.3048845e-02
-8.3067758e-03
-5.3588450e-02
-6.5354897e-02
-4.6856589e-02
-1.7894981e-02
3.4035606e-04
-1.8863277e-03
-1.8713517e-02
-3.3483096e-02
-3.1482156e-02
-8.9758267e-03
2.6359542e-02
5.7741143e-02
6.8888594e-02
5.4973554e-02
2.1307579e-02
-2.0361414e-02
-5.3975799e-02
-6.8279271e-02
-6.0728061e-02
-3.4204629e-02
-2.2808505e-04
2.5153032e-02
3.2480411e-02
2.2074778e-02
1.4338506e-03
-2.3029888e-02
-3.9261618e-02
-3.3287585e-02
-1.3992895e-02
1.5974869e-03
8.0945037e-03
5.5109982e-03
4.1435638e-04
1.3600484e-03
7.6908794e-03
1.4988952e-02
2.0564978e-02
2.0711721e-02
1.3327271e-02
6.5731447e-04
-1.2381030e-02
-2.0222461e-02
-1.8427623e-02
-5.5347505e-03
1.6529073e-02
4.3025598e-02
6.5481704e-02
7.3096095e-02
6.0565072e-02
3.2082521e-02
-1.9587226e-03
-2.8978614e-02
-4.1920973e-02
-4.3331188e-02
-3.9195248e-02
-3.6264520e-02
-3.7214970e-02
-3.6166977e-02
-2.6464699e-02
-6.8335887e-03
1.7040838e-02
3.5480291e-02
4.3646699e-02
4.5306338e-02
4.8156172e-02
5.6429335e-02
6.4750565e-02
5.8743310e-02
2.9064871e-02
-1.8434638e-02
-6.8775381e-02
-1.0301025e-01
-1.0723318e-01
-8.2921373e-02
-4.2095617e-02
-2.3010802e-04
2.9473842e-02
4.2208183e-02
4.1090057e-02
3.3182693e-02
2.5731908e-02
2.2271586e-02
2.1855351e-02
2.1430456e-02
1.8249468e-02
1.1843797e-02
2.7380402e-03
-9.1456731e-03
-2.3257694e-02
-3.7370644e-02
-4.7742753e-02
-5.0735387e-02
-4.4789876e-02
-3.1221807e-02
-1.4451296e-02
-7.6997233e-04
5.4947385e-03
5.3835303e-03
3.4147415e-03
5.1463616e-03
1.4315644e-02
2.7391548e-02
3.7117908e-02
3.8784443e-02
3.1334481e-02
1.8960777e-02
8.0541941e-03
2.8327003e-03
4.5389181e-03
1.1436239e-02
1.9856475e-02
2.3657762e-02
1.7082648e-02
-1.8528639e-04
-2.2291109e-02
-3.8888752e-02
-4.2040190e-02
-3.3614526e-02
-2.3301817e-02
-2.1060302e-02
-2.9928808e-02
-4.2951261e-02
-4.8923552e-02
-3.8738770e-02
-9.7578459e-03
3.0664943e-02
6.8696555e-02
9.0265462e-02
8.9072778e-02
7.0044037e-02
4.2709374e-02
1.5015917e-02
-8.4028506e-03
-2.4652166e-02
-3.1236840e-02
-2.7147251e-02
-1.4546293e-02
6.1660638e-05
8.6653131e-03
7.1435825e-03
-2.1441227e-03
-1.2476216e-02
-1.8124812e-02
-1.7253425e-02
-1.2361788e-02
-1.0148971e-02
-1.5896487e-02
-2.7905707e-02
-3.9231724e-02
-4.3223063e-02
-3.7571675e-02
-2.5665358e-02
-1.3344917e-02
-3.1775092e-03
5.4424573e-03
1.4925740e-02
2.8054169e-02
4.3815753e-02
5.7366797e-02
6.3696096e-02
5.9660416e-02
4.5873859e-02
2.5875388e-02
2.9584390e-03
-2.0078996e-02
-4.1512102e-02
-5.9156878e-02
-6.9328478e-02
-7.0644928e-02
-6.3533045e-02
-4.6868046e-02
-1.9799961e-02
1.5453240e-02
5.2201901e-02
7.8759491e-02
8.2143667e-02
5.9638524e-02
2.5288739e-02
-1.6779819e-03
-7.2494848e-03
1.1375095e-02
4.0523310e-02
5.6918036e-02
4.1545580e-02
-3.2831495e-03
-5.2459289e-02
-8.0760295e-02
-7.6416647e-02
-4.3739666e-02
-1.9689303e-03
2.8574700e-02
3.8751299e-02
3.1016504e-02
1.1245290e-02
-1.5823684e-02
-4.3366535e-02
-5.9108847e-02
-5.2486469e-02
-2.2166270e-02
2.4528285e-02
6.8824250e-02
8.9787378e-02
7.4676443e-02
2.1064080e-02
-6.4197063e-02
-1.7673588e-01
-2.8167470e-01
-3.1022098e-01
-2.3651883e-01
-7.8717806e-02
1.3574007e-01
3.6008684e-01
5.2515736e-01
5.6563975e-01
4.6684959e-01
2.7516996e-01
6.2422516e-02
-1.1452183e-01
-2.3224474e-01
-2.9234702e-01
-3.0825989e-01
-2.9498578e-01
-2.6002389e-01
-2.0573814e-01
-1.3595371e-01
-5.8108075e-02
1.7081371e-02
7.7140419e-02
1.0877502e-01
1.0663482e-01
7.9298431e-02
4.1861868e-02
1.2585729e-02
3.8893775e-03
1.3419868e-02
3.0183095e-02
3.6319715e-02
1.4825391e-02
-3.0074833e-02
-7.2773225e-02
-8.8924054e-02
-6.3328932e-02
9.7874727e-03
1.1706752e-01
2.1775913e-01
2.5480906e-01
2.0252337e-01
9.2299966e-02
-2.1517365e-02
-1.0372945e-01
-1.5100292e-01
-1.8102446e-01
-2.1296778e-01
-2.4846377e-01
-2.7416637e-01
-2.7429662e-01
-2.3231739e-01
-1.3738288e-01
6.8151124e-03
1.7261664e-01
3.1147034e-01
3.8036696e-01
3.6076612e-01
2.6309353e-01
1.2441638e-01
-3.1977639e-03
-7.8201647e-02
-8.6469774e-02
-3.4768339e-02
4.8143682e-02
1.1410978e-01
1.2452746e-01
7.3519521e-02
-1.4030580e-02
-9.4504288e-02
-1.3305981e-01
-1.2493144e-01
-8.5429888e-02
-4.2672103e-02
-2.3746123e-02
-3.1122241e-02
-4.9130696e-02
-6.1606771e-02
-6.0191594e-02
-4.8625639e-02
-3.8049901e-02
-3.7020964e-02
-4.3740127e-02
-4.6700143e-02
-3.4394321e-02
-4.0007694e-03
3.6372193e-02
7.4047699e-02
1.0314155e-01
1.2525747e-01
1.4150097e-01
1.4761235e-01
1.3360577e-01
9.3665747e-02
3.8371859e-02
-1.1441151e-02
-4.5394531e-02
-7.1788535e-02
-1.0603824e-01
-1.5442543e-01
-2.0646653e-01
-2.4428375e-01
-2.5549733e-01
-2.3629457e-01
-1.8561754e-01
-1.0249567e-01
5.0914355e-03
1.1516234e-01
2.0063717e-01
2.5069584e-01
2.8207249e-01
3.1884589e-01
3.5808323e-01
3.6028324e-01
2.8133026e-01
1.1517117e-01
-9.0612138e-02
-2.6195324e-01
-3.5140223e-01
-3.6163381e-01
-3.1608112e-01
-2.3202633e-01
-1.2217383e-01
2.8013128e-04
1.1430789e-01
1.9180254e-01
2.1348395e-01
1.8056839e-01
1.0882292e-01
2.0705661e-02
-5.9562506e-02
-1.1641299e-01
-1.4150822e-01
-1.3294205e-01
-9.8813674e-02
-5.3212618e-02
-1.0699962e-02
2.0301921e-02
3.8521984e-02
4.9514268e-02
6.3455535e-02
8.5483299e-02
1.0976188e-01
1.2026832e-01
9.6893739e-02
3.3288809e-02
-5.2554202e-02
-1.3119571e-01
-1.7811916e-01
-1.8342415e-01
-1.5331483e-01
-1.0315509e-01
-5.0789513e-02
-6.9712416e-03
3.4447877e-02
8.7967775e-02
1.5722202e-01
2.2498528e-01
2.5002331e-01
1.8926851e-01
5.2350633e-02
-9.5150508e-02
-1.9212212e-01
-2.0976535e-01
-1.4580410e-01
-2.0066157e-02
1.3127647e-01
2.5382612e-01
2.9084752e-01
2.2960610e-01
1.1127642e-01
-8.1085976e-03
-9.3808879e-02
-1.4164723e-01
-1.6028821e-01
-1.5854120e-01
-1.4255589e-01
-1.1297684e-01
-7.6301084e-02
-4.9462056e-02
-4.3403673e-02
-5.2958710e-02
-6.5872437e-02
-7.3635231e-02
-7.2599099e-02
-6.2272613e-02
-4.0661598e-02
-6.1126891e-03
3.5053661e-02
7.1342833e-02
9.2932096e-02
9.6941804e-02
8.9624757e-02
8.1546110e-02
7.9459896e-02
8.2371138e-02
8.3989549e-02
7.2351536e-02
3.5107953e-02
-2.9197797e-02
-1.0734214e-01
-1.7083986e-01
-1.8879812e-01
-1.4320474e-01
-3.6408999e-02
1.0332232e-01
2.3109169e-01
3.0067367e-01
2.8312096e-01
1.8665129e-01
5.1256139e-02
-7.5505313e-02
-1.6323477e-01
-2.0865674e-01
-2.2195216e-01
-2.1816056e-01
-2.1049859e-01
-1.9471086e-01
-1.5489822e-01
-8.3469269e-02
1.3123717e-02
1.1932905e-01
2.2197226e-01
3.1103866e-01
3.6423035e-01
3.4903959e-01
2.4908824e-01
8.6936520e-02
-8.3904453e-02
-2.1118905e-01
-2.6836599e-01
-2.5629983e-01
-1.9416079e-01
-1.1308191e-01
-4.6907434e-02
-1.6702816e-02
-1.9083191e-02
-3.2494061e-02
-3.8562998e-02
-3.0287366e-02
-7.2188987e-03
2.4794627e-02
6.1659570e-02
1.0510251e-01
1.4784140e-01
1.6438823e-01
1.2647142e-01
3.4491731e-02
-7.9267574e-02
-1.7838720e-01
-2.3441542e-01
-2.2576191e-01
-1.4339092e-01
-5.3733043e-03
1.4024594e-01
2.4593773e-01
2.9455620e-01
2.9042645e-01
2.3378408e-01
1.1692083e-01
-4.6026574e-02
-2.0417901e-01
-3.0204157e-01
-3.0813169e-01
-2.2475884e-01
-8.2806136e-02
7.4766153e-02
1.9742033e-01
2.4313776e-01
2.0815453e-01
1.2290359e-01
2.4024457e-02
-6.6588735e-02
-1.4459813e-01
-2.0617856e-01
-2.4051241e-01
-2.3589360e-01
-1.8695897e-01
-9.6088533e-02
3.1526839e-02
1.8049629e-01
3.1547022e-01
3.8141565e-01
3.3171484e-01
1.7663532e-01
-1.5474822e-02
-1.6404640e-01
-2.1901692e-01
-1.7861546e-01
-8.5157503e-02
-5.0768837e-03
1.4206722e-02
-1.9313435e-02
-5.9181127e-02
-6.6064518e-02
-2.8883339e-02
3.6580921e-02
8.9985873e-02
8.4146876e-02
6.6442054e-03
-1.0449792e-01
-1.9142666e-01
-2.0931414e-01
-1.3886710e-01
9.5664593e-03
1.9289924e-01
3.4160942e-01
3.8680064e-01
3.0468857e-01
1.3716325e-01
-3.9660793e-02
-1.5904100e-01
-1.9400306e-01
-1.6077932e-01
-9.6180682e-02
-4.4016928e-02
-3.0979358e-02
-4.5079922e-02
-5.7245215e-02
-4.9611159e-02
-2.3890188e-02
2.7165333e-03
1.5232570e-02
1.4060902e-02
5.8813972e-03
-8.2296096e-03
-3.3605829e-02
-7.0320586e-02
-1.0709330e-01
-1.2694652e-01
-1.0612233e-01
-2.7103471e-02
9.6956029e-02
2.1671177e-01
2.6566531e-01
2.1157222e-01
9.5294903e-02
-5.3219566e-03
-3.8824780e-02
-3.4112745e-03
5.8350720e-02
8.5178051e-02
4.6237459e-02
-3.6260985e-02
-1.1494474e-01
-1.5572497e-01
-1.5173964e-01
-1.1585531e-01
-7.2304810e-02
-4.1181712e-02
-2.6048709e-02
-1.4339789e-02
1.1138070e-02
5.4292078e-02
1.0247543e-01
1.3304907e-01
1.2768978e-01
8.7347089e-02
3.0993226e-02
-1.8558726e-02
-4.9628675e-02
-6.1703218e-02
-6.1456585e-02
-6.2251867e-02
-7.0041217e-02
-7.8360906e-02
-7.9128973e-02
-6.2631612e-02
-2.1576314e-02
3.9139955e-02
1.0118162e-01
1.3858264e-01
1.3321089e-01
8.4025584e-02
6.9778869e-03
-7.1028210e-02
-1.2808767e-01
-1.5318176e-01
-1.3976900e-01
-8.4228411e-02
4.1620059e-03
9.5426983e-02
1.4649222e-01
1.2184678e-01
2.4094098e-02
-9.7884242e-02
-1.8165330e-01
-1.8084884e-01
-7.6649141e-02
1.0799593e-01
3.0065485e-01
3.9939848e-01
3.4285863e-01
1.7185063e-01
-1.5249444e-02
-1.4760945e-01
-2.0076602e-01
-1.8275636e-01
-1.2250522e-01
-5.4443335e-02
-9.5638952e-03
-2.4404688e-03
-2.2915088e-02
-4.9477710e-02
-6.5707540e-02
-6.7490903e-02
-5.9640004e-02
-4.8256147e-02
-3.7847808e-02
-2.9798465e-02
-2.3700952e-02
-1.8493228e-02
-9.9802254e-03
7.7232609e-03
3.9164401e-02
8.4099707e-02
1.3299744e-01
1.6724611e-01
1.6558063e-01
1.1995945e-01
4.4763281e-02
-3.3901339e-02
-9.1630008e-02
-1.1659447e-01
-1.1162774e-01
-8.8494049e-02
-6.6298206e-02
-5.7973917e-02
-5.7079010e-02
-4.9743237e-02
-2.5965261e-02
1.6410722e-02
6.5423310e-02
1.0172964e-01
1.1376911e-01
1.0421437e-01
8.4936052e-02
6.5381154e-02
4.5959125e-02
2.2322159e-02
-8.0066000e-03
-4.2786297e-02
-7.4613484e-02
-9.5135650e-02
-1.0130796e-01
-9.6454442e-02
-8.5713794e-02
-7.1247588e-02
-5.2740931e-02
-2.8459420e-02
3.6361304e-03
4.1442103e-02
7.7884319e-02
1.0583526e-01
1.2103416e-01
1.2056094e-01
1.0255681e-01
6.7448324e-02
1.9705220e-02
-3.1210800e-02
-7.4813071e-02
-1.0436009e-01
-1.1836636e-01
-1.1955750e-01
-1.1138324e-01
-9.5547529e-02
-7.3950534e-02
-4.9413823e-02
-2.1441111e-02
1.3131830e-02
5.6440332e-02
1.0778626e-01
1.5864858e-01
1.9179797e-01
1.8709923e-01
1.3512252e-01
4.7867080e-02
-4.8005378e-02
-1.2367131e-01
-1.6226562e-01
-1.6316012e-01
-1.3440357e-01
-9.1123494e-02
-4.8291750e-02
-8.8209076e-03
3.3648095e-02
8.5205369e-02
1.4382863e-01
1.9088420e-01
1.9727046e-01
1.4891922e-01
6.0677741e-02
-3.6074020e-02
-1.1454183e-01
-1.6179637e-01
-1.7610800e-01
-1.6668975e-01
-1.5097320e-01
-1.4634001e-01
-1.5854651e-01
-1.7321658e-01
-1.6463440e-01
-1.1251860e-01
-1.0497938e-02
1.3108909e-01
2.7913891e-01
3.8364353e-01
4.0238205e-01
3.2858029e-01
1.9904491e-01
6.5838694e-02
-3.1827289e-02
-7.6964473e-02
-7.7582401e-02
-5.2498697e-02
-2.2902259e-02
-1.2871241e-02
-3.2710227e-02
-7.2369080e-02
-1.1453129e-01
-1.4327576e-01
-1.5037542e-01
-1.3590095e-01
-1.0378714e-01
-6.0593630e-02
-1.4604473e-02
2.2864763e-02
4.4483990e-02
5.0423929e-02
4.6671758e-02
4.9707076e-02
6.9635909e-02
9.4935473e-02
1.0423303e-01
8.1694957e-02
2.8612022e-02
-3.5002595e-02
-8.2670775e-02
-9.7239464e-02
-8.6505976e-02
-8.6825807e-02
-1.1108964e-01
-1.2648683e-01
-1.1679446e-01
-9.0218182e-02
-5.3103584e-02
-1.2320938e-02
3.2393884e-02
8.3124106e-02
1.3419935e-01
1.8131150e-01
2.2011446e-01
2.4067413e-01
2.3418642e-01
1.9704885e-01
1.3025818e-01
4.1792773e-02
-5.2844647e-02
-1.4028063e-01
-2.1043326e-01
-2.5055963e-01
-2.5372128e-01
-2.2053132e-01
-1.5430735e-01
-6.4587117e-02
3.2180092e-02
1.1407589e-01
1.6075417e-01
1.6472481e-01
1.3773167e-01
1.0167971e-01
7.2581805e-02
5.6144259e-02
4.3168346e-02
1.5795921e-02
-3.4711723e-02
-1.0452231e-01
-1.7248755e-01
-2.0553821e-01
-1.8355919e-01
-1.1001032e-01
-1.4506509e-02
5.1286832e-02
4.5287330e-02
-2.8463960e-02
-1.1968038e-01
-1.6583076e-01
-1.2363937e-01
1.6655839e-02
2.1838557e-01
3.9364095e-01
4.4796428e-01
3.6081404e-01
2.0059762e-01
5.4536268e-02
-3.2208705e-02
-6.4686136e-02
-8.0978243e-02
-1.2011431e-01
-1.8504721e-01
-2.4424300e-01
-2.6616173e-01
-2.4233396e-01
-1.8547181e-01
-1.1728092e-01
-5.7510520e-02
-1.0119158e-02
3.9736646e-02
1.1044124e-01
1.9921171e-01
2.6563731e-01
2.5538239e-01
1.4845784e-01
-9.6850563e-03
-1.3795530e-01
-1.8448977e-01
-1.3753750e-01
-1.5016756e-02
1.2939711e-01
2.2298822e-01
2.1454388e-01
1.1694869e-01
-4.5152877e-03
-9.4500424e-02
-1.3263041e-01
-1.2422323e-01
-8.9441895e-02
-5.0054393e-02
-2.0760624e-02
-7.0057229e-03
-5.2362263e-03
-4.6092428e-03
1.8079680e-03
1.4269924e-02
2.9703877e-02
4.0501426e-02
4.0856270e-02
3.0833682e-02
1.3753794e-02
-9.0365064e-03
-3.8735657e-02
-7.7186303e-02
-1.1900446e-01
-1.4718953e-01
-1.5031001e-01
-1.3053822e-01
-1.0349607e-01
-9.2878024e-02
-1.0784777e-01
-1.3088063e-01
-1.2744266e-01
-6.7477117e-02
6.8435542e-02
2.7875996e-01
5.0940614e-01
6.5986406e-01
6.3981859e-01
4.4107831e-01
1.4849767e-01
-1.2946119e-01
-3.1718749e-01
-3.9084866e-01
-3.6926553e-01
-2.8415049e-01
-1.6627005e-01
-4.8119265e-02
3.6708762e-02
6.3985301e-02
3.1121580e-02
-3.5740408e-02
-9.7783990e-02
-1.3312149e-01
-1.4069629e-01
-1.3248418e-01
-1.2222405e-01
-1.1508811e-01
-1.0906794e-01
-9.4389124e-02
-5.3447750e-02
3.6412186e-02
1.8924924e-01
3.8382545e-01
5.5054788e-01
5.9762845e-01
4.7653159e-01
2.2320240e-01
-6.8102991e-02
-2.9835119e-01
-4.1108850e-01
-4.0193884e-01
-2.9566208e-01
-1.4288774e-01
-1.4009630e-02
4.2690233e-02
2.8379007e-02
-1.9935726e-02
-6.0797308e-02
-7.4851775e-02
-6.5841658e-02
-5.4783747e-02
-6.9414122e-02
-1.0609974e-01
-1.2483699e-01
-8.8488724e-02
2.0563327e-02
1.9099105e-01
3.6900043e-01
4.7216912e-01
4.3814357e-01
2.7856434e-01
7.3152411e-02
-8.9932658e-02
-1.6305747e-01
-1.5011109e-01
-9.0116629e-02
-3.9650550e-02
-4.1849723e-02
-9.1194620e-02
-1.4794650e-01
-1.8091729e-01
-1.8627039e-01
-1.7400721e-01
-1.4806070e-01
-1.0949017e-01
-6.0475383e-02
-5.4795171e-03
4.3747870e-02
7.8471118e-02
9.9295763e-02
1.0841537e-01
1.1131759e-01
1.1363698e-01
1.1176532e-01
1.0103610e-01
8.0649933e-02
5.3082089e-02
2.5873123e-02
4.7365931e-03
-9.8372429e-03
-2.1346936e-02
-3.6255495e-02
-5.8854097e-02
-8.7590707e-02
-1.1541006e-01
-1.3343725e-01
-1.3693000e-01
-1.2887869e-01
-1.1455358e-01
-9.6757730e-02
-7.5589205e-02
-4.6113738e-02
-9.9208562e-04
6.0247868e-02
1.2528008e-01
1.8130843e-01
2.2746686e-01
2.6953379e-01
3.0220147e-01
2.9288470e-01
2.0292487e-01
3.9570601e-02
-1.3628708e-01
-2.6116092e-01
-3.0325382e-01
-2.6720191e-01
-1.8502066e-01
-9.3811555e-02
-2.1613663e-02
1.9960768e-02
4.1521051e-02
6.2755309e-02
9.1285516e-02
1.1823526e-01
1.2210849e-01
8.4620405e-02
1.4731890e-02
-5.6306488e-02
-1.0084634e-01
-1.0659626e-01
-7.9939346e-02
-4.0644636e-02
-7.5599664e-03
7.6486401e-03
3.8211658e-03
-6.4587083e-03
-7.6479197e-03
8.1701040e-03
4.0106844e-02
7.4708616e-02
9.2917754e-02
8.4042469e-02
5.2568658e-02
1.3804164e-02
-1.8209065e-02
-3.5704196e-02
-4.1796708e-02
-4.8882344e-02
-6.3270899e-02
-7.9475120e-02
-8.6494052e-02
-7.2988155e-02
-3.3484148e-02
2.7565109e-02
9.5732403e-02
1.4669971e-01
1.5782642e-01
1.2295610e-01
5.4216801e-02
-2.4384940e-02
-8.9617477e-02
-1.2571398e-01
-1.2561013e-01
-9.2878404e-02
-4.0425746e-02
1.1087991e-02
4.0383879e-02
3.9677990e-02
2.1112490e-02
4.2282285e-03
1.8561168e-03
1.5647030e-02
3.4405136e-02
3.7730289e-02
9.2048731e-03
-5.1441180e-02
-1.2468809e-01
-1.7996383e-01
-1.9380918e-01
-1.5634783e-01
-6.9540572e-02
5.3969243e-02
1.8647476e-01
2.8530500e-01
3.1264818e-01
2.5642121e-01
1.4165702e-01
2.4468986e-02
-4.4820596e-02
-5.3095380e-02
-2.3322419e-02
-2.9312804e-03
-3.1042000e-02
-1.0271241e-01
-1.7963216e-01
-2.2424843e-01
-2.1813347e-01
-1.6237418e-01
-7.1702187e-02
2.8593345e-02
1.1253155e-01
1.6653066e-01
1.9138761e-01
1.9650405e-01
1.8785452e-01
1.6221258e-01
1.1215980e-01
3.4472478e-02
-5.8388936e-02
-1.4157421e-01
-1.9553101e-01
-2.1095087e-01
-1.8671779e-01
-1.2949808e-01
-5.4540756e-02
1.1526184e-02
4.3214866e-02
3.3686757e-02
-5.8312683e-04
-2.8634792e-02
-2.5461565e-02
1.5821760e-02
8.3803026e-02
1.5330652e-01
1.9379982e-01
1.8010476e-01
1.0704698e-01
-4.3833113e-03
-1.1508855e-01
-1.8690318e-01
-2.0065594e-01
-1.5754522e-01
-7.2437852e-02
2.7754612e-02
1.0434278e-01
1.2499938e-01
8.6362680e-02
1.2914858e-02
-5.6930996e-02
-8.8126533e-02
-6.7257366e-02
-1.0090242e-02
5.1885817e-02
9.0192023e-02
9.4379459e-02
7.5543510e-02
4.5314745e-02
1.0201491e-02
-2.5227743e-02
-6.0493185e-02
-9.6453424e-02
-1.4297040e-01
-1.8873105e-01
-1.8570567e-01
-1.0310425e-01
5.4749495e-02
2.5002742e-01
3.9736490e-01
4.1063297e-01
2.7360161e-01
5.1692589e-02
-1.5062211e-01
-2.5863774e-01
-2.5429433e-01
-1.6047276e-01
-3.4294888e-02
6.0471993e-02
9.2050625e-02
7.1119987e-02
2.9755726e-02
-8.5198842e-03
-3.7411105e-02
-6.0093572e-02
-7.6193383e-02
-7.8991264e-02
-6.2021726e-02
-2.3709711e-02
2.4018484e-02
5.9255864e-02
6.3076464e-02
3.2962674e-02
-1.1789871e-02
-4.9202498e-02
-6.5039681e-02
-5.2928195e-02
-1.7808323e-02
3.0997776e-02
8.0501684e-02
1.1284186e-01
1.1096262e-01
6.4706734e-02
-1.7968370e-02
-1.0663313e-01
-1.6529896e-01
-1.7557298e-01
-1.3944964e-01
-7.3329822e-02
-9.5903011e-03
1.9078672e-02
4.2709659e-03
-3.5305046e-02
-6.2503429e-02
-3.9241428e-02
4.7604376e-02
1.7368972e-01
2.8393603e-01
3.2293220e-01
2.7305844e-01
1.5738612e-01
1.6150030e-02
-1.1094863e-01
-1.9092394e-01
-2.0528725e-01
-1.5784742e-01
-7.0732512e-02
2.0625866e-02
7.9187618e-02
9.0895639e-02
6.9254287e-02
3.3964328e-02
2.3750777e-04
-2.4422796e-02
-4.2576505e-02
-6.2581060e-02
-9.3481233e-02
-1.3656045e-01
-1.8151645e-01
-2.1059579e-01
-2.0783704e-01
-1.6550170e-01
-7.7810890e-02
5.8336136e-02
2.2460376e-01
3.6883061e-01
4.2145972e-01
3.4700161e-01
1.7773995e-01
-1.1189119e-02
-1.4505856e-01
-1.8408699e-01
-1.3275946e-01
-2.8567465e-02
6.2792740e-02
7.7329463e-02
8.6949577e-03
-9.2553651e-02
-1.7193748e-01
-2.0039410e-01
-1.7981078e-01
-1.3805543e-01
-1.0558964e-01
-9.2144743e-02
-7.8910698e-02
-3.2615386e-02
6.7293991e-02
2.1189742e-01
3.5513224e-01
4.2207123e-01
3.6244236e-01
2.0123855e-01
1.3840241e-02
-1.2938266e-01
-1.9354367e-01
-1.8365338e-01
-1.3220130e-01
-7.9723237e-02
-5.4165570e-02
-6.3229908e-02
-9.5437571e-02
-1.2539841e-01
-1.2804854e-01
-9.1950652e-02
-2.4485905e-02
5.4232175e-02
1.2395262e-01
1.7128168e-01
1.8913944e-01
1.7344954e-01
1.2497758e-01
4.7512251e-02
-4.8915736e-02
-1.4007434e-01
-2.0267985e-01
-2.2700847e-01
-2.1300923e-01
-1.6286384e-01
-7.7184098e-02
4.1719062e-02
1.8161105e-01
3.0323291e-01
3.4742488e-01
2.7814114e-01
1.2104358e-01
-4.7787921e-02
-1.6060994e-01
-1.9350884e-01
-1.5857403e-01
-9.1341001e-02
-3.7284953e-02
-2.4926778e-02
-4.9284420e-02
-8.2909572e-02
-9.6422976e-02
-7.5057212e-02
-2.0968892e-02
5.2505231e-02
1.2383117e-01
1.7000241e-01
1.7570203e-01
1.3494032e-01
5.7211037e-02
-2.7015241e-02
-8.5925325e-02
-1.0186655e-01
-7.4287601e-02
-2.2023634e-02
2.6259565e-02
4.5948496e-02
2.8607942e-02
-1.7250574e-02
-7.3627156e-02
-1.1941297e-01
-1.3825674e-01
-1.2380978e-01
-7.8105293e-02
-7.9914952e-03
7.2132444e-02
1.4478765e-01
1.9195585e-01
1.9416277e-01
1.4168968e-01
3.4758553e-02
-9.1464068e-02
-1.7769240e-01
-2.1383889e-01
-2.2131261e-01
-2.0406802e-01
-1.4966399e-01
-3.6056103e-02
1.4241614e-01
3.3877270e-01
4.5724341e-01
4.1902715e-01
2.3320603e-01
-5.1422856e-03
-1.9178985e-01
-2.8004502e-01
-2.7154716e-01
-1.8878376e-01
-7.7696599e-02
5.8680470e-03
2.9359318e-02
3.7083204e-03
-2.5563284e-02
-1.2738097e-02
5.7896363e-02
1.6210711e-01
2.4003692e-01
2.3158384e-01
1.2796248e-01
-2.3438088e-02
-1.5553072e-01
-2.2316447e-01
-2.1904611e-01
-1.6600909e-01
-1.0613715e-01
-7.0715207e-02
-5.7037599e-02
-4.1501506e-02
-4.3215671e-03
5.5185569e-02
1.1766915e-01
1.5612854e-01
1.5244527e-01
1.1368033e-01
6.5535824e-02
2.3891970e-02
-7.7002179e-03
-2.7505956e-02
-4.5056016e-02
-7.1657370e-02
-1.0034603e-01
-1.1850408e-01
-1.2027701e-01
-1.0619183e-01
-7.7608140e-02
-3.0817992e-02
4.1936528e-02
1.4710571e-01
2.6716478e-01
3.4454200e-01
3.1093314e-01
1.5640093e-01
-4.5139620e-02
-2.0269416e-01
-2.7194072e-01
-2.5713763e-01
-1.9374323e-01
-1.2874941e-01
-9.6052277e-02
-9.9677706e-02
-1.1220292e-01
-9.3406329e-02
-1.9937348e-02
9.8292940e-02
2.1809077e-01
2.8483184e-01
2.6745818e-01
1.7290958e-01
3.6328110e-02
-9.8134268e-02
-1.8824033e-01
-2.0595291e-01
-1.4580279e-01
-1.7677735e-02
1.4584493e-01
2.8290642e-01
3.2978383e-01
2.5946825e-01
1.0217923e-01
-6.9084109e-02
-1.8864479e-01
-2.3132931e-01
-2.0513859e-01
-1.4277152e-01
-9.7282415e-02
-1.0819421e-01
-1.6335236e-01
-2.1219115e-01
-2.0950310e-01
-1.3494585e-01
1.3078811e-02
2.1067359e-01
3.9194571e-01
4.6774478e-01
3.8999345e-01
1.9476476e-01
-2.6175353e-02
-1.8499827e-01
-2.3917520e-01
-1.9601933e-01
-9.2073266e-02
1.7707860e-02
7.6378185e-02
6.6884367e-02
1.7333624e-02
-3.6589303e-02
-7.3005415e-02
-9.0961621e-02
-1.0755200e-01
-1.3657468e-01
-1.7030243e-01
-1.8190369e-01
-1.4476150e-01
-4.9136947e-02
9.4067081e-02
2.5278133e-01
3.7997947e-01
4.2990961e-01
3.7882234e-01
2.4340054e-01
7.3117346e-02
-7.7173003e-02
-1.7240680e-01
-2.0927754e-01
-2.0590471e-01
-1.8952533e-01
-1.8256401e-01
-1.8391484e-01
-1.7631485e-01
-1.4704635e-01
-9.1407349e-02
-1.4159275e-02
7.4455767e-02
1.6234799e-01
2.2548456e-01
2.3486060e-01
1.7653137e-01
6.8089327e-02
-4.6733711e-02
-1.2703777e-01
-1.5199123e-01
-1.2335687e-01
-5.7107571e-02
2.6460120e-02
1.0311450e-01
1.4871237e-01
1.4876709e-01
1.0298560e-01
2.6783884e-02
-5.0477071e-02
-1.0201721e-01
-1.1827417e-01
-1.0459616e-01
-7.7351051e-02
-5.8614356e-02
-6.3759817e-02
-8.8030356e-02
-1.0768517e-01
-9.9146790e-02
-5.3935272e-02
1.8013264e-02
8.9403932e-02
1.2444479e-01
1.0810580e-01
6.6127556e-02
3.6738332e-02
3.9240040e-02
6.9714355e-02
9.8837004e-02
8.7166529e-02
2.6021760e-02
-4.4096909e-02
-7.9397355e-02
-7.8524673e-02
-6.1935416e-02
-4.5285933e-02
-3.7593736e-02
-3.6343139e-02
-2.9653474e-02
-1.1185854e-02
1.8784721e-02
5.5777748e-02
8.6123674e-02
9.2548516e-02
6.5378357e-02
9.5829846e-03
-5.7416123e-02
-1.1356410e-01
-1.4165100e-01
-1.3425034e-01
-9.0393054e-02
-1.6890156e-02
6.9545359e-02
1.4407789e-01
1.8134169e-01
1.7157359e-01
1.2593380e-01
6.7617777e-02
1.6325942e-02
-2.2721052e-02
-5.3838230e-02
-8.2896647e-02
-1.1086533e-01
-1.2956194e-01
-1.2818384e-01
-1.0160014e-01
-5.2356423e-02
7.3689278e-03
5.8121615e-02
8.2572251e-02
7.6793117e-02
5.5685465e-02
4.1377571e-02
4.6532142e-02
6.5251338e-02
7.6909605e-02
6.2993169e-02
2.2938448e-02
-2.5392910e-02
-6.1596547e-02
-6.9247510e-02
-4.1944581e-02
7.2516549e-03
5.3930538e-02
7.2469122e-02
5.2861508e-02
9.9729600e-03
-3.3416726e-02
-6.0415971e-02
-6.7041418e-02
-6.3768470e-02
-6.4302137e-02
-7.6098913e-02
-9.6803323e-02
-1.1387896e-01
-1.1373571e-01
-9.0246213e-02
-4.4496780e-02
1.4273921e-02
7.2525294e-02
1.1851562e-01
1.4326574e-01
1.4562772e-01
1.3207629e-01
1.1154982e-01
9.2002875e-02
7.5195646e-02
5.6117674e-02
2.6105000e-02
-2.1094160e-02
-8.0463453e-02
-1.3524610e-01
-1.6622224e-01
-1.6304782e-01
-1.2618023e-01
-6.2636454e-02
1.3699790e-02
8.6078834e-02
1.3628769e-01
1.4740700e-01
1.1371561e-01
4.6157448e-02
-3.1529223e-02
-9.6256401e-02
-1.3055410e-01
-1.2560702e-01
-8.7110396e-02
-3.2380102e-02
1.3612032e-02
3.2792228e-02
2.9785445e-02
2.2158891e-02
2.6808494e-02
5.2055461e-02
9.1514791e-02
1.2863267e-01
1.4367836e-01
1.2383044e-01
7.0633092e-02
-4.4221895e-04
-6.6013347e-02
-1.0768206e-01
-1.1791361e-01
-9.8600096e-02
-5.9983602e-02
-1.4907396e-02
2.3584035e-02
4.4093404e-02
4.3156401e-02
2.4304074e-02
-6.2931183e-03
-4.0979859e-02
-7.0064009e-02
-8.5946903e-02
-8.7468853e-02
-7.8498875e-02
-6.6003973e-02
-5.4495912e-02
-4.1980606e-02
-2.3186602e-02
7.0042807e-03
5.0412677e-02
1.0323671e-01
1.5546226e-01
1.9014912e-01
1.8962413e-01
1.4965992e-01
8.3906997e-02
1.3790972e-02
-4.3289963e-02
-8.1742521e-02
-1.0334032e-01
-1.1102947e-01
-1.0894971e-01
-9.7946424e-02
-7.8216822e-02
-5.5721661e-02
-3.9703217e-02
-3.5078494e-02
-3.7649868e-02
-3.7491945e-02
-2.3041023e-02
8.7979797e-03
4.6249946e-02
7.2706854e-02
7.6094276e-02
5.8016811e-02
3.3973287e-02
1.9558624e-02
2.3353904e-02
4.5718984e-02
7.8415442e-02
1.0626015e-01
1.1273071e-01
8.9069905e-02
3.8012307e-02
-2.6212185e-02
-8.3637723e-02
-1.2202773e-01
-1.3754896e-01
-1.2860227e-01
-9.7742046e-02
-5.3418008e-02
-6.5453116e-03
3.4429787e-02
6.3493892e-02
8.4314109e-02
1.0663247e-01
1.2595163e-01
1.1802516e-01
4.6430388e-02
-7.1325028e-02
-1.5187207e-01
-1.5370176e-01
-8.7986506e-02
1.9302675e-02
1.0742594e-01
1.1571683e-01
4.0910994e-02
-7.5578306e-02
-1.7566619e-01
-2.0888274e-01
-1.6136270e-01
-5.3705399e-02
6.6743671e-02
1.4725916e-01
1.6807243e-01
1.4052937e-01
8.0886854e-02
5.0563116e-03
-6.2923055e-02
-9.6745571e-02
-7.9379074e-02
-3.9111855e-03
1.1184167e-01
2.1882488e-01
2.6333224e-01
2.1518740e-01
8.7968292e-02
-6.2503556e-02
-1.7769389e-01
-2.3220079e-01
-2.2691070e-01
-1.7270843e-01
-8.7205204e-02
4.4415906e-03
6.8716819e-02
8.2622810e-02
5.2785571e-02
8.3281662e-03
-2.1546740e-02
-2.4309781e-02
-5.6403884e-03
1.7485889e-02
2.8784140e-02
2.3425632e-02
9.7682492e-03
1.1008039e-05
2.1525180e-03
1.7186043e-02
3.5820227e-02
4.2344165e-02
2.5466216e-02
-1.4496155e-02
-6.6833359e-02
-1.1771936e-01
-1.5774282e-01
-1.8352353e-01
-1.9893032e-01
-2.0915854e-01
-2.0612333e-01
-1.7273971e-01
-9.7157274e-02
2.2628077e-02
1.7199793e-01
3.1712755e-01
4.1925792e-01
4.5091066e-01
4.0748853e-01
3.0871986e-01
1.8324501e-01
5.7556948e-02
-4.9361256e-02
-1.3246250e-01
-1.9126281e-01
-2.2310170e-01
-2.3078421e-01
-2.1629472e-01
-1.8059714e-01
-1.3456266e-01
-8.9519936e-02
-4.9808915e-02
-1.7211401e-02
8.0186185e-03
2.8320283e-02
4.7172148e-02
6.1559018e-02
6.6363910e-02
5.7046238e-02
3.2370706e-02
6.9618309e-03
-4.2683405e-03
4.3060137e-03
3.5051516e-02
7.9174619e-02
1.1939108e-01
1.4084600e-01
1.3672848e-01
1.0782489e-01
6.0844966e-02
3.8264175e-03
-5.7944900e-02
-1.1590550e-01
-1.6032446e-01
-1.8647863e-01
-1.9155603e-01
-1.7549629e-01
-1.4049288e-01
-8.8161528e-02
-2.0910204e-02
5.7776552e-02
1.3885177e-01
2.0419982e-01
2.3123211e-01
2.0140366e-01
1.1552626e-01
7.5418005e-04
-1.0489083e-01
-1.7560663e-01
-2.0638167e-01
-2.0276909e-01
-1.7180872e-01
-1.1627348e-01
-3.4887275e-02
6.8757466e-02
1.8125640e-01
2.7614663e-01
3.1901674e-01
2.8593684e-01
1.8282323e-01
4.4498893e-02
-8.6442018e-02
-1.7909779e-01
-2.2563986e-01
-2.3438947e-01
-2.1816257e-01
-1.9312202e-01
-1.7043895e-01
-1.4832680e-01
-1.1580020e-01
-5.7892735e-02
3.7229436e-02
1.6490672e-01
2.9057524e-01
3.5765677e-01
3.3006917e-01
2.2458547e-01
9.6636573e-02
2.3788297e-03
-3.2060460e-02
-1.0805598e-02
3.5671776e-02
4.9882050e-02
-9.0576118e-03
-1.2428984e-01
-2.4637171e-01
-3.3256599e-01
-3.6081030e-01
-3.3317861e-01
-2.7190812e-01
-2.0198909e-01
-1.2842231e-01
-3.4898624e-02
9.9040490e-02
2.7739765e-01
4.6940859e-01
6.1339246e-01
6.4000129e-01
5.1392625e-01
2.7118744e-01
1.1151608e-03
-2.0566901e-01
-3.0255923e-01
-2.9726031e-01
-2.2951441e-01
-1.5457058e-01
-1.1769024e-01
-1.2492044e-01
-1.5068466e-01
-1.7052706e-01
-1.8194529e-01
-1.8920597e-01
-1.8308697e-01
-1.5080174e-01
-8.3855763e-02
1.3706748e-02
1.1122888e-01
1.6783460e-01
1.5617345e-01
8.9915338e-02
3.6361577e-02
5.8241628e-02
1.5918971e-01
2.8616794e-01
3.5269403e-01
2.9676734e-01
1.4380931e-01
-1.8340439e-02
-1.2225475e-01
-1.5304645e-01
-1.3601793e-01
-1.1388819e-01
-1.1220203e-01
-1.2781781e-01
-1.4186034e-01
-1.3536539e-01
-1.0253261e-01
-4.8372684e-02
1.7672327e-02
8.2222328e-02
1.3166340e-01
1.5393104e-01
1.3614562e-01
7.6006958e-02
-4.4451965e-03
-7.1083437e-02
-1.0457123e-01
-1.0945888e-01
-1.0929435e-01
-1.2897052e-01
-1.6602102e-01
-1.9267804e-01
-1.7315462e-01
-7.4388370e-02
1.1350161e-01
3.4876533e-01
5.2903765e-01
5.4953707e-01
3.9369722e-01
1.4563094e-01
-8.4150803e-02
-2.2821053e-01
-2.7711407e-01
-2.5753872e-01
-2.0972098e-01
-1.6963661e-01
-1.5191871e-01
-1.4572604e-01
-1.2890833e-01
-8.1987671e-02
2.9370893e-03
1.0989797e-01
2.0045747e-01
2.2876070e-01
1.7370072e-01
6.5168668e-02
-4.1497896e-02
-1.0413622e-01
-1.0545719e-01
-5.3805216e-02
1.9970373e-02
7.5702649e-02
8.5710863e-02
5.1900682e-02
2.9920431e-03
-3.1921777e-02
-4.3865442e-02
-3.9501948e-02
-3.3534908e-02
-3.5544941e-02
-4.0987723e-02
-4.3160462e-02
-3.9289421e-02
-2.8437482e-02
-1.3123251e-02
5.4026533e-03
3.2325959e-02
6.9548539e-02
1.0820417e-01
1.3087973e-01
1.1911599e-01
7.0610122e-02
5.3958098e-03
-4.8548384e-02
-7.5380366e-02
-7.7532824e-02
-6.7260009e-02
-5.6308740e-02
-4.7725443e-02
-3.7472984e-02
-2.1559413e-02
2.9373856e-04
2.4905895e-02
4.5717524e-02
5.2171014e-02
3.6786186e-02
2.0077540e-03
-4.0422805e-02
-7.5289843e-02
-9.2850717e-02
-9.1078327e-02
-7.1892661e-02
-3.7208039e-02
1.1821381e-02
7.0744573e-02
1.2749410e-01
1.6410515e-01
1.6671849e-01
1.3393023e-01
7.8105042e-02
1.8098128e-02
-3.3383449e-02
-7.1955817e-02
-9.7146895e-02
-1.1089458e-01
-1.1482618e-01
-1.0873635e-01
-9.2787960e-02
-7.0424257e-02
-4.8725140e-02
-3.5042438e-02
-3.2510547e-02
-3.5311758e-02
-2.9763492e-02
-2.7128020e-03
5.3702664e-02
1.3513086e-01
2.1524964e-01
2.4638613e-01
1.9190576e-01
6.7161342e-02
-7.2060925e-02
-1.6807072e-01
-1.8836473e-01
-1.3423301e-01
-3.3792710e-02
6.4507493e-02
1.1529968e-01
1.0648172e-01
5.9328744e-02
4.6926910e-03
-3.6488982e-02
-6.0024740e-02
-7.3707965e-02
-8.4872130e-02
-9.3263903e-02
-9.1306314e-02
-7.0352785e-02
-2.6327356e-02
3.6906400e-02
1.0487949e-01
1.5655103e-01
1.7002422e-01
1.3369701e-01
5.7402497e-02
-3.2434541e-02
-1.0528319e-01
-1.3763575e-01
-1.2049897e-01
-6.0950133e-02
1.8280928e-02
8.5805145e-02
1.1547602e-01
1.0129822e-01
5.8319580e-02
4.1664297e-03
-4.6953595e-02
-8.7634211e-02
-1.2320589e-01
-1.6265889e-01
-2.1928207e-01
-2.7317791e-01
-2.6099723e-01
-1.5637982e-01
2.0840163e-02
2.3454294e-01
4.2401789e-01
5.1688582e-01
4.6216937e-01
2.7709976e-01
4.9683698e-02
-1.2839926e-01
-2.1234857e-01
-2.0533979e-01
-1.4184419e-01
-6.9027766e-02
-1.6617304e-02
1.9368567e-02
5.2849438e-02
7.8542290e-02
6.8881139e-02
3.9579423e-03
-9.5701260e-02
-1.8233083e-01
-2.1922366e-01
-1.9785589e-01
-1.4040238e-01
-8.5393335e-02
-6.1685486e-02
-6.4981699e-02
-5.2692360e-02
1.7132652e-02
1.4572375e-01
2.8687309e-01
3.6533526e-01
3.3188988e-01
2.1121274e-01
7.4975546e-02
-1.8261282e-02
-5.2252785e-02
-5.5524526e-02
-7.4049293e-02
-1.2644251e-01
-1.9329678e-01
-2.3945884e-01
-2.3848672e-01
-1.8568591e-01
-9.4674134e-02
1.1777218e-02
1.1026528e-01
1.8319513e-01
2.2193523e-01
2.2180975e-01
1.7917090e-01
9.9417093e-02
1.5908495e-03
-8.8682027e-02
-1.4886422e-01
-1.7081342e-01
-1.6569166e-01
-1.4911583e-01
-1.2812722e-01
-9.6013540e-02
-4.2257528e-02
3.2102873e-02
1.1442199e-01
1.8182507e-01
2.0914835e-01
1.8348846e-01
1.1544064e-01
3.4180416e-02
-3.0343123e-02
-5.9063278e-02
-5.2561652e-02
-3.3447711e-02
-2.9614243e-02
-5.0135039e-02
-8.0893962e-02
-9.6105128e-02
-7.2989161e-02
-1.5228910e-02
3.8054503e-02
3.7886893e-02
-3.2029553e-02
-1.3350238e-01
-2.0432391e-01
-2.0129920e-01
-1.0856503e-01
7.0508285e-02
3.0022493e-01
4.9002234e-01
5.3478866e-01
4.0352300e-01
1.6374224e-01
-7.5763519e-02
-2.3516646e-01
-2.9464707e-01
-2.8109821e-01
-2.4714737e-01
-2.4026084e-01
-2.6327175e-01
-2.7927042e-01
-2.4894648e-01
-1.4584792e-01
3.8066699e-02
2.7395976e-01
4.8303873e-01
5.6163227e-01
4.5572637e-01
2.1590426e-01
-4.0733327e-02
-2.1135033e-01
-2.5446364e-01
-1.8826195e-01
-7.0103058e-02
2.3254824e-02
4.5963066e-02
1.6174500e-02
-1.7914088e-02
-2.2121210e-02
6.1928037e-03
3.9117174e-02
3.8609066e-02
-9.2610818e-03
-8.2457036e-02
-1.4724135e-01
-1.8474783e-01
-1.9311362e-01
-1.8195783e-01
-1.6006090e-01
-1.1513515e-01
-2.5899171e-02
1.0623766e-01
2.4442658e-01
3.2666249e-01
3.0995801e-01
2.1495837e-01
1.0711654e-01
3.9096276e-02
1.9473052e-02
1.6621637e-02
-1.1736345e-02
-7.7723266e-02
-1.5483542e-01
-2.0591052e-01
-2.1011180e-01
-1.7002524e-01
-1.0309741e-01
-3.0784412e-02
3.2734768e-02
8.5687759e-02
1.3301029e-01
1.7399916e-01
1.9420526e-01
1.7393667e-01
1.0383638e-01
-8.0868597e-03
-1.3138257e-01
-2.2680584e-01
-2.7624981e-01
-2.7931156e-01
-2.3784888e-01
-1.4995166e-01
-1.3007542e-02
1.5587621e-01
3.1136927e-01
3.9881768e-01
3.9067983e-01
3.0162632e-01
1.7079665e-01
4.0404254e-02
-6.2094966e-02
-1.3065179e-01
-1.7096087e-01
-1.8876445e-01
-1.8856549e-01
-1.7160894e-01
-1.3726511e-01
-8.9781364e-02
-3.5076093e-02
1.8056971e-02
6.3724214e-02
9.3697001e-02
8.3369067e-02
2.2087143e-02
-6.4554788e-02
-1.3231357e-01
-1.4088889e-01
-7.2557973e-02
5.7692118e-02
2.0259248e-01
2.9403573e-01
2.8300792e-01
1.7977481e-01
3.5481140e-02
-1.0058963e-01
-1.9868794e-01
-2.5306449e-01
-2.7241937e-01
-2.6542512e-01
-2.3893185e-01
-1.9356748e-01
-1.2318116e-01
-2.3102491e-02
1.0274317e-01
2.3501260e-01
3.4035711e-01
3.8427850e-01
3.5174781e-01
2.5803945e-01
1.3647873e-01
2.4235599e-02
-5.1665048e-02
-8.9911682e-02
-1.0463737e-01
-1.0985175e-01
-1.1825042e-01
-1.3020247e-01
-1.3498043e-01
-1.2541832e-01
-9.7951887e-02
-5.5630205e-02
-1.0868035e-02
2.0154168e-02
2.4521460e-02
1.9693243e-03
-3.5156111e-02
-6.8591699e-02
-8.1524903e-02
-6.3559361e-02
-8.2370493e-03
7.9882706e-02
1.7474249e-01
2.3687558e-01
2.3222599e-01
1.5493514e-01
3.7543077e-02
-7.3270337e-02
-1.4502777e-01
-1.6710435e-01
-1.4930030e-01
-1.1010617e-01
-6.4985855e-02
-2.4740275e-02
4.7120526e-03
2.2697407e-02
2.9799767e-02
2.5947437e-02
1.4366284e-02
-1.4654283e-03
-1.6340838e-02
-1.7106569e-02
4.1076017e-03
4.0620297e-02
7.7380996e-02
9.5845172e-02
8.6079915e-02
5.3564428e-02
9.2721749e-03
-3.5543027e-02
-6.5962314e-02
-7.1077645e-02
-4.9314023e-02
-4.2276211e-03
4.6561196e-02
7.4090997e-02
6.4739043e-02
2.9488374e-02
-1.2098469e-02
-4.3212582e-02
-5.3252143e-02
-4.0883245e-02
-1.3499572e-02
1.2812365e-02
1.6521209e-02
-1.5402361e-02
-7.4957049e-02
-1.3450313e-01
-1.6304101e-01
-1.4229724e-01
-6.8537820e-02
4.5464986e-02
1.6225564e-01
2.2480266e-01
1.9538585e-01
8.8103993e-02
-4.6127822e-02
-1.4751294e-01
-1.7519460e-01
-1.2216542e-01
-4.3135922e-03
1.3502810e-01
2.2798880e-01
2.3061189e-01
1.5428366e-01
4.6457321e-02
-4.4919117e-02
-9.8095010e-02
-1.1517428e-01
-1.0784459e-01
-9.2594703e-02
-7.7921745e-02
-5.8436118e-02
-2.6477763e-02
1.4906210e-02
4.4634215e-02
3.7122416e-02
-6.6345004e-03
-5.5913265e-02
-7.8740911e-02
-5.4437791e-02
2.3339016e-02
1.3635380e-01
2.3290660e-01
2.5039688e-01
1.7400377e-01
4.7834772e-02
-7.2114696e-02
-1.5056958e-01
-1.8038483e-01
-1.7970917e-01
-1.7233882e-01
-1.6656536e-01
-1.5785198e-01
-1.3541529e-01
-8.7356114e-02
-4.3331214e-03
1.1818979e-01
2.5383860e-01
3.4266914e-01
3.3647606e-01
2.3481472e-01
7.9170528e-02
-7.6606707e-02
-1.8908841e-01
-2.3917452e-01
-2.2580577e-01
-1.5595162e-01
-5.3382052e-02
4.0154942e-02
8.3019712e-02
6.5408392e-02
1.9415823e-02
-1.4524187e-02
-1.6295736e-02
9.0912977e-03
3.5826042e-02
3.9339601e-02
1.6067756e-02
-2.0497644e-02
-4.8893253e-02
-4.6827763e-02
-3.3564895e-03
7.1788319e-02
1.4708032e-01
1.8190031e-01
1.5315343e-01
6.9290369e-02
-4.2210081e-02
-1.5126108e-01
-2.2965330e-01
-2.6140349e-01
-2.4486445e-01
-1.8011966e-01
-6.9725446e-02
7.4744411e-02
2.2212826e-01
3.1580223e-01
3.0092720e-01
1.7778323e-01
1.4648021e-02
-1.0928202e-01
-1.5389654e-01
-1.1953574e-01
-3.6466752e-02
4.4976308e-02
7.9177893e-02
5.2395453e-02
-1.4827984e-02
-8.6105914e-02
-1.3055145e-01
-1.3553477e-01
-1.0737933e-01
-6.2297031e-02
-1.3226188e-02
3.4286690e-02
7.8732477e-02
1.1811677e-01
1.4723295e-01
1.6067286e-01
1.5502727e-01
1.2640107e-01
7.2338925e-02
-1.8656580e-03
-8.4329799e-02
-1.6012517e-01
-2.1659735e-01
-2.4975454e-01
-2.6523674e-01
-2.7084503e-01
-2.6255924e-01
-2.2555975e-01
-1.4576984e-01
-1.5583596e-02
1.5801830e-01
3.4141243e-01
4.7709230e-01
5.1331540e-01
4.4045973e-01
2.9886905e-01
1.4781732e-01
2.8884127e-02
-4.8182423e-02
-9.8744046e-02
-1.3896957e-01
-1.6987549e-01
-1.8674091e-01
-1.8281090e-01
-1.5292985e-01
-1.0915362e-01
-7.7278717e-02
-7.6053496e-02
-1.0311905e-01
-1.3703284e-01
-1.5100325e-01
-1.2803523e-01
-6.4985841e-02
2.4316902e-02
9.6599725e-02
1.1784726e-01
1.1704835e-01
1.4514315e-01
2.1646985e-01
2.9882033e-01
3.2830061e-01
2.6652678e-01
1.4284943e-01
1.9753452e-02
-6.5366483e-02
-1.1776656e-01
-1.6315546e-01
-2.1127499e-01
-2.4534293e-01
-2.4596530e-01
-2.0870264e-01
-1.4627895e-01
-8.2056531e-02
-4.0347760e-02
-3.8569796e-02
-7.2217874e-02
-1.1193527e-01
-1.2393317e-01
-8.4599353e-02
9.1647798e-03
1.3447101e-01
2.6065027e-01
3.7098268e-01
4.5508010e-01
4.8126006e-01
4.0126934e-01
2.0708426e-01
-4.2990349e-02
-2.6754301e-01
-4.0402557e-01
-4.3217492e-01
-3.7198171e-01
-2.6018422e-01
-1.3751438e-01
-3.5446014e-02
3.6665454e-02
9.0582397e-02
1.4345231e-01
1.9655702e-01
2.2553663e-01
2.0047031e-01
1.2300567e-01
2.5297787e-02
-6.0241290e-02
-1.1744567e-01
-1.4682430e-01
-1.5332346e-01
-1.3957364e-01
-1.0376807e-01
-4.3243494e-02
3.3292888e-02
1.0350518e-01
1.3968687e-01
1.3179644e-01
9.7190763e-02
6.0598471e-02
4.1560085e-02
4.3786508e-02
4.7682176e-02
2.7282738e-02
-2.8703074e-02
-1.0708925e-01
-1.8216647e-01
-2.3855716e-01
-2.6986816e-01
-2.7229101e-01
-2.4833395e-01
-1.9976547e-01
-1.2029355e-01
3.3955794e-03
1.7799839e-01
3.7954856e-01
5.4402801e-01
5.8685626e-01
4.6369316e-01
2.2316635e-01
-2.8251528e-02
-2.0290843e-01
-2.6949846e-01
-2.4505963e-01
-1.6879094e-01
-8.5816357e-02
-2.6948012e-02
8.9909449e-03
3.7961924e-02
6.2658927e-02
6.5232008e-02
2.5587391e-02
-4.9354315e-02
-1.2594491e-01
-1.7372338e-01
-1.8189224e-01
-1.6277578e-01
-1.4012147e-01
-1.2347463e-01
-1.0122332e-01
-4.9428086e-02
5.0524872e-02
1.9075055e-01
3.2421381e-01
3.7615286e-01
3.0464708e-01
1.5267271e-01
9.7572357e-03
-5.9251956e-02
-3.9226744e-02
4.1771006e-02
