4.6395427e-02
1.6602833e-01
3.1118525e-01
4.2238129e-01
4.0565873e-01
2.7049990e-01
1.2213173e-01
3.0679789e-02
-7.0760708e-04
-2.5021979e-02
-9.7193438e-02
-1.8587958e-01
-2.2624061e-01
-1.8417463e-01
-4.9119534e-02
1.2696307e-01
2.6923269e-01
3.3413128e-01
2.7644227e-01
1.2410869e-01
-2.2320977e-02
-1.1554643e-01
-1.5687917e-01
-1.5411875e-01
-1.2372642e-01
-8.0882200e-02
-3.0863296e-02
1.7684527e-02
4.5871144e-02
3.9117574e-02
8.6061887e-03
-1.6894964e-02
-2.4574111e-02
-1.7536917e-02
-1.7870275e-02
-4.6855509e-02
-7.9518412e-02
-1.0442480e-01
-1.5547604e-01
-2.3872071e-01
-3.1229911e-01
-3.2009059e-01
-2.4730724e-01
-1.2027269e-01
3.4757297e-02
2.1022266e-01
4.1276617e-01
5.7513913e-01
5.6774862e-01
3.3395772e-01
-2.2662801e-02
-3.2429995e-01
-4.8972007e-01
-5.2172500e-01
-4.2856854e-01
-2.0734929e-01
1.1564467e-01
4.3428017e-01
6.3007281e-01
6.9452050e-01
6.9879390e-01
6.5465908e-01
5.0767947e-01
2.4510649e-01
-5.6745440e-02
-2.8988384e-01
-4.0659841e-01
-4.3862991e-01
-4.4484316e-01
-4.6451477e-01
-4.8983034e-01
-4.8382490e-01
-4.2898014e-01
-3.3454222e-01
-2.2238050e-01
-1.0593599e-01
2.4074169e-02
1.7809167e-01
3.6257265e-01
5.5259765e-01
6.8469257e-01
7.0807398e-01
5.8352212e-01
3.1391889e-01
9.1906052e-03
-1.9126025e-01
-2.4739124e-01
-2.1495860e-01
-1.7940033e-01
-1.8093781e-01
-1.9934436e-01
-2.0884412e-01
-1.9330708e-01
-1.5534601e-01
-1.1143007e-01
-6.5899517e-02
-5.8654783e-03
6.8126656e-02
1.1272479e-01
8.8743059e-02
2.1644766e-02
-3.3826455e-02
-5.2785011e-02
-3.7460035e-02
-2.1046352e-03
3.6805458e-02
5.2524461e-02
1.8708744e-02
-5.3542459e-02
-1.3727745e-01
-2.0526695e-01
-2.2722739e-01
-1.9697720e-01
-1.3069660e-01
-4.7810488e-02
4.0759520e-02
1.3877995e-01
2.5110530e-01
3.1069093e-01
1.9745724e-01
-3.9452533e-02
-2.0086330e-01
-1.7002091e-01
4.2173929e-02
3.1464532e-01
4.7144473e-01
4.1122958e-01
1.7940814e-01
-7.9200443e-02
-2.3286085e-01
-2.7705630e-01
-2.9666943e-01
-3.3164764e-01
-3.6714720e-01
-3.6835119e-01
-3.0038110e-01
-1.4831296e-01
2.4088427e-02
1.3457713e-01
2.4070401e-01
4.1460010e-01
6.2314208e-01
7.7437516e-01
7.4943720e-01
5.3252462e-01
1.9483029e-01
-1.6730931e-01
-4.1395341e-01
-4.7324402e-01
-3.8619213e-01
-2.6078192e-01
-1.9039987e-01
-1.7458226e-01
-1.5837050e-01
-1.1267608e-01
-6.3618699e-02
-4.9462010e-02
-8.0923774e-02
-1.2837751e-01
-1.3920448e-01
-1.0713701e-01
-7.0915866e-02
-4.6042327e-02
-1.5303983e-02
3.5734408e-02
9.9202764e-02
1.3871108e-01
1.2818481e-01
6.7771289e-02
-3.1211252e-02
-1.0654438e-01
-9.9728072e-02
-3.0555552e-02
4.3200453e-02
8.8788531e-02
1.1169879e-01
1.0421682e-01
4.1200257e-02
-5.2732701e-02
-1.0494549e-01
-5.9999944e-02
1.0245429e-01
3.3659934e-01
4.9717488e-01
4.4749305e-01
2.0699625e-01
-8.5444619e-02
-3.0306544e-01
-3.8723937e-01
-3.6304412e-01
-3.2313474e-01
-3.2468548e-01
-3.1748244e-01
-2.3063913e-01
-4.4082659e-02
1.5527964e-01
2.1123171e-01
1.3994203e-01
1.1698478e-01
2.4953491e-01
4.4876832e-01
5.0233845e-01
3.4151722e-01
5.7306395e-02
-2.2965790e-01
-4.0406789e-01
-4.1675091e-01
-2.6613149e-01
-2.6521526e-02
1.6129657e-01
2.5015450e-01
2.6381234e-01
2.1636362e-01
1.2782780e-01
4.1665740e-04
-1.6081319e-01
-3.0021767e-01
-3.4726411e-01
-2.5441896e-01
-1.5027562e-02
2.4595505e-01
3.5264174e-01
3.1655712e-01
2.3319959e-01
1.1638065e-01
-2.2222529e-02
-1.4983096e-01
-2.3791664e-01
-2.5963251e-01
-2.0444371e-01
-1.3567662e-01
-1.2758960e-01
-1.4343026e-01
-1.2893784e-01
-8.9667341e-02
-3.7447226e-02
-4.8340168e-03
-2.7853066e-02
-6.4180167e-02
-7.1139270e-02
-3.9588504e-02
6.3645034e-02
2.2804018e-01
3.8147031e-01
4.3146825e-01
3.1657432e-01
8.9617721e-02
-1.3041430e-01
-2.8005370e-01
-3.6054885e-01
-3.8079664e-01
-3.2469553e-01
-1.8146862e-01
9.7271645e-03
1.8203546e-01
2.9093361e-01
3.4993047e-01
4.0003125e-01
4.2252344e-01
3.1658297e-01
6.8184934e-02
-1.7256062e-01
-2.9751170e-01
-2.9250062e-01
-1.6659154e-01
4.0783266e-02
2.2951988e-01
2.8801526e-01
1.9516056e-01
2.7416183e-02
-1.1174571e-01
-1.8551947e-01
-2.1310745e-01
-2.1281853e-01
-1.9808596e-01
-1.8695602e-01
-1.7222092e-01
-1.3036549e-01
-7.6302603e-02
-7.3606966e-02
-1.4847039e-01
-2.1738829e-01
-2.0334874e-01
-1.1182157e-01
1.3562645e-02
1.2422933e-01
1.7519578e-01
1.5035621e-01
6.8337461e-02
-2.1809352e-02
-3.3283446e-02
6.2970673e-02
1.9285395e-01
2.3226517e-01
1.4803765e-01
8.7326135e-02
1.7245754e-01
3.4746527e-01
4.6585056e-01
3.8795891e-01
1.4903939e-01
-3.1802232e-02
-4.4055439e-02
3.2639026e-02
4.0143863e-02
-1.0756049e-01
-3.1786157e-01
-4.6525736e-01
-5.2529099e-01
-5.3453366e-01
-5.1411928e-01
-4.3179251e-01
-2.4213724e-01
5.5880047e-02
3.9849260e-01
6.7798846e-01
7.8597206e-01
6.6727079e-01
3.8783072e-01
1.1868873e-01
-2.1833097e-02
-6.2342638e-02
-7.1153472e-02
-8.7662920e-02
-1.2740151e-01
-1.8372503e-01
-2.2881084e-01
-2.3078478e-01
-1.9876969e-01
-1.6381678e-01
-1.6165982e-01
-1.9116483e-01
-2.0766461e-01
-1.8723944e-01
-1.1366603e-01
1.7284992e-02
1.6507955e-01
2.6503645e-01
2.7589167e-01
2.1090924e-01
1.3060250e-01
7.3618380e-02
2.7362786e-02
-1.3676133e-02
-5.2679620e-02
-9.5134442e-02
-1.2663275e-01
-1.3139838e-01
-1.1263539e-01
-8.0457480e-02
-5.0718547e-02
-5.4540943e-02
-8.0443711e-02
-7.7809059e-02
-2.2222721e-02
8.0829972e-02
1.8736240e-01
2.4121056e-01
2.2829233e-01
2.0406049e-01
1.9867375e-01
1.0739935e-01
-1.1450994e-01
-3.4139522e-01
-4.5966925e-01
-4.5450739e-01
-3.7235149e-01
-2.7123622e-01
-1.5592079e-01
4.7070358e-02
3.4652599e-01
6.0104491e-01
6.8663922e-01
6.0439303e-01
4.5177428e-01
2.7783225e-01
4.9754657e-02
-1.6137692e-01
-2.3277994e-01
-1.3546296e-01
1.7848414e-02
6.8658950e-02
-9.6069128e-03
-1.5342720e-01
-2.7566245e-01
-3.1213140e-01
-2.8175283e-01
-2.3784346e-01
-2.0788858e-01
-1.8640122e-01
-1.4950123e-01
-8.6607125e-02
-4.7044252e-03
9.4958924e-02
2.0019397e-01
2.6355116e-01
2.3927935e-01
1.4174771e-01
4.0338157e-02
-2.1297572e-02
-7.5071542e-02
-1.4067896e-01
-1.7343594e-01
-1.4223145e-01
-5.3989764e-02
7.2940197e-02
1.8057113e-01
2.0076639e-01
1.2135263e-01
-4.0593132e-03
-8.7146216e-02
-9.2770773e-02
-3.3805057e-02
6.3500018e-02
1.2472547e-01
8.1676732e-02
-2.3364890e-02
-8.5861245e-02
-6.0774913e-02
3.9719887e-02
1.1279509e-01
4.4256819e-02
-1.0576626e-01
-2.2312091e-01
-2.6808920e-01
-2.5310102e-01
-2.1377170e-01
-1.5203592e-01
-4.3483288e-02
1.3486171e-01
3.6467106e-01
5.5252948e-01
5.8460171e-01
4.2670827e-01
1.5357436e-01
-1.1251760e-01
-2.5603817e-01
-2.3232608e-01
-9.2290738e-02
3.5619778e-02
4.3705501e-02
-3.3167533e-02
-1.0676010e-01
-1.3642508e-01
-1.3439696e-01
-1.4349690e-01
-1.7135799e-01
-1.8160257e-01
-1.3907231e-01
-4.1030816e-02
7.0653886e-02
1.3348387e-01
1.3274128e-01
1.0330255e-01
6.1524843e-02
1.1022842e-02
-1.5571117e-02
1.4452192e-03
3.9498126e-02
4.8096927e-02
3.0168393e-03
-4.6430764e-02
-5.9724765e-02
-5.1832548e-02
-6.0615539e-02
-1.0131399e-01
-1.3833330e-01
-1.2758830e-01
-4.4893505e-02
1.0812822e-01
2.6188411e-01
3.1188692e-01
2.2619558e-01
6.3389668e-02
-8.2735105e-02
-1.4724795e-01
-1.1852834e-01
-2.6099631e-02
7.4217889e-02
8.3711464e-02
-3.0039250e-02
-1.4221193e-01
-1.7836856e-01
-1.7221301e-01
-1.4943079e-01
-1.0769883e-01
-1.5995903e-02
1.3952603e-01
3.2789057e-01
4.8403906e-01
5.1092098e-01
3.4563728e-01
6.9460790e-02
-1.5845392e-01
-2.5918175e-01
-2.4061040e-01
-1.4799012e-01
-6.4472124e-02
-6.3817044e-02
-1.0782778e-01
-1.2690415e-01
-1.1954463e-01
-9.9296918e-02
-8.0540923e-02
-8.1102491e-02
-8.5706759e-02
-5.0357266e-02
2.7907742e-02
9.6578348e-02
8.7203796e-02
-1.4858691e-03
-8.2780683e-02
-1.0030423e-01
-5.1620575e-02
4.5891096e-02
1.5232287e-01
2.1753669e-01
2.1163187e-01
1.4652281e-01
5.8244122e-02
-4.7046747e-03
-2.0445724e-02
-2.4398542e-02
-5.7198827e-02
-1.1123322e-01
-1.5662700e-01
-1.6457700e-01
-1.3146855e-01
-1.1366271e-01
-1.6590408e-01
-2.4695496e-01
-2.4801396e-01
-1.2275352e-01
8.9325212e-02
3.1316970e-01
4.5873655e-01
4.3800954e-01
2.5611077e-01
5.5427439e-02
-3.5214182e-02
-3.3934478e-02
-4.4026083e-02
-9.9237231e-02
-1.5100331e-01
-1.4002489e-01
-5.0864775e-02
6.1711263e-02
1.3491710e-01
1.4842177e-01
1.3450443e-01
9.4683791e-02
-2.9300591e-02
-1.9017555e-01
-2.6263914e-01
-1.9834754e-01
-2.4496861e-02
1.7567724e-01
2.6415393e-01
2.0360908e-01
1.2207612e-01
7.1568141e-02
2.4279016e-03
-8.5071164e-02
-1.7127557e-01
-2.3543543e-01
-2.4540706e-01
-1.9229015e-01
-1.0896687e-01
-3.3280279e-02
6.0702859e-02
1.4021523e-01
9.7919332e-02
-2.3291926e-02
-1.1224271e-01
-1.2128520e-01
-4.8202216e-02
4.1274645e-02
8.4555675e-02
1.1033104e-01
2.0174851e-01
3.2500502e-01
3.4079662e-01
2.2647301e-01
7.1721097e-02
-3.5488718e-02
-7.2555331e-02
-8.9637945e-02
-1.2703818e-01
-1.8536536e-01
-2.4330702e-01
-2.8247448e-01
-2.9834264e-01
-2.7475278e-01
-2.0153330e-01
-9.8952223e-02
-1.2325518e-02
2.5334660e-02
3.3119036e-02
3.9524917e-02
3.8238150e-02
2.7439888e-02
4.0076353e-02
1.1557963e-01
2.6503670e-01
4.0386053e-01
3.8723278e-01
1.6842091e-01
-1.1831947e-01
-2.5924201e-01
-1.4232517e-01
1.2317304e-01
2.9323256e-01
2.7630598e-01
1.5380837e-01
8.6032559e-03
-9.7014800e-02
-1.2143542e-01
-7.4057454e-02
-2.4106336e-02
-3.7249880e-02
-8.4953130e-02
-9.9998918e-02
-7.0330940e-02
-2.1635227e-02
1.4201255e-02
4.0436254e-03
-6.1777244e-02
-1.4863285e-01
-2.0998768e-01
-2.3538348e-01
-2.4067226e-01
-2.2386528e-01
-1.7910333e-01
-1.2216190e-01
-5.0358262e-02
7.1823643e-02
2.5763315e-01
4.5525478e-01
5.1923079e-01
3.3772469e-01
2.1943934e-02
-2.3164761e-01
-3.4572167e-01
-3.3247205e-01
-2.4068356e-01
-1.5365068e-01
-1.3633097e-01
-1.2750463e-01
-1.1606164e-02
1.8204397e-01
3.7449906e-01
5.7217264e-01
7.2648956e-01
7.2813677e-01
5.3110128e-01
1.7368361e-01
-2.0851081e-01
-4.5726600e-01
-5.1902870e-01
-4.3003597e-01
-2.4127283e-01
-3.2997409e-03
1.9052017e-01
2.3222601e-01
1.2558472e-01
-3.6554227e-02
-1.6953838e-01
-2.2319179e-01
-2.0175393e-01
-1.5293930e-01
-1.1723596e-01
-9.5458402e-02
-7.2444911e-02
-4.2789908e-02
-6.5390646e-03
3.4452144e-02
5.8982777e-02
4.2348617e-02
-2.0869563e-03
-4.7936423e-02
-7.7917457e-02
-7.4731865e-02
-4.2661779e-02
-1.1966080e-02
-1.4047148e-02
-4.6678277e-02
-6.4579763e-02
-6.2687729e-02
-8.4561288e-02
-1.3912357e-01
-2.0647352e-01
-2.5318503e-01
-2.2890080e-01
-1.0038839e-01
1.1080894e-01
3.1853996e-01
3.9895927e-01
2.8143479e-01
4.1266950e-02
-1.3589778e-01
-1.3664737e-01
-1.9289196e-02
8.3388959e-02
9.3351508e-02
4.5551082e-02
1.4251548e-02
4.0953785e-02
1.3252773e-01
2.3822443e-01
2.9672709e-01
3.2107620e-01
3.4943454e-01
3.5344285e-01
2.9402137e-01
2.0180584e-01
1.3267749e-01
9.5839213e-02
6.3559199e-02
7.9643665e-03
-7.5817986e-02
-1.5440508e-01
-2.3474202e-01
-3.3644721e-01
-4.1205809e-01
-4.2930065e-01
-3.8124909e-01
-2.6685983e-01
-1.2096634e-01
-7.3060141e-04
5.7046837e-02
4.4192059e-02
-1.4030954e-02
-4.6032204e-02
-1.2255724e-02
7.4493784e-02
1.7192633e-01
1.9741545e-01
1.0630612e-01
-2.5940425e-02
-7.8133002e-02
-2.8804214e-02
3.9056520e-02
4.7065415e-02
-1.3860679e-02
-1.1033645e-01
-1.9377291e-01
-2.1756692e-01
-1.7643435e-01
-1.0767784e-01
-7.0202101e-02
-6.2029570e-02
-3.4505334e-04
1.3372745e-01
2.4877388e-01
2.3981771e-01
1.0155066e-01
-4.8569670e-02
-1.0012328e-01
-7.0130228e-02
-8.2859371e-02
-1.6357256e-01
-1.5870559e-01
2.3055268e-02
3.0506954e-01
5.1296100e-01
4.9561049e-01
2.6919388e-01
-1.8840739e-02
-2.1917847e-01
-2.5596844e-01
-2.0828145e-01
-2.3794261e-01
-3.5593781e-01
-4.5105971e-01
-4.2354834e-01
-2.2450976e-01
8.4486090e-02
3.4850252e-01
4.3723550e-01
3.3884151e-01
1.7985850e-01
1.3544508e-01
2.5330839e-01
4.2585858e-01
4.8702333e-01
3.3367448e-01
1.6252773e-02
-2.9637024e-01
-4.4284011e-01
-3.8681661e-01
-2.0617540e-01
-3.5185938e-03
1.4086335e-01
1.6514811e-01
5.5523465e-02
-1.2389754e-01
-2.7883931e-01
-3.5346071e-01
-3.4579948e-01
-2.8724755e-01
-1.8649128e-01
3.8352398e-03
2.8541930e-01
5.4564433e-01
6.1349184e-01
4.1290595e-01
7.0979014e-02
-2.1471374e-01
-3.3263455e-01
-2.8023250e-01
-1.8654968e-01
-1.9722470e-01
-2.7627596e-01
-2.9577953e-01
-1.8579534e-01
1.9358440e-02
1.7902132e-01
2.1440713e-01
1.8428348e-01
1.9907258e-01
2.7123242e-01
2.5169150e-01
8.1126517e-02
-1.1887270e-01
-2.1045861e-01
-1.3681162e-01
6.4026673e-02
2.7646728e-01
3.6712179e-01
2.8066764e-01
8.8044988e-02
-7.4978193e-02
-1.6628587e-01
-2.2480684e-01
-2.5579303e-01
-2.2204603e-01
-1.0752380e-01
3.5861451e-02
1.1598592e-01
6.9341873e-02
-6.0577837e-02
-1.5979881e-01
-1.5942137e-01
-5.4586505e-02
1.0895673e-01
2.3515968e-01
2.4800372e-01
1.5520286e-01
3.5574335e-02
-4.7898689e-02
-8.9231928e-02
-9.5770102e-02
-9.7121626e-02
-1.0179323e-01
-7.3925681e-02
-6.1815250e-03
6.0385376e-02
6.2239678e-02
-6.1193798e-03
-6.2966242e-02
-5.2585326e-02
9.0473179e-04
4.9691043e-02
5.5941306e-02
2.2266989e-02
-1.0687605e-02
-2.2720781e-02
-1.7078556e-02
-4.0212645e-03
-1.9080538e-02
-7.9679952e-02
-1.4881804e-01
-1.7538435e-01
-1.2645275e-01
-6.7058332e-03
1.0335136e-01
1.2486583e-01
8.2781503e-02
3.7519395e-02
3.6162449e-02
1.0174501e-01
1.8911279e-01
2.2174746e-01
1.8059771e-01
9.6323200e-02
-5.4181491e-03
-1.0153589e-01
-1.4994943e-01
-1.3708785e-01
-1.3102709e-01
-1.6374532e-01
-1.7462213e-01
-1.5888281e-01
-1.6071563e-01
-1.6370747e-01
-1.3345666e-01
-7.4520435e-02
8.2284295e-03
1.2135447e-01
1.9160588e-01
1.6627088e-01
1.4309604e-01
1.7770567e-01
1.8072286e-01
1.0132231e-01
1.4279401e-02
-2.6679734e-02
-1.4733284e-02
4.6473199e-02
4.1931332e-02
-7.4812833e-02
-1.5316056e-01
-1.1933531e-01
-2.1569688e-02
7.0839249e-02
8.4528296e-02
7.4190409e-03
-1.3250143e-01
-2.8788880e-01
-3.5282357e-01
-2.7196895e-01
-1.2883976e-01
-1.8238886e-02
5.2181279e-02
1.4901809e-01
3.3057953e-01
5.1548820e-01
5.8084919e-01
5.0695347e-01
3.4109944e-01
1.8287841e-01
6.9361511e-02
-6.6259322e-02
-2.3913006e-01
-3.8407286e-01
-4.5001369e-01
-3.9859363e-01
-2.1841544e-01
-5.6279166e-03
8.7585885e-02
1.2353099e-02
-1.3495102e-01
-2.4802860e-01
-2.7125290e-01
-1.7022831e-01
4.3432562e-02
2.6892368e-01
3.7526491e-01
3.3345833e-01
2.4381679e-01
1.4744067e-01
-1.4967774e-02
-1.9332797e-01
-2.9097760e-01
-2.8535591e-01
-1.7090419e-01
4.0606758e-02
2.7475796e-01
4.0970536e-01
3.8107175e-01
2.6033542e-01
1.4683871e-01
7.0702127e-02
1.4078424e-02
-7.5059294e-02
-1.9950089e-01
-2.9962816e-01
-3.4535572e-01
-3.4480756e-01
-3.0567107e-01
-2.4429577e-01
-2.0171694e-01
-1.8931857e-01
-1.6351899e-01
-7.9677846e-02
6.4199358e-02
2.3996411e-01
3.9900697e-01
4.5784933e-01
3.6436385e-01
1.9568609e-01
9.8137542e-02
1.2366932e-01
1.8983624e-01
1.6658279e-01
2.6164334e-02
-1.3400466e-01
-2.4053967e-01
-2.7853596e-01
-2.6967331e-01
-2.5089605e-01
-2.1624281e-01
-1.5576954e-01
-8.0380476e-02
1.1173359e-02
8.3896373e-02
8.3087115e-02
2.7525611e-02
-3.1806318e-02
-7.1741128e-02
-9.7481605e-02
-1.1381854e-01
-8.3161499e-02
3.9433410e-02
2.1054529e-01
3.2311487e-01
3.2623961e-01
2.7482132e-01
2.7945682e-01
3.2106272e-01
2.8313649e-01
1.4461627e-01
-3.9724707e-02
-1.8255907e-01
-2.2080927e-01
-1.9012803e-01
-1.7197848e-01
-1.8948042e-01
-2.0423443e-01
-1.7963107e-01
-1.4594701e-01
-1.5380429e-01
-1.8337351e-01
-2.0050279e-01
-1.8476622e-01
-1.1700506e-01
-4.7592280e-03
1.1287653e-01
1.8772927e-01
1.7332202e-01
7.4519499e-02
-2.5120010e-02
-5.4490351e-02
6.8303049e-04
9.3912569e-02
1.3141073e-01
7.6627075e-02
-9.5118282e-03
-4.7889262e-02
2.7291714e-02
1.8644882e-01
2.7400437e-01
2.1481639e-01
7.3699343e-02
-7.3226050e-02
-1.7847801e-01
-2.1579229e-01
-1.6893521e-01
-4.4734322e-02
1.1166739e-01
2.4042739e-01
2.6162332e-01
1.3595616e-01
-5.3715947e-02
-1.9002809e-01
-2.1593375e-01
-1.3944381e-01
-2.9277396e-02
1.6606818e-02
-3.5146523e-02
-8.7642574e-02
-4.9095163e-02
4.1819137e-02
1.0970914e-01
1.1068264e-01
4.1481474e-02
-3.2383813e-02
-3.5595432e-02
2.6538515e-02
4.2375735e-02
-5.2566037e-02
-1.7651814e-01
-2.5858753e-01
-2.8777137e-01
-2.4837605e-01
-1.3099154e-01
3.4958001e-02
1.9393015e-01
2.8591842e-01
2.7934919e-01
2.5056654e-01
2.6563098e-01
2.3840143e-01
9.8255553e-02
-9.0274477e-02
-2.1419683e-01
-2.0155844e-01
-7.1103677e-02
7.1212225e-02
8.1704709e-02
-4.8757731e-02
-1.6555676e-01
-2.0423097e-01
-2.0415776e-01
-1.8550782e-01
-1.4771837e-01
-7.4908280e-02
3.7494149e-02
1.8286663e-01
3.1442819e-01
3.9913533e-01
4.6906021e-01
4.8435484e-01
3.5050791e-01
8.9282499e-02
-1.7387295e-01
-3.2951322e-01
-3.3551333e-01
-2.4615865e-01
-1.7115892e-01
-1.4063933e-01
-9.6003573e-02
-1.4310714e-02
5.4006139e-02
5.4822007e-02
2.2152925e-03
-3.1350467e-02
1.4933675e-02
9.3766912e-02
7.8528016e-02
-3.1494790e-02
-1.1409304e-01
-1.2408159e-01
-1.0496760e-01
-1.0530473e-01
-1.3784393e-01
-1.5520292e-01
-1.0379327e-01
-2.8936402e-03
9.3372524e-02
1.2433654e-01
4.2095375e-02
-8.4970175e-02
-1.3908045e-01
-5.6274030e-02
1.5665053e-01
3.7090620e-01
4.2278611e-01
2.6687637e-01
6.9516318e-03
-1.9202618e-01
-2.6722803e-01
-2.5844108e-01
-2.0787719e-01
-1.4710934e-01
-9.2616992e-02
-4.9689729e-02
8.3582469e-03
1.1636291e-01
1.9126007e-01
1.3736968e-01
1.5392539e-02
-8.2173939e-02
-1.0476021e-01
-2.4043771e-02
8.3064917e-02
8.5792611e-02
-3.1075539e-02
-1.5882102e-01
-1.5247823e-01
2.5750717e-03
1.4238353e-01
1.3081646e-01
-1.7962501e-02
-1.6298772e-01
-1.6290581e-01
-1.2424221e-02
1.7147301e-01
2.4322607e-01
1.6694237e-01
9.7302955e-02
1.8905069e-01
3.7383156e-01
4.7513868e-01
3.8922040e-01
1.2394604e-01
-2.0030129e-01
-4.1402081e-01
-4.3667189e-01
-3.6380908e-01
-3.3666878e-01
-3.8470630e-01
-4.2684833e-01
-3.5416840e-01
-1.5175337e-01
5.2863801e-02
1.0511089e-01
1.8419389e-02
-2.7698058e-02
7.6677163e-02
2.5964013e-01
3.8476935e-01
3.9876185e-01
3.6164738e-01
3.7973665e-01
4.6439163e-01
5.1178111e-01
4.5863051e-01
3.0707919e-01
7.7586776e-02
-1.6412616e-01
-3.2975169e-01
-4.0142009e-01
-4.2684775e-01
-4.2311112e-01
-3.7979764e-01
-3.0353354e-01
-2.0170171e-01
-9.4659220e-02
-2.4690992e-02
-1.5768273e-02
-3.6973284e-02
-2.4486376e-02
4.3666263e-02
1.3105065e-01
1.9236278e-01
2.1303364e-01
1.9994048e-01
1.6087487e-01
9.6406442e-02
1.2641603e-02
-6.3582852e-02
-1.0491795e-01
-1.0061679e-01
-6.0944365e-02
-3.1018524e-02
-4.0803043e-02
-5.7791014e-02
-5.8546022e-02
-7.4166719e-02
-1.0900660e-01
-1.0302186e-01
-3.1835116e-02
6.5880200e-02
1.3329522e-01
1.1868707e-01
3.2102239e-02
-4.7216420e-02
-6.8927856e-02
-6.5686672e-02
-7.9537693e-02
-9.8598057e-02
-7.1635174e-02
3.5685695e-02
1.8333036e-01
2.6872722e-01
2.3082437e-01
1.3490558e-01
7.3297060e-02
2.0673976e-02
-8.9476968e-02
-2.4311526e-01
-3.7861549e-01
-4.3450947e-01
-3.8633584e-01
-2.5365254e-01
-6.4718237e-02
1.5141659e-01
3.3712635e-01
3.8579445e-01
2.8137918e-01
1.5208328e-01
9.0330582e-02
9.8257122e-02
1.4172741e-01
1.5086625e-01
7.3086198e-02
-5.4758006e-02
-1.6748175e-01
-2.3967844e-01
-2.6932816e-01
-2.6378181e-01
-2.2775120e-01
-1.7457701e-01
-1.3423154e-01
-9.1724269e-02
1.6304206e-02
1.9382798e-01
3.2977055e-01
2.7533453e-01
6.2190344e-02
-9.8373475e-02
-9.9578911e-02
2.4405929e-02
1.8682842e-01
2.6514046e-01
2.1947860e-01
1.4459313e-01
1.2582025e-01
1.5591661e-01
1.5796934e-01
7.7249401e-02
-2.3721318e-02
-8.9938069e-02
-1.2692380e-01
-1.2953979e-01
-1.3184560e-01
-1.6492617e-01
-2.0093689e-01
-2.0326893e-01
-1.5972359e-01
-8.5937402e-02
1.5765608e-02
1.2043243e-01
1.6078403e-01
1.2665560e-01
7.4125884e-02
3.2655517e-02
5.5142482e-03
-1.0005601e-02
-4.6307272e-02
-1.0834583e-01
-1.5391949e-01
-1.4545317e-01
-8.6407469e-02
-1.4308977e-02
3.0874081e-02
2.2385602e-02
-1.3374253e-02
-2.5012817e-02
-1.1684428e-02
5.8102139e-03
2.9312774e-02
6.4702391e-02
1.0403975e-01
1.1239079e-01
6.5391494e-02
-2.9052023e-03
-5.2926915e-02
-7.0439305e-02
-6.6010627e-02
-6.9344493e-02
-6.6838429e-02
-3.9390045e-03
1.1153381e-01
1.9180613e-01
1.8669753e-01
1.1740154e-01
2.6160541e-02
-2.6108267e-02
-2.7737321e-02
-4.2621750e-02
-8.4269767e-02
-1.0438572e-01
-9.8501005e-02
-9.6199266e-02
-1.0103414e-01
-9.6032202e-02
-4.5052643e-02
8.0784301e-02
2.0090765e-01
1.7263283e-01
1.1182274e-02
-1.3473173e-01
-1.6964521e-01
-1.0340061e-01
-7.0183620e-04
8.1875121e-02
9.8237900e-02
6.8308828e-02
7.6152828e-02
1.3948878e-01
2.0790752e-01
2.1283179e-01
9.7829948e-02
-7.8060742e-02
-1.9655502e-01
-2.2780213e-01
-2.0570770e-01
-1.7205608e-01
-1.3589654e-01
-7.9856851e-02
-2.5701405e-02
9.4368530e-04
-4.8707509e-03
-2.7544367e-02
-6.3583288e-03
8.3342885e-02
1.9847297e-01
2.5236406e-01
1.9798252e-01
1.0695495e-01
3.4291892e-02
-1.2011707e-02
-3.0135212e-02
-4.5776272e-02
-4.6228848e-02
-1.3520059e-02
4.8423776e-03
-2.2508631e-02
-6.2403752e-02
-7.5308372e-02
-4.0177395e-02
8.9230864e-03
5.2704926e-03
-4.9349756e-02
-1.0661008e-01
-1.2424047e-01
-7.7236592e-02
-1.1515541e-02
2.2538896e-02
5.4877995e-02
7.6434462e-02
4.2843609e-02
-3.1092472e-02
-9.2838971e-02
-8.6888851e-02
-9.2619621e-03
9.2400587e-02
1.3336391e-01
9.0786466e-02
6.4883126e-02
1.1491870e-01
1.8861448e-01
1.7436787e-01
2.7912769e-02
-1.5488508e-01
-2.7170558e-01
-2.9563866e-01
-2.3485369e-01
-1.1880406e-01
2.0300897e-02
1.3794688e-01
1.7388925e-01
1.4265213e-01
8.8353066e-02
2.7487448e-03
-9.7117341e-02
-1.2824164e-01
-3.0529492e-02
1.3178660e-01
2.2056962e-01
1.8004384e-01
7.2792293e-02
-1.7942426e-02
-5.5220399e-02
-5.0669872e-02
-5.6808042e-02
-9.7932089e-02
-1.3149165e-01
-1.3699193e-01
-1.2239068e-01
-6.4669979e-02
2.9833274e-02
1.1778141e-01
1.5974138e-01
1.1139899e-01
-4.1019428e-03
-9.5600254e-02
-1.2114124e-01
-8.8032294e-02
-1.0485152e-02
6.8470424e-02
9.6186665e-02
6.0718984e-02
3.2839193e-03
-1.1924902e-02
4.1710776e-02
8.9459865e-02
4.6148567e-02
-4.9567921e-02
-1.2700963e-01
-1.7313299e-01
-1.8462596e-01
-1.4939025e-01
-5.0727068e-02
1.2283590e-01
3.0394998e-01
3.6447698e-01
3.0206657e-01
2.1731129e-01
1.4456616e-01
9.1212404e-02
4.1888407e-02
-5.3815981e-02
-1.8881176e-01
-3.0272927e-01
-3.4260174e-01
-2.9092046e-01
-1.6543454e-01
-2.6775807e-02
4.8251591e-02
4.8301112e-02
2.2518025e-02
1.3721241e-02
2.1488988e-02
2.0338138e-02
-4.3440450e-05
-2.7950057e-02
-4.9860618e-02
-7.3919952e-02
-1.0825740e-01
-1.4621836e-01
-1.6373029e-01
-1.4197309e-01
-7.2767534e-02
5.7874519e-02
2.2027120e-01
3.3791599e-01
3.5989020e-01
2.9639955e-01
1.8170201e-01
4.4821173e-02
-8.1763715e-02
-1.6378987e-01
-1.8573999e-01
-1.4551026e-01
-5.7397582e-02
3.8602540e-02
9.0473012e-02
6.8480790e-02
1.0560060e-02
-2.8591335e-02
-3.1462137e-02
-5.1995648e-03
3.5675025e-02
5.3093964e-02
1.0109865e-02
-5.5157508e-02
-9.0898295e-02
-9.5608716e-02
-8.2848833e-02
-4.6332064e-02
2.9354347e-02
1.1564263e-01
1.2501997e-01
3.3584099e-02
-5.3783154e-02
-4.6807122e-02
7.0622641e-02
1.8454707e-01
1.4754592e-01
2.8070733e-02
-3.9230477e-02
-2.1179612e-02
4.0616977e-02
6.0317115e-02
5.6602549e-03
-8.3407259e-02
-1.4060680e-01
-1.4074179e-01
-1.2138224e-01
-1.0302477e-01
-8.8833818e-02
-7.9470432e-02
-5.0585475e-02
1.3522704e-03
4.7741593e-02
5.9285868e-02
2.4775187e-02
-2.8832818e-02
-5.3742385e-02
-1.9399595e-02
6.8206044e-02
1.5204483e-01
1.6281517e-01
8.0917461e-02
-4.6932384e-02
-1.3708592e-01
-1.5102118e-01
-1.2679951e-01
-1.0860904e-01
-7.1192970e-02
3.8606865e-02
2.2216885e-01
3.7754034e-01
3.5730114e-01
1.5976631e-01
-6.9154173e-02
-2.0688920e-01
-2.4189547e-01
-2.2070920e-01
-1.5765213e-01
-4.6937601e-02
7.1648031e-02
1.2804157e-01
1.0252902e-01
3.5340187e-02
-2.8426873e-02
-5.6630415e-02
-2.1192432e-02
7.3234724e-02
1.8535905e-01
2.5959878e-01
2.3261705e-01
1.0222398e-01
-6.9443797e-02
-2.2680005e-01
-3.1305032e-01
-3.0628273e-01
-2.5189581e-01
-1.9868910e-01
-1.4454748e-01
-4.5965390e-02
1.0693918e-01
2.3527452e-01
2.3803583e-01
1.3414144e-01
3.9484917e-02
2.1085983e-02
-2.3469993e-04
-1.3278197e-01
-3.0659354e-01
-3.9074172e-01
-3.3365410e-01
-1.4768034e-01
9.8888000e-02
3.2255649e-01
4.4768522e-01
4.1242165e-01
2.7159419e-01
1.5924384e-01
8.7931597e-02
1.0586516e-02
-7.2971880e-02
-1.3547678e-01
-1.2175489e-01
1.0399602e-03
1.6697314e-01
2.1111724e-01
8.9195529e-02
-5.2344774e-02
-1.2777410e-01
-1.4527843e-01
-1.2194036e-01
-8.1645852e-02
-3.7279823e-02
-2.1036028e-03
6.5910090e-03
-2.5352896e-02
-7.6956422e-02
-1.0313904e-01
-1.0512238e-01
-9.3046693e-02
-7.1538024e-02
-4.3039343e-02
2.4208572e-02
1.3096242e-01
2.3116877e-01
2.3847127e-01
1.2342293e-01
-2.6721042e-03
-5.4802748e-02
-3.9180043e-02
4.0642935e-03
2.6979154e-02
1.5059592e-02
-3.6178629e-02
-1.2595316e-01
-1.9004701e-01
-1.9581852e-01
-1.9290135e-01
-1.9490640e-01
-1.7100087e-01
-8.9844655e-02
5.9410249e-02
2.4596048e-01
3.9455727e-01
4.4424202e-01
3.7886757e-01
2.2995473e-01
7.1757254e-02
-4.5854606e-02
-1.0747697e-01
-1.3542478e-01
-1.5261534e-01
-1.5771279e-01
-1.6507479e-01
-1.6518704e-01
-1.2253041e-01
-7.6289298e-02
-1.0178391e-01
-1.6191177e-01
-1.7604081e-01
-1.2953539e-01
-4.0833339e-02
5.6400492e-02
1.2408242e-01
1.7198192e-01
2.7273333e-01
4.0362176e-01
4.1262713e-01
2.6111555e-01
6.2378873e-02
-7.9803808e-02
-1.2877108e-01
-1.0591227e-01
-8.4334871e-02
-1.2036173e-01
-1.8632296e-01
-2.3274954e-01
-2.5747996e-01
-2.6642519e-01
-2.4160700e-01
-1.6460110e-01
-3.0232699e-02
1.4374048e-01
2.9911893e-01
3.6325949e-01
3.1815557e-01
1.9615415e-01
4.5216278e-02
-7.4167832e-02
-1.0553921e-01
-3.1686781e-02
1.1315380e-01
2.5059641e-01
2.7218702e-01
1.5699481e-01
2.5613785e-02
-5.0345841e-02
-1.1583746e-01
-1.8660905e-01
-2.4223341e-01
-2.6734336e-01
-2.4718172e-01
-1.8684589e-01
-1.0090861e-01
-1.8686753e-02
1.3633566e-02
-2.2162297e-02
-9.1970557e-02
-1.4843927e-01
-1.6435957e-01
-1.2716977e-01
-5.7076823e-02
2.4037787e-02
1.2568454e-01
2.5113060e-01
3.6014275e-01
3.6859331e-01
2.6071284e-01
1.2517934e-01
3.9746401e-02
1.1417767e-02
2.2624915e-02
4.0037255e-02
-8.6788245e-03
-1.3493583e-01
-2.4067796e-01
-2.7739585e-01
-3.0860173e-01
-3.4414000e-01
-3.1253193e-01
-1.7546520e-01
4.3760563e-02
2.3855277e-01
3.0447523e-01
2.6745202e-01
2.0796969e-01
1.6785972e-01
1.3919541e-01
7.6206365e-02
-2.1783270e-02
-7.7893764e-02
-2.7128093e-02
1.0111179e-01
1.7047140e-01
1.0319003e-01
-1.3730336e-02
-8.1974318e-02
-7.7396962e-02
6.4455922e-04
1.4840813e-01
2.9766202e-01
3.0895658e-01
1.4024899e-01
-8.5270013e-02
-2.5224816e-01
-3.4295367e-01
-3.8014838e-01
-3.7679016e-01
-3.3102824e-01
-2.4872407e-01
-1.3793417e-01
-1.8413793e-02
6.8812616e-02
1.0820431e-01
1.1513544e-01
1.0297457e-01
8.8150029e-02
8.4727189e-02
9.2998347e-02
9.6633322e-02
6.6280213e-02
3.8588698e-03
-4.5894339e-02
-4.6793413e-02
9.8859067e-03
1.0310922e-01
1.5442826e-01
1.0534507e-01
5.6654288e-03
-5.6180747e-02
-1.9851920e-02
9.2815098e-02
1.7654441e-01
1.6454023e-01
5.8615571e-02
-9.0454896e-02
-1.8863244e-01
-1.8568211e-01
-1.1427868e-01
-2.2259688e-02
4.7326887e-02
4.0483662e-02
-4.2738529e-02
-1.3284115e-01
-1.7212772e-01
-1.4454912e-01
-7.8832580e-02
-1.7627845e-02
7.2534903e-03
-1.0233912e-02
-9.7897432e-03
5.8231094e-02
1.8014054e-01
3.1779040e-01
4.0958609e-01
3.5860410e-01
1.7086575e-01
-8.9836012e-03
-1.1591502e-01
-1.7282336e-01
-1.9599007e-01
-2.1025060e-01
-2.2113196e-01
-1.8245579e-01
-7.9504093e-02
-4.8040392e-03
-3.9045968e-02
-1.4007427e-01
-2.2717182e-01
-2.5312632e-01
-1.9838430e-01
-7.7694604e-02
7.2373145e-02
2.2935953e-01
3.4988755e-01
3.3470942e-01
2.0007468e-01
8.7018212e-02
3.7815606e-02
1.7851714e-02
6.9098967e-03
-1.6474766e-03
1.8412469e-02
9.5035645e-02
1.7837302e-01
1.6062008e-01
3.4518349e-02
-1.0087040e-01
-1.8282832e-01
-2.0678936e-01
-2.0413636e-01
-1.8670488e-01
-1.1452585e-01
2.3958728e-02
1.6834505e-01
2.1632532e-01
1.5849673e-01
1.0784836e-01
9.7757366e-02
5.0034952e-02
-7.9655522e-02
-2.4576264e-01
-3.6365373e-01
-3.9368753e-01
-3.2690523e-01
-1.4125956e-01
9.8385643e-02
2.6860022e-01
3.6312213e-01
4.2298520e-01
4.4655479e-01
3.9275299e-01
2.2910768e-01
2.9291393e-02
-1.1414049e-01
-1.7390888e-01
-1.8186360e-01
-2.0130493e-01
-2.3449652e-01
-2.4071605e-01
-2.1150888e-01
-1.4097714e-01
-2.3148886e-02
9.4729672e-02
1.5131202e-01
1.5075372e-01
1.1220558e-01
3.5538967e-02
-4.0528448e-02
-8.5083787e-02
-1.0018325e-01
-9.2580901e-02
-8.9504930e-02
-1.1398753e-01
-1.3975775e-01
-1.0875046e-01
-3.6124947e-02
-1.5981929e-03
3.7983536e-03
5.3538724e-02
1.5830634e-01
2.6997858e-01
3.1336174e-01
2.3121065e-01
7.6334194e-02
-2.4415255e-02
-3.5970129e-02
-3.3515220e-02
-6.0539150e-02
-8.7426517e-02
-7.5599847e-02
-1.9267813e-02
5.1648223e-02
8.8019661e-02
6.5358030e-02
1.0971901e-02
-4.8327916e-02
-1.0742378e-01
-1.4755605e-01
-1.5576522e-01
-1.3329534e-01
-7.8692204e-02
-9.4831055e-03
4.0506127e-02
5.5334588e-02
3.8562130e-02
7.9184514e-03
1.6047545e-03
4.3165962e-02
1.1306226e-01
1.5964689e-01
1.5149051e-01
1.0101781e-01
1.4694168e-02
-8.9492484e-02
-1.6171933e-01
-1.7847857e-01
-1.4598784e-01
-7.8192421e-02
-4.8825371e-03
4.2156347e-02
4.8438462e-02
2.0441777e-02
-1.8389666e-02
-4.4372782e-02
-6.0198006e-02
-6.4918995e-02
-3.8753095e-02
6.3424589e-04
9.7710504e-03
-3.3444879e-02
-9.8923804e-02
-1.1620090e-01
-6.0378326e-02
2.1418343e-02
5.2814088e-02
4.5403402e-02
1.0577341e-01
2.4233301e-01
3.4652730e-01
3.1648021e-01
1.5233724e-01
-3.7346469e-02
-1.4679699e-01
-1.6084211e-01
-1.5505551e-01
-1.7593238e-01
-1.7477059e-01
-9.5790724e-02
5.2256118e-02
2.0698217e-01
2.7808479e-01
2.1399295e-01
8.5334577e-02
-1.2699050e-02
-8.0955396e-02
-1.5721896e-01
-2.3571940e-01
-2.8493949e-01
-2.7079621e-01
-1.7260988e-01
-4.7380676e-02
3.9051448e-03
-3.9435079e-02
-9.8121886e-02
-7.9840509e-02
4.3188654e-02
2.1890802e-01
3.5157821e-01
3.7194194e-01
2.8315871e-01
1.5216067e-01
5.7967828e-02
2.2256524e-02
2.4020247e-02
5.1517196e-02
6.0507274e-02
-1.3085923e-02
-1.4795096e-01
-2.6322691e-01
-3.0543929e-01
-2.6000047e-01
-1.3592977e-01
2.8659478e-02
1.5270230e-01
1.5035807e-01
4.4875754e-02
-4.3674948e-02
-5.7362858e-02
-2.2403779e-02
-4.9360859e-03
-5.6200704e-02
-1.3786314e-01
-1.6851341e-01
-1.0760178e-01
3.9294854e-02
2.0947554e-01
2.8506093e-01
2.2793349e-01
1.0190156e-01
-2.4956231e-02
-9.2458006e-02
-7.7967556e-02
-1.1755730e-02
3.3493447e-02
2.0687608e-02
1.2952000e-02
5.5554409e-02
8.9685973e-02
5.6436926e-02
-3.4832165e-02
-1.5247508e-01
-2.2982183e-01
-2.1642933e-01
-1.4490717e-01
-7.0825856e-02
9.4888669e-03
1.5988301e-01
3.8534125e-01
5.8518916e-01
6.1780990e-01
4.0233364e-01
3.3557601e-02
-2.8949613e-01
-4.5544309e-01
-4.5528958e-01
-3.4598603e-01
-2.2530634e-01
-1.3150237e-01
-5.4830050e-02
7.5301245e-03
7.3278099e-02
1.5078176e-01
1.9859754e-01
1.8023579e-01
1.2098254e-01
3.6661547e-02
-8.4748616e-02
-2.0388348e-01
-2.5485476e-01
-2.1379278e-01
-1.3077140e-01
-8.9583013e-02
-1.0456187e-01
-1.2670569e-01
-1.1977617e-01
-7.1128704e-02
2.6341917e-02
1.8517506e-01
3.7477831e-01
4.8888982e-01
4.4169367e-01
2.6599199e-01
8.1445909e-02
-2.2217490e-02
-7.5966043e-02
-1.4617042e-01
-2.0997791e-01
-2.3235119e-01
-2.2892082e-01
-2.1443402e-01
-1.7080657e-01
-5.2768030e-02
1.2738367e-01
2.5327629e-01
2.3204770e-01
1.1189126e-01
1.7226217e-02
8.1594664e-03
5.1817065e-02
8.0263051e-02
6.5202509e-02
8.9084826e-03
-6.9152930e-02
-1.1342360e-01
-1.2593439e-01
-1.2847430e-01
-1.0134604e-01
-6.9314224e-02
-6.8970307e-02
-9.2459354e-02
-1.2341754e-01
-1.5319105e-01
-1.6188389e-01
-1.1731901e-01
-2.1979619e-02
9.2214991e-02
2.0539861e-01
3.0141391e-01
3.2015232e-01
2.2465353e-01
1.0064043e-01
2.5282781e-02
-2.0620154e-03
-7.3958952e-03
-3.5481720e-02
-1.0042234e-01
-1.6650850e-01
-1.8849306e-01
-1.5391266e-01
-9.0829213e-02
-3.0820657e-02
1.5478431e-02
4.0975275e-02
5.7612007e-02
1.3329964e-01
2.2371402e-01
1.7826892e-01
2.7082634e-02
-9.5156786e-02
-1.2046599e-01
-3.3851640e-02
9.3482173e-02
1.3953823e-01
7.1093159e-02
-3.9835203e-02
-1.0934355e-01
-1.1457172e-01
-9.4746089e-02
-9.0363148e-02
-1.1017715e-01
-1.1830614e-01
-6.7540805e-02
2.6390236e-02
9.3195818e-02
7.2621817e-02
-2.1605323e-02
-9.9941051e-02
-1.0843558e-01
-6.5792940e-02
2.6624321e-03
7.1319844e-02
9.6571471e-02
9.4938274e-02
1.5238110e-01
3.0679207e-01
4.3860267e-01
3.6273529e-01
1.0719463e-01
-1.5095789e-01
-3.0741018e-01
-3.2812901e-01
-2.4515386e-01
-1.2253173e-01
-3.5730369e-02
-3.3478214e-02
-8.0819627e-02
-1.3070603e-01
-1.2916561e-01
-4.4038253e-02
7.8832951e-02
1.4098431e-01
7.7833470e-02
-5.9395615e-02
-1.7328327e-01
-1.9208761e-01
-1.0548370e-01
3.0976183e-02
1.6156365e-01
2.6340307e-01
2.9774465e-01
2.2036859e-01
8.5331881e-02
5.8075401e-03
1.0069377e-02
3.7194355e-03
-6.5751396e-02
-1.1909607e-01
-9.7455280e-02
-1.0799883e-02
7.7147897e-02
8.7196465e-02
2.5838485e-02
-4.1199320e-02
-6.4258029e-02
-3.1238654e-02
-4.8445147e-03
-6.4396359e-02
-1.6433828e-01
-2.0403949e-01
-1.4631291e-01
-3.1895927e-02
5.6293816e-02
9.4191484e-02
1.2305652e-01
1.8683981e-01
2.6245646e-01
2.6299289e-01
1.7049284e-01
5.1149684e-02
-3.7100084e-02
-8.8978406e-02
-1.2717694e-01
-1.4151192e-01
-1.2389690e-01
-1.1430688e-01
-1.4385416e-01
-2.0083112e-01
-2.5158932e-01
-2.5252008e-01
-1.8227746e-01
-6.1375154e-02
7.2149299e-02
2.0072974e-01
3.1046093e-01
3.3232396e-01
2.5153036e-01
1.5585809e-01
7.2354807e-02
-2.0575707e-02
-1.1266064e-01
-1.9006448e-01
-2.2600619e-01
-1.8451529e-01
-7.1701088e-02
7.1457827e-02
1.7402504e-01
1.6252189e-01
7.1948528e-02
-7.9826424e-03
-4.7310263e-02
-3.6631782e-02
2.8011025e-02
1.0864126e-01
1.2918026e-01
6.4441054e-02
-2.0485088e-02
-7.5497322e-02
-9.9044583e-02
-9.1546991e-02
-6.4974819e-02
-4.1199219e-02
-2.8161616e-02
-2.1264895e-02
-3.2014689e-03
1.9023323e-03
-2.3247896e-02
-1.2413609e-02
6.4197094e-02
1.6041831e-01
2.2396010e-01
2.0834952e-01
1.0485422e-01
-2.0710442e-02
-9.9824064e-02
-1.4060424e-01
-1.7687937e-01
-2.0758196e-01
-2.1883066e-01
-2.0785422e-01
-1.7291159e-01
-9.4741509e-02
3.8286833e-02
1.8091367e-01
2.5820984e-01
2.1452091e-01
8.9107728e-02
6.7010221e-03
-5.1117164e-03
-1.1827710e-02
-4.1370629e-02
-6.7098370e-02
-7.0620521e-02
-5.3590244e-02
1.4489290e-02
8.6807683e-02
8.9856628e-02
5.7763791e-02
6.3766889e-03
-6.4100574e-02
-1.1649545e-01
-1.2289854e-01
-7.5320192e-02
1.3784272e-02
9.2367885e-02
7.5419033e-02
-7.9322763e-03
-3.6641399e-02
7.1943382e-03
7.2282339e-02
1.0737875e-01
9.0234270e-02
7.5770551e-02
1.0497780e-01
1.5089213e-01
1.3780485e-01
2.1063285e-02
-1.2348727e-01
-2.0799465e-01
-2.1757275e-01
-2.0046290e-01
-2.2108763e-01
-2.6809749e-01
-2.6799778e-01
-1.7640376e-01
2.1798532e-02
2.4197829e-01
3.0707235e-01
1.8818298e-01
-2.8637142e-03
-1.3648686e-01
-1.2006758e-01
1.1508440e-02
1.3008264e-01
1.6111446e-01
1.7342643e-01
2.2973588e-01
2.3872314e-01
1.2353361e-01
-4.6164838e-02
-1.5457442e-01
-1.3168502e-01
-1.7188539e-03
1.0591884e-01
9.5105189e-02
5.7457286e-02
6.8410917e-02
3.6602944e-02
-6.2885780e-02
-1.4427765e-01
-1.5199245e-01
-7.6770269e-02
5.9985219e-02
1.4447834e-01
1.0020453e-01
2.0076616e-02
-1.4098644e-02
-1.6555955e-02
-2.7705176e-02
-6.1568829e-02
-9.6767956e-02
-1.2240315e-01
-1.3544502e-01
-1.2564424e-01
-1.0726715e-01
-9.9700644e-02
-1.1291151e-01
-1.4179173e-01
-1.4184407e-01
-7.2296529e-02
6.6471281e-02
2.0767773e-01
2.6242108e-01
2.2593609e-01
1.6914441e-01
1.8917298e-01
2.5421750e-01
2.2459966e-01
9.3914409e-02
-6.8714692e-02
-2.0565399e-01
-2.7385476e-01
-2.6028435e-01
-1.6910841e-01
-4.5764908e-02
3.2531708e-02
2.1275359e-02
-4.1803777e-02
-8.2720579e-02
-4.1589970e-02
8.3422506e-02
2.2028183e-01
2.5591626e-01
1.3475270e-01
-2.8963582e-02
-7.5392196e-02
-2.6777835e-02
-6.1121452e-03
-1.0771050e-02
1.9540854e-02
7.5255201e-02
7.5608874e-02
-3.7742526e-02
-1.9594503e-01
-2.8685666e-01
-2.4230053e-01
-1.0046176e-01
3.4593387e-02
1.4422633e-01
2.2314861e-01
2.4963518e-01
2.1876555e-01
1.0376392e-01
-4.9290388e-02
-1.4754220e-01
-1.6784064e-01
-1.3429941e-01
-6.7762302e-02
1.8806337e-02
1.1310018e-01
1.9473329e-01
2.1921919e-01
1.5348327e-01
3.4339472e-02
-6.8001048e-02
-1.4103100e-01
-2.1260775e-01
-2.7112142e-01
-2.7243558e-01
-2.0612896e-01
-9.8529158e-02
-6.6036459e-03
6.5479674e-03
-3.0030567e-02
-3.6933160e-02
-4.2035866e-03
1.6378230e-02
-1.5441338e-02
-7.9075936e-02
-1.1592128e-01
-7.4917386e-02
4.8530334e-02
2.1253097e-01
3.7241374e-01
4.5439282e-01
3.6073331e-01
1.4712854e-01
6.9939929e-03
8.0552870e-03
7.5428600e-02
1.0483859e-01
3.1035339e-02
-1.1235316e-01
-2.3411349e-01
-2.7612891e-01
-2.7044294e-01
-2.6308542e-01
-2.2795577e-01
-1.2990739e-01
3.2283061e-02
2.2558919e-01
3.5758979e-01
3.2932929e-01
1.7074918e-01
4.0600070e-02
1.5454641e-02
1.4790303e-02
-4.9429998e-02
-1.6930744e-01
-2.7835490e-01
-3.2361369e-01
-2.8134689e-01
-1.5701838e-01
6.7727349e-03
1.2362219e-01
9.8397667e-02
-5.4468325e-02
-2.0917643e-01
-2.8266093e-01
-2.6105829e-01
-1.5655403e-01
-1.6243162e-02
1.3358501e-01
2.8896450e-01
4.1354410e-01
4.3481930e-01
3.6501432e-01
3.3440441e-01
3.3762962e-01
2.4202004e-01
1.8215988e-02
-2.1153919e-01
-2.9044867e-01
-1.7688912e-01
8.2258600e-03
7.0337111e-02
-2.2928072e-02
-1.5144715e-01
-2.5173700e-01
-2.8716124e-01
-2.2455562e-01
-7.7871472e-02
9.4286599e-02
1.8676668e-01
1.6459905e-01
9.3540995e-02
3.1184883e-02
-1.9183502e-03
-3.3793958e-02
-9.3958120e-02
-1.6378152e-01
-1.9082881e-01
-1.0996713e-01
8.1156541e-02
2.8586465e-01
3.7842765e-01
3.2756605e-01
2.0239691e-01
5.8843687e-02
-8.4198270e-02
-2.0018929e-01
-2.4038367e-01
-2.0523327e-01
-1.7564150e-01
-1.8426839e-01
-1.5801984e-01
-6.7684533e-02
3.2537345e-02
1.0712951e-01
1.4673476e-01
1.7604954e-01
2.4249547e-01
3.1294541e-01
2.9428874e-01
1.6664226e-01
3.8920871e-04
-1.0720393e-01
-1.3086421e-01
-1.2179837e-01
-1.2313975e-01
-1.4561214e-01
-1.8184253e-01
-2.0581015e-01
-1.7762927e-01
-1.0220963e-01
-4.4218987e-02
-3.3302352e-02
-3.8817510e-02
-4.7038355e-02
-5.1815894e-02
-3.7052599e-02
-1.1863319e-02
3.8405977e-03
2.6064990e-03
1.9376562e-02
1.2321071e-01
2.5958074e-01
2.8616386e-01
1.9544249e-01
6.5714322e-02
-4.5197094e-02
-1.0784265e-01
-1.4817966e-01
-1.8413119e-01
-1.6003958e-01
-4.7839232e-03
1.8763735e-01
2.3348105e-01
1.5608552e-01
9.4296624e-02
1.0800968e-01
1.7394503e-01
2.0614945e-01
1.2417814e-01
-4.1944322e-02
-1.6747528e-01
-1.9305479e-01
-1.6415895e-01
-1.3075530e-01
-1.0738804e-01
-1.0499585e-01
-1.4674656e-01
-2.2137932e-01
-2.7831700e-01
-2.9153065e-01
-2.4582803e-01
-1.6149442e-01
-9.8728872e-02
-3.5210798e-02
9.6699809e-02
3.0612483e-01
5.0812565e-01
5.5350821e-01
4.1639507e-01
2.1727025e-01
4.0203479e-02
-1.1189882e-01
-2.4812536e-01
-3.4413911e-01
-3.5627396e-01
-2.6788565e-01
-1.1614007e-01
4.2003642e-02
1.3060285e-01
1.0739253e-01
6.1471846e-02
7.2520097e-02
1.1390357e-01
1.6125735e-01
1.6379727e-01
3.8187718e-02
-1.9540639e-01
-4.1792456e-01
-4.9885845e-01
-3.8123115e-01
-1.3642208e-01
1.3466897e-01
3.9070698e-01
5.7311224e-01
5.8773271e-01
4.1631702e-01
1.5456946e-01
-4.7249491e-02
-8.8096127e-02
2.0548933e-02
1.7767038e-01
2.4911667e-01
1.8924911e-01
5.0433077e-02
-1.2253042e-01
-2.7831996e-01
-3.6427884e-01
-3.6880767e-01
-3.0242614e-01
-2.0572597e-01
-1.1579156e-01
-2.8586594e-02
5.8143211e-02
1.2572910e-01
1.3854770e-01
9.6211345e-02
2.3468793e-02
-8.0515742e-02
-1.8033552e-01
-2.1088512e-01
-1.7169373e-01
-8.1817798e-02
8.7931232e-02
3.0663796e-01
4.7051386e-01
5.0013273e-01
3.5857347e-01
1.0748907e-01
-1.0613254e-01
-2.1551637e-01
-2.6109213e-01
-2.5706892e-01
-1.8267986e-01
-6.3862696e-02
3.3244883e-02
6.9670841e-02
5.1427515e-02
-1.4289222e-03
-4.5785553e-02
-4.1792878e-02
-2.3880143e-02
-4.4511614e-02
-8.7578259e-02
-1.0762581e-01
-8.3114379e-02
-2.1186076e-02
4.3745737e-02
7.2127975e-02
7.0068612e-02
6.5195833e-02
5.8962165e-02
3.6697297e-02
-1.4625354e-02
-7.5589845e-02
-1.2215474e-01
-1.5163257e-01
-1.4532020e-01
-8.0968973e-02
2.1761415e-02
1.0469087e-01
1.0250349e-01
3.3052276e-02
-2.2779025e-02
-7.2032323e-02
-1.4318618e-01
-1.9951146e-01
-1.9708019e-01
-1.0227224e-01
8.5655986e-02
2.9894207e-01
4.1966936e-01
4.1988712e-01
3.9824768e-01
3.7744974e-01
2.9147273e-01
1.3234812e-01
-7.1005265e-02
-2.7312137e-01
-3.9381154e-01
-3.9373437e-01
-3.1353106e-01
-2.1887681e-01
-1.4384679e-01
-8.7778091e-02
-3.1145879e-02
4.3721322e-02
1.2426749e-01
1.5413157e-01
9.8204349e-02
7.2419363e-03
-4.8301275e-02
-5.4615650e-02
-3.7708061e-02
-1.0593545e-02
3.1482695e-02
8.1012395e-02
1.0291025e-01
7.5785226e-02
3.0148996e-02
9.0421694e-03
1.2406663e-02
-5.6709884e-03
-6.8537705e-02
-1.3022117e-01
-1.4592790e-01
-1.2357841e-01
-9.2137952e-02
-7.0951963e-02
-5.2319669e-02
-2.5407357e-02
2.3605950e-02
7.6410966e-02
7.9687607e-02
5.2345821e-02
5.6563951e-02
1.3287839e-01
2.3719392e-01
2.3995670e-01
1.0662158e-01
-6.3103045e-02
-1.6044739e-01
-1.4889277e-01
-5.4487089e-02
9.8018845e-02
2.6930427e-01
3.3942607e-01
2.1595749e-01
-8.1451100e-03
-1.7170861e-01
-2.0936683e-01
-1.4665480e-01
-7.2007757e-02
-5.2816196e-02
-6.4357239e-02
-6.1414672e-02
-3.5615901e-02
-6.8015010e-03
-7.6390060e-03
-4.5768068e-02
-8.8347340e-02
-1.0967740e-01
-1.1463347e-01
-1.1301736e-01
-1.0406912e-01
-7.1877861e-02
-1.5013648e-02
3.1080711e-02
3.3061886e-02
-9.1241941e-03
-5.6121336e-02
-4.1389232e-02
4.2127536e-02
1.3879757e-01
2.2988835e-01
3.1205897e-01
3.4408662e-01
2.9470240e-01
1.7356911e-01
1.0300020e-02
-1.5029708e-01
-2.6835627e-01
-3.3291100e-01
-3.5772224e-01
-3.5370094e-01
-3.1833089e-01
-2.5211152e-01
-1.5683907e-01
-2.4435392e-02
1.5701198e-01
3.4034397e-01
4.1102966e-01
3.5660556e-01
3.0319615e-01
3.2932040e-01
3.9304616e-01
3.6194997e-01
1.5620162e-01
-1.1525210e-01
-3.0532005e-01
-3.6550909e-01
-3.3418366e-01
-2.7506708e-01
-1.9989928e-01
-1.0755823e-01
-7.4688874e-03
8.9007009e-02
1.2746067e-01
8.0123511e-02
3.1523881e-03
-5.8793289e-02
-1.0034342e-01
-1.2296511e-01
-1.1821777e-01
-7.5460253e-02
-1.2319912e-02
4.2710006e-02
5.5635599e-02
1.4917705e-02
-3.8012549e-02
-7.3140624e-02
-9.2117330e-02
-8.8212332e-02
-4.8722000e-02
3.6155139e-02
1.6615132e-01
3.1099488e-01
4.0170556e-01
3.6314699e-01
1.9636038e-01
-7.1335137e-03
-1.6096692e-01
-2.4359276e-01
-2.6237216e-01
-2.0507149e-01
-9.1418251e-02
1.1646511e-02
4.3729735e-02
-1.4774525e-02
-9.7444912e-02
-1.1381384e-01
-4.2494992e-02
2.7342744e-02
-1.2596348e-02
-1.2372446e-01
-2.0213241e-01
-2.1050619e-01
-1.4933274e-01
-2.9278243e-02
1.2056387e-01
2.8647471e-01
4.8162093e-01
6.2428487e-01
5.7311026e-01
3.2779513e-01
2.0716342e-02
-2.0548019e-01
-2.8763225e-01
-2.5746786e-01
-1.7446361e-01
-6.4765927e-02
2.8831653e-02
4.6415344e-02
6.4721721e-03
-5.7667512e-02
-1.3815098e-01
-2.1479351e-01
-2.6520373e-01
-2.7525462e-01
-2.4922274e-01
-1.8751670e-01
-8.5994584e-02
3.2288410e-02
1.3912468e-01
2.4083768e-01
3.4879652e-01
4.1418512e-01
3.7183776e-01
2.5518322e-01
1.4838764e-01
7.9756105e-02
3.8692226e-02
