2.0669387e-02
1.4775310e-01
2.3682154e-01
2.3592717e-01
1.8216023e-01
1.1606118e-01
6.6590637e-02
6.3351164e-02
8.8821954e-02
8.9118465e-02
3.8655599e-02
-3.1990163e-02
-7.7737362e-02
-7.4302165e-02
-2.2793275e-02
4.6178237e-02
9.5346652e-02
9.9791691e-02
6.1361899e-02
1.7704051e-02
-1.6333716e-02
-4.1794909e-02
-5.0933519e-02
-4.5960702e-02
-3.6070091e-02
-3.2800457e-02
-4.1104098e-02
-5.4248104e-02
-6.2527817e-02
-6.5338054e-02
-6.7539124e-02
-6.9396570e-02
-6.3584168e-02
-4.5448047e-02
-1.8666722e-02
1.1213221e-02
3.4155135e-02
2.5308460e-02
-3.3072538e-02
-1.1391960e-01
-1.7577074e-01
-1.9449040e-01
-1.6032962e-01
-7.8731204e-02
4.4138367e-02
2.0195995e-01
3.3836418e-01
3.6074922e-01
2.3920444e-01
1.7548835e-02
-2.0487111e-01
-3.3694912e-01
-3.7157254e-01
-3.1829767e-01
-1.5451938e-01
1.0796824e-01
3.6041979e-01
5.1366680e-01
5.8576430e-01
5.8180618e-01
4.8263308e-01
3.0858782e-01
1.0013975e-01
-9.1056579e-02
-2.2026651e-01
-2.8229213e-01
-3.0146291e-01
-2.9926034e-01
-2.8493769e-01
-2.6711634e-01
-2.5627493e-01
-2.5547890e-01
-2.5892115e-01
-2.6070701e-01
-2.5341727e-01
-2.1887510e-01
-1.2485940e-01
6.6973717e-02
3.3768915e-01
5.7891535e-01
6.8985312e-01
6.4196130e-01
4.5251000e-01
1.9975152e-01
-1.0752338e-02
-1.4184541e-01
-2.1211930e-01
-2.4158999e-01
-2.4275944e-01
-2.2422269e-01
-1.9056014e-01
-1.4892923e-01
-1.1379210e-01
-9.1078857e-02
-7.1827776e-02
-4.7037377e-02
-1.3065827e-02
2.8604724e-02
6.9882075e-02
8.5028161e-02
6.1333533e-02
3.2690877e-02
2.0144796e-02
1.7013972e-02
1.9405348e-02
1.5327158e-02
-1.1064767e-03
-1.5602208e-02
-2.2974922e-02
-2.9419184e-02
-3.7395843e-02
-4.7927084e-02
-5.4835199e-02
-5.5440608e-02
-5.4089652e-02
-4.7664470e-02
-2.4427153e-02
1.9054791e-02
4.9177950e-02
3.6441961e-02
6.6521290e-03
-2.8042125e-03
2.9025669e-02
1.0953858e-01
1.9370425e-01
1.9554490e-01
1.1137069e-01
2.1534963e-02
-3.9499767e-02
-8.0499968e-02
-1.0099032e-01
-1.2046564e-01
-1.6188768e-01
-2.0349569e-01
-2.1617885e-01
-1.8541495e-01
-1.2996290e-01
-8.9646022e-02
-4.6843392e-02
4.9381993e-02
1.8993236e-01
3.2143652e-01
4.2078533e-01
4.5583037e-01
3.8087005e-01
2.4184996e-01
1.2277326e-01
2.9340849e-02
-4.3417717e-02
-1.0149637e-01
-1.6716278e-01
-2.1480007e-01
-2.2300405e-01
-2.1507707e-01
-2.1128226e-01
-2.0994900e-01
-2.0063548e-01
-1.7036691e-01
-1.1477271e-01
-4.3779225e-02
2.8823757e-02
8.6484267e-02
1.1512652e-01
8.8019597e-02
1.1134336e-02
-2.7263056e-02
-1.4606522e-02
-3.2722365e-02
-9.6054879e-02
-1.4846280e-01
-1.1853128e-01
-5.4229936e-03
1.3361281e-01
2.7067733e-01
3.4382501e-01
3.1492080e-01
2.3655409e-01
1.1947861e-01
-2.6411974e-02
-1.2421521e-01
-1.3473367e-01
-8.0821431e-02
-1.1846994e-02
1.1397013e-02
-2.3804730e-02
-6.7759647e-02
-8.4916177e-02
-7.6774895e-02
-4.2510828e-02
6.7928703e-03
2.2717006e-02
-1.1237896e-02
-4.3133097e-02
-3.9144098e-02
-1.4797578e-02
-7.0682031e-03
-3.1806065e-02
-4.8392171e-02
-2.7995079e-02
1.6367310e-02
4.4210400e-02
6.9022805e-03
-7.4598908e-02
-1.2657680e-01
-1.0393391e-01
-2.3551668e-02
7.1885103e-02
1.4604885e-01
1.4754328e-01
9.4847139e-02
6.3364384e-02
5.7905440e-02
8.2071276e-02
1.3273226e-01
1.2528614e-01
2.6909757e-02
-8.7135664e-02
-1.4721103e-01
-1.4268784e-01
-8.5229348e-02
-6.9146111e-03
3.0931177e-02
2.1150158e-02
1.8385102e-02
2.7420973e-02
-2.1926340e-03
-8.1577317e-02
-1.3999245e-01
-9.6721697e-02
1.2532215e-02
8.6603988e-02
8.2739631e-02
3.5208082e-02
3.4122175e-02
7.2372940e-02
5.5488623e-02
2.8443318e-03
1.6068562e-03
3.3390603e-02
1.0543998e-02
-6.1746126e-02
-1.1484078e-01
-1.2323602e-01
-9.6341036e-02
-5.7682826e-02
-4.5127072e-02
-5.8750276e-02
-4.2244671e-02
3.6611204e-02
9.6388949e-02
5.9736749e-02
4.1133703e-03
-8.6698208e-04
1.9033360e-02
2.5536259e-02
1.6188823e-02
3.7838123e-02
1.1032238e-01
1.6586735e-01
1.1246716e-01
-2.3432170e-02
-1.3470901e-01
-1.6439500e-01
-1.2049867e-01
-4.5695076e-02
3.4173234e-02
8.8501076e-02
9.1304936e-02
6.8395195e-02
4.6065332e-02
4.4501645e-02
6.5784865e-02
5.8746592e-02
3.2949207e-03
-5.7622706e-02
-8.5348941e-02
-6.8315667e-02
-9.8407129e-03
5.2945325e-02
5.5170770e-02
-3.4913431e-03
-5.3459395e-02
-6.7587260e-02
-7.0735930e-02
-7.3481691e-02
-6.8819978e-02
-5.7257579e-02
-5.3270776e-02
-6.2931364e-02
-6.8825667e-02
-3.8992281e-02
3.4808061e-02
8.9735941e-02
7.3050905e-02
3.6242865e-02
4.8254609e-02
1.1782170e-01
1.8823806e-01
1.7938120e-01
9.4118536e-02
6.5780323e-03
-3.5692616e-02
-4.1464282e-02
-4.4407283e-02
-6.0329504e-02
-8.8823144e-02
-1.1063270e-01
-9.8223502e-02
-7.1377431e-02
-7.1261859e-02
-9.0291862e-02
-9.4066633e-02
-6.9790286e-02
-1.6498590e-02
6.4369612e-02
1.3676652e-01
1.4232956e-01
7.5807393e-02
-1.2789860e-02
-7.7857645e-02
-8.7257999e-02
-1.8156495e-02
7.5781410e-02
9.5971577e-02
4.7606714e-02
9.9262443e-03
2.1915905e-02
5.8082787e-02
9.4750515e-02
1.2855051e-01
1.1011986e-01
3.3401341e-02
-3.7727283e-02
-7.5786128e-02
-8.1699698e-02
-6.1174134e-02
-3.8764741e-02
-3.8382628e-02
-4.6929710e-02
-4.4632623e-02
-3.6366118e-02
-3.3644368e-02
-3.1502428e-02
-1.4738433e-02
5.1262647e-03
9.6087379e-03
2.2637251e-03
2.0879227e-03
2.1747344e-02
4.0337280e-02
3.2899988e-02
3.9335366e-03
-2.3989379e-02
-2.8041371e-02
-1.1714075e-03
4.5111699e-02
6.6499069e-02
4.1307395e-02
2.0818662e-02
2.4548162e-02
1.1933377e-02
-2.8876597e-02
-7.4672514e-02
-1.1010654e-01
-1.2399430e-01
-1.1826691e-01
-1.0947286e-01
-9.6187018e-02
-6.4830665e-02
-1.9757880e-03
7.9845538e-02
1.2933732e-01
1.3411058e-01
1.4680525e-01
1.5461482e-01
9.1652042e-02
-8.2992314e-03
-7.4105579e-02
-8.8795916e-02
-3.2859822e-02
4.6069859e-02
4.8430768e-02
4.9317276e-03
-6.4989893e-03
2.2275438e-02
5.1126487e-02
5.2860325e-02
4.2679560e-02
1.9380770e-02
-7.8581619e-03
-2.4964404e-02
-4.1993982e-02
-4.6516000e-02
-2.6990321e-02
-2.2192673e-02
-5.5923400e-02
-8.2545966e-02
-7.1618983e-02
-4.2183053e-02
-1.2757198e-02
1.1617968e-02
2.3121932e-02
1.9488649e-02
1.6347619e-02
2.8082388e-02
4.8941365e-02
4.4705055e-02
2.4398647e-03
-3.4742228e-02
-4.4486567e-02
-3.8805250e-02
-7.9522337e-03
3.3608917e-02
5.3940347e-02
5.2215698e-02
3.6708613e-02
2.0007247e-02
7.9294285e-03
3.0910024e-03
6.0880521e-03
2.2891800e-03
-2.0602163e-02
-5.2321606e-02
-6.8586133e-02
-5.9286940e-02
-3.4135639e-02
-2.2276924e-02
-3.3707831e-02
-3.4519278e-02
-9.1388530e-03
2.4464790e-02
5.2454874e-02
6.9475640e-02
5.7456053e-02
1.6365074e-02
-1.4925076e-02
-1.4213955e-02
2.4147639e-02
7.0865355e-02
6.9318362e-02
3.4345552e-02
8.0919164e-03
-2.5669895e-03
1.1969252e-02
2.6053679e-02
-4.7243621e-03
-5.4365735e-02
-8.0988177e-02
-8.1583256e-02
-6.2571462e-02
-3.8175076e-02
-3.2218226e-02
-5.0666026e-02
-6.9102934e-02
-6.3784155e-02
-3.0082435e-02
2.9787174e-02
9.6699406e-02
1.4145924e-01
1.3989564e-01
9.3354319e-02
4.5363514e-02
1.9723758e-02
9.7669625e-03
-7.4195890e-03
-5.3262430e-02
-1.0135769e-01
-1.1153956e-01
-7.5387425e-02
-1.2640451e-02
4.1223384e-02
6.3949759e-02
6.2222205e-02
4.7417015e-02
3.0261069e-02
1.7545085e-02
1.3192925e-02
2.0088462e-02
1.6712386e-02
-1.6672913e-02
-6.2244354e-02
-9.9090654e-02
-1.1971922e-01
-1.1687226e-01
-9.8638844e-02
-7.5693171e-02
-3.6276733e-02
2.4863778e-02
7.7281731e-02
9.3698055e-02
8.0967638e-02
6.5222843e-02
5.0024272e-02
2.0269729e-02
6.4155526e-03
3.7988757e-02
8.2053377e-02
9.1138566e-02
7.3928252e-02
5.1781568e-02
2.5461884e-02
1.0183445e-02
4.4908102e-04
-2.8652142e-02
-7.5322036e-02
-1.0564269e-01
-1.0056757e-01
-6.6055249e-02
-2.1047282e-02
-1.4810771e-03
-1.6053789e-02
-3.3347990e-02
-3.6433691e-02
-3.3731760e-02
-2.6300351e-02
-4.7700779e-03
1.8744115e-02
2.0174081e-02
1.0045061e-02
1.2294476e-02
3.3753133e-02
6.3207049e-02
6.8347350e-02
3.3020010e-02
-1.7958841e-02
-4.2639662e-02
-1.0926658e-02
4.6738517e-02
5.9935915e-02
1.6244862e-02
-3.0950529e-02
-4.4178604e-02
-3.2510562e-02
-8.7838764e-03
1.1903018e-02
2.8105723e-03
-3.3759176e-02
-6.9278629e-02
-8.1370781e-02
-5.9078529e-02
-1.6651616e-02
1.8967597e-03
-1.0831907e-02
-6.7976030e-03
5.1263314e-02
1.5117425e-01
2.2285128e-01
1.9661818e-01
1.0233688e-01
1.3661376e-02
-3.8004056e-02
-5.8483644e-02
-9.3278281e-02
-1.3004440e-01
-1.1944466e-01
-6.0846024e-02
5.0599010e-03
3.3425795e-03
-4.9976575e-02
-7.6010555e-02
-5.7504514e-02
-1.1618720e-02
1.4152988e-02
-7.6386976e-05
2.8196457e-03
4.7784880e-02
6.5731610e-02
2.1797773e-02
-7.9408068e-03
2.5725603e-02
6.6567745e-02
5.7193904e-02
7.7794660e-03
-2.7327197e-02
-7.3245853e-03
3.6621379e-02
4.4625734e-02
-5.0481261e-03
-6.1487252e-02
-5.4578011e-02
-6.4709328e-03
1.4188881e-02
4.6050600e-03
9.8961761e-03
5.5506799e-02
1.0611260e-01
1.0509393e-01
5.2418952e-02
-1.1777334e-02
-5.8476964e-02
-9.4471852e-02
-1.2854515e-01
-1.5025544e-01
-1.6294132e-01
-1.6838580e-01
-1.5277877e-01
-1.2117169e-01
-7.7961211e-02
9.9155454e-03
1.0051136e-01
1.1554600e-01
1.1288740e-01
1.6522184e-01
2.3906339e-01
2.5001973e-01
1.5240023e-01
-7.9306418e-03
-1.3545445e-01
-1.7518993e-01
-1.3129861e-01
-5.4029164e-02
3.3499515e-03
3.1375387e-02
4.1891851e-02
6.3335392e-02
8.4014253e-02
8.8155565e-02
8.5176740e-02
4.9117146e-02
-1.1174891e-02
-5.3562351e-02
-6.3766247e-02
-2.7082624e-02
3.5028666e-02
4.1540989e-02
-2.6998826e-02
-1.0034103e-01
-1.2689054e-01
-1.1758886e-01
-1.0084139e-01
-7.1671869e-02
-1.6895184e-02
3.5743201e-02
5.6648355e-02
6.1012721e-02
8.2174998e-02
1.3650149e-01
1.7151595e-01
9.8447257e-02
-6.4079274e-02
-2.1298493e-01
-2.9752895e-01
-3.1772581e-01
-2.8066436e-01
-2.1006413e-01
-1.4454435e-01
-7.7579952e-02
6.7746633e-02
2.9837834e-01
5.0372658e-01
6.0126020e-01
5.7740965e-01
4.5422576e-01
2.4371113e-01
-9.1029622e-03
-1.9985522e-01
-2.8972198e-01
-3.0317575e-01
-2.7935170e-01
-2.3511629e-01
-1.5383764e-01
-3.9285748e-02
6.2261441e-02
8.8716764e-02
5.1550765e-02
1.7600243e-02
1.2398635e-02
2.7394223e-02
3.5760761e-02
1.1651414e-02
-2.9988955e-02
-6.6318946e-02
-8.9393902e-02
-9.0798634e-02
-6.9708258e-02
-4.0259785e-02
-2.0015612e-02
-8.1797441e-03
3.4821593e-03
2.0057176e-02
5.6558713e-02
1.0167785e-01
1.0463321e-01
5.4925806e-02
3.7960026e-03
-2.1830383e-02
-4.3257886e-02
-7.6700935e-02
-1.1353848e-01
-1.3281589e-01
-1.2574052e-01
-1.0637571e-01
-8.3491545e-02
-4.1429463e-02
2.8095361e-02
7.5752513e-02
2.3717657e-02
-1.0826141e-01
-2.1657447e-01
-2.6331322e-01
-2.6813758e-01
-2.1318650e-01
-1.1484359e-01
-6.8756225e-02
-5.4382782e-02
4.8867208e-02
2.2352911e-01
3.5660835e-01
4.0543933e-01
4.0429039e-01
4.0238979e-01
4.1354013e-01
4.0632664e-01
3.4642014e-01
2.5890693e-01
2.2072939e-01
2.2703171e-01
1.9137975e-01
1.0380914e-01
4.9821330e-03
-1.0846285e-01
-2.3783491e-01
-3.5536237e-01
-4.3550778e-01
-4.6453263e-01
-4.4361908e-01
-3.8424936e-01
-2.8625812e-01
-1.5192387e-01
-5.2430506e-03
7.1822684e-02
2.4772134e-02
-5.0591528e-02
-5.5350136e-02
9.4160220e-03
7.2425337e-02
7.8459587e-02
8.0014079e-02
1.2442020e-01
1.3815659e-01
7.4908309e-02
1.7674771e-02
1.9884710e-02
3.2068295e-02
-1.8963096e-02
-1.1121536e-01
-1.4022542e-01
-7.2964217e-02
3.9857106e-02
1.0697999e-01
9.5410408e-02
9.4165645e-02
1.2456606e-01
1.0169292e-01
3.4115851e-03
-9.5804364e-02
-1.2399126e-01
-7.4374519e-02
-6.0886745e-03
-5.2482729e-03
-6.7189541e-02
-9.9226154e-02
-6.3808588e-02
1.5441841e-02
9.5086419e-02
1.1532522e-01
7.7885646e-02
3.6888264e-02
2.2991117e-02
1.9948440e-02
-1.1881959e-02
-7.1500703e-02
-1.2193061e-01
-1.3334838e-01
-8.1753423e-02
1.8310498e-02
1.0365248e-01
1.1589690e-01
3.2911822e-02
-7.0299525e-02
-8.9017745e-02
-3.8482904e-02
3.9836621e-02
1.3563031e-01
1.8309516e-01
1.6239618e-01
1.1433656e-01
3.1047914e-02
-6.1253516e-02
-9.0823046e-02
-3.4670700e-02
5.8679175e-02
9.0759914e-02
2.8211147e-02
-5.2084706e-02
-9.0119375e-02
-9.3021885e-02
-8.5147063e-02
-8.6969556e-02
-1.1062180e-01
-1.3378907e-01
-9.8563001e-02
1.5749982e-02
1.4826072e-01
1.9779848e-01
1.1694904e-01
-2.0851945e-02
-9.1191578e-02
-5.1344347e-02
2.3440833e-02
3.3701185e-02
-2.2903639e-02
-7.4725285e-02
-4.6675205e-02
6.1939908e-02
1.2510335e-01
5.4714762e-02
-7.4269908e-02
-1.3895501e-01
-7.8577025e-02
5.0108308e-02
9.9901820e-02
1.3361693e-02
-1.1307155e-01
-1.6609936e-01
-1.1348275e-01
-7.7330806e-04
9.3621466e-02
1.0643074e-01
6.0825847e-02
6.3187697e-02
1.2055687e-01
1.2748354e-01
4.6615142e-02
-2.9435544e-02
-1.5299228e-02
4.6543812e-02
8.9414422e-02
8.2434996e-02
-6.6744511e-03
-1.4464063e-01
-2.3404586e-01
-2.1624823e-01
-1.0944691e-01
-2.6594507e-02
-2.5760431e-02
-1.3242756e-02
7.6914778e-02
2.0576077e-01
2.5752422e-01
1.8616752e-01
7.2948483e-02
-2.0219018e-02
-6.3453782e-02
-6.0386873e-02
-3.9936246e-02
-3.9672296e-02
-7.1860871e-02
-9.0006148e-02
-8.5737701e-02
-8.3611389e-02
-7.3567132e-02
-4.9037401e-02
-2.3533313e-02
-2.2632784e-04
1.6775191e-02
3.7490071e-02
8.3600107e-02
1.3828714e-01
1.4596589e-01
7.3273596e-02
-2.3304813e-02
-7.2236220e-02
-5.9471300e-02
-8.9453994e-03
3.7629565e-03
-4.5867613e-02
-6.9480207e-02
-3.8202039e-02
-1.5184088e-05
2.2530224e-02
2.6522477e-02
3.5960193e-02
7.0791195e-02
9.0613584e-02
5.5533740e-02
1.2458552e-02
3.7373145e-02
9.8288748e-02
9.9465768e-02
3.7807240e-02
-4.6519151e-02
-1.2096967e-01
-1.6600979e-01
-2.1125919e-01
-2.4273132e-01
-2.0618632e-01
-1.0342419e-01
-2.3303009e-02
-2.2811613e-02
-3.1777263e-02
1.0391389e-02
9.1216149e-02
1.4092003e-01
1.0885316e-01
4.9592254e-02
3.9191835e-02
9.6609178e-02
1.6328080e-01
1.5275404e-01
9.1119081e-02
5.4965510e-02
7.1293331e-03
-8.8914814e-02
-1.5933089e-01
-1.5707452e-01
-1.3177301e-01
-1.4245131e-01
-1.6561142e-01
-1.1904796e-01
-3.0009066e-03
1.2077660e-01
2.1557800e-01
2.8536631e-01
3.2954839e-01
2.9211833e-01
1.6869213e-01
1.7360552e-02
-1.0620813e-01
-1.6923554e-01
-1.8179737e-01
-1.6510596e-01
-1.2946337e-01
-9.9223112e-02
-9.4395297e-02
-8.2351375e-02
-2.4327813e-02
5.5456076e-02
1.0662533e-01
1.0101045e-01
4.0254999e-02
-3.7315828e-02
-9.2097851e-02
-1.1926426e-01
-1.3007202e-01
-1.1753692e-01
-7.9496598e-02
-1.2553824e-02
9.7777537e-02
2.0843440e-01
2.4317421e-01
1.7459636e-01
3.4707382e-02
-9.8758529e-02
-1.4674266e-01
-7.7301776e-02
4.1972077e-02
1.1173601e-01
9.3028063e-02
1.1671474e-02
-3.7850342e-02
-1.6235653e-02
3.5365390e-02
8.3926378e-02
8.0344375e-02
1.9964658e-02
-3.6403800e-02
-6.9824422e-02
-6.8566911e-02
-3.4387324e-02
-2.9763459e-02
-7.4629438e-02
-1.1550901e-01
-1.1684734e-01
-8.5688595e-02
-1.8733928e-02
7.9486947e-02
1.5331192e-01
1.5061672e-01
9.4547876e-02
5.8726953e-02
7.2435371e-02
9.5221961e-02
8.6850448e-02
2.9722233e-02
-5.9931842e-02
-1.1972906e-01
-1.2297372e-01
-1.0079024e-01
-7.5816885e-02
-5.0618289e-02
-2.6484493e-02
-8.4220134e-04
3.2838318e-02
7.1496261e-02
7.8311464e-02
3.6455453e-02
-1.2302725e-02
-3.8211154e-02
-5.5139388e-02
-8.7762455e-02
-1.3376648e-01
-1.6705321e-01
-1.5505311e-01
-9.9047270e-02
-3.0469751e-02
5.0759028e-02
1.3920276e-01
1.7584291e-01
1.5211882e-01
1.1503357e-01
8.0189703e-02
7.3598716e-02
1.1154667e-01
1.3864152e-01
1.1027402e-01
5.5558943e-02
-8.3763402e-03
-6.2513063e-02
-8.1318115e-02
-6.6743967e-02
-5.5334789e-02
-9.8663465e-02
-1.5362648e-01
-1.5532002e-01
-1.1288706e-01
-5.2939686e-02
-8.4194364e-03
-7.4039386e-03
-2.4620989e-02
-2.2732714e-02
6.3386130e-05
2.9751445e-02
5.9800739e-02
8.0936089e-02
6.9274708e-02
3.6044226e-02
1.5140901e-02
2.6169396e-02
6.0113444e-02
6.8358541e-02
3.6392337e-02
2.0313010e-04
-2.7310690e-02
-4.7148301e-02
-3.5742888e-02
1.3376744e-02
6.6189327e-02
8.3159124e-02
5.6397316e-02
1.1036663e-02
-2.6660789e-02
-3.7315284e-02
-2.5072217e-02
-1.6885211e-02
-1.1927013e-02
-1.1241121e-02
-3.0023348e-02
-5.1791275e-02
-6.0349358e-02
-5.8228162e-02
-2.6663684e-02
6.1418753e-02
1.4110122e-01
1.2462871e-01
6.2333392e-02
3.2197291e-02
3.6447882e-02
3.8245716e-02
1.1769675e-02
-1.2121250e-02
-2.0863140e-02
-5.4647203e-02
-1.1139241e-01
-1.5394483e-01
-1.7921250e-01
-1.8258065e-01
-1.4931469e-01
-9.1183339e-02
-4.9863773e-02
-3.7648491e-02
-2.6469725e-03
5.9324158e-02
8.6570266e-02
6.0173054e-02
2.2458113e-02
1.7965175e-02
6.1844139e-02
1.3261074e-01
1.7472206e-01
1.4289745e-01
6.3582516e-02
2.7785605e-02
3.6810994e-02
5.8614407e-03
-6.4395962e-02
-1.1192380e-01
-1.0316652e-01
-7.0331916e-02
-4.7583268e-02
1.6237120e-02
1.5481968e-01
2.6129702e-01
2.2682210e-01
1.0064356e-01
-2.8701098e-02
-9.9362395e-02
-9.5956178e-02
-8.3978111e-02
-1.0186976e-01
-1.1567140e-01
-8.5115365e-02
-2.6809334e-02
-7.0717061e-04
-3.0789072e-02
-8.3303766e-02
-1.0743533e-01
-8.9016686e-02
-7.2806374e-02
-9.4710497e-02
-1.3162997e-01
-1.3216551e-01
-6.0317938e-02
5.7914846e-02
1.0668546e-01
4.7924926e-02
-9.2725003e-04
1.6232946e-02
7.3534653e-02
1.5712927e-01
2.3338452e-01
2.3664212e-01
1.6383549e-01
1.0607542e-01
1.2402926e-01
1.6580829e-01
1.2899383e-01
9.4265562e-03
-1.1785193e-01
-2.0097435e-01
-2.2153433e-01
-1.9386713e-01
-1.4844239e-01
-1.1247850e-01
-9.8057822e-02
-8.4193037e-02
-3.9002115e-02
4.6451084e-02
1.4472724e-01
1.9001267e-01
1.3585324e-01
1.8454255e-02
-8.6689229e-02
-1.4562368e-01
-1.6707360e-01
-1.5549512e-01
-1.1317569e-01
-5.4864490e-02
4.3682007e-02
1.6744802e-01
2.2851989e-01
2.0083160e-01
1.0845144e-01
2.5769281e-03
-4.2248778e-02
7.5036631e-03
9.3243254e-02
1.0394454e-01
2.7551475e-02
-6.4517783e-02
-1.1752365e-01
-1.0982689e-01
-5.8284251e-02
-1.6268039e-02
-4.5728077e-02
-1.3214880e-01
-1.9140600e-01
-1.6563288e-01
-5.8380188e-02
4.9168944e-02
5.4080554e-02
-3.3715663e-02
-1.0231356e-01
-9.2200341e-02
-7.0127253e-02
-9.7839663e-02
-1.4227465e-01
-1.2510568e-01
-6.2511186e-03
1.5588238e-01
2.8010813e-01
3.4720002e-01
3.8011471e-01
3.9433489e-01
4.0208311e-01
4.0137289e-01
3.6571488e-01
2.8115494e-01
1.5198817e-01
3.1918712e-03
-1.3394910e-01
-2.4089030e-01
-2.9591871e-01
-3.0812337e-01
-3.0320502e-01
-2.7219900e-01
-2.1025752e-01
-1.4116131e-01
-8.8038696e-02
-5.6036548e-02
-3.7637290e-02
-2.3496758e-02
-1.1631282e-02
-5.7357096e-03
-3.3427459e-03
2.5186356e-03
1.3466934e-02
2.9295302e-02
4.9219040e-02
5.9199249e-02
4.4897740e-02
2.1152789e-02
1.1078177e-02
1.7348235e-02
1.3790350e-02
-2.3867966e-02
-6.6805011e-02
-6.8234724e-02
-3.3474516e-02
-6.3222334e-03
-7.8070006e-03
-1.7728783e-02
4.7290158e-03
4.9880246e-02
6.1371061e-02
2.7610986e-02
-1.4526681e-02
-1.8482553e-02
1.2674495e-03
-2.4684645e-02
-9.7558424e-02
-1.4676774e-01
-1.1734479e-01
-4.8560919e-02
-4.6565583e-02
-1.0012066e-01
-8.8655108e-02
4.1165834e-02
2.2257530e-01
3.1029949e-01
2.6318920e-01
1.7423528e-01
8.3872138e-02
5.9429732e-04
-5.7370029e-02
-8.4509527e-02
-6.5430720e-02
-1.8933815e-02
-1.2007781e-02
-5.9984706e-02
-9.8830081e-02
-9.6380318e-02
-6.8425799e-02
-2.5643792e-02
1.3662932e-02
2.8860833e-02
1.9578924e-02
-2.9067608e-03
-2.1993772e-02
-1.7341867e-02
1.3414051e-02
5.0488909e-02
6.0310445e-02
2.9800987e-02
3.3255038e-03
1.8632545e-02
6.2673776e-02
8.9271642e-02
5.5126890e-02
-1.9798148e-02
-7.8496530e-02
-9.6232866e-02
-7.5951802e-02
-3.8959229e-02
-5.0757740e-03
4.1883124e-03
-2.7115312e-02
-5.7875614e-02
-6.5503311e-02
-5.7875349e-02
-3.4769090e-02
-1.4410371e-02
8.7989904e-03
5.0246602e-02
1.1114174e-01
1.8118781e-01
2.0814953e-01
1.7459056e-01
1.1406591e-01
2.9040132e-02
-4.8219152e-02
-7.4069164e-02
-7.9129634e-02
-8.3095442e-02
-7.2011163e-02
-4.2501317e-02
-3.3780794e-02
-7.7162066e-02
-1.1367202e-01
-1.1440158e-01
-9.4408965e-02
-4.7437282e-02
5.7778371e-03
5.1524672e-02
1.0375032e-01
1.3828455e-01
1.1588782e-01
6.2509336e-02
3.3459584e-02
2.4417867e-02
-5.5352118e-03
-5.8133862e-02
-9.4078871e-02
-7.3815757e-02
-2.0956534e-02
-3.8692057e-03
-4.3775203e-02
-9.3170524e-02
-9.5907315e-02
-5.9212078e-02
-2.7238370e-02
-3.5537443e-03
4.6709502e-02
1.1687549e-01
1.6795008e-01
1.8994136e-01
1.6807797e-01
8.6656161e-02
-1.1875549e-02
-6.1944249e-02
-5.9545226e-02
-5.6199872e-02
-7.3565388e-02
-7.7966047e-02
-4.7312466e-02
1.1880940e-03
3.3844662e-02
3.8269889e-02
5.3203351e-02
9.9775133e-02
1.2939264e-01
1.0030181e-01
4.2542239e-02
-9.4584308e-03
-4.8158653e-02
-6.7446690e-02
-9.1905944e-02
-1.2943323e-01
-1.4609640e-01
-1.3265505e-01
-1.0261072e-01
-6.3244322e-02
-1.8009207e-02
1.3664319e-02
-7.2064684e-04
-5.0014777e-02
-8.8724143e-02
-9.3762515e-02
-6.8643731e-02
-2.7796556e-02
2.0202831e-02
8.2111675e-02
1.4937138e-01
1.7376807e-01
1.2879684e-01
6.8537550e-02
4.9203382e-02
4.5798224e-02
9.9252920e-03
-4.6494789e-02
-5.7379259e-02
6.4276678e-03
7.1753622e-02
5.9035513e-02
3.0216549e-04
-3.8448227e-02
-4.7294971e-02
-4.3819662e-02
-3.8063522e-02
-1.9212568e-02
8.5946494e-03
1.0912714e-02
-3.4126980e-03
6.7300108e-03
3.0707751e-02
2.9853500e-02
1.0751424e-02
1.8369966e-02
4.5236409e-02
5.2414662e-02
3.8937440e-02
1.0881190e-02
-9.2504602e-03
-8.0347666e-03
-1.4534785e-02
-4.2707136e-02
-6.0157253e-02
-2.4406096e-02
4.4954340e-02
7.9751956e-02
7.6129979e-02
6.1591539e-02
2.9581282e-02
-1.1203829e-02
-6.5489948e-02
-1.3596689e-01
-1.8800461e-01
-2.0249376e-01
-1.8420051e-01
-1.4259195e-01
-8.1310573e-02
-2.5246185e-02
8.1227217e-03
6.5509805e-02
1.2203015e-01
1.0683826e-01
7.4338140e-02
7.3785942e-02
8.3060675e-02
1.0277686e-01
1.2759181e-01
1.1050134e-01
4.3465846e-02
-5.5187595e-03
-1.2406712e-02
-2.2783869e-02
-5.8375400e-02
-9.2214125e-02
-7.9809665e-02
-1.4402906e-02
5.2023755e-02
7.7476315e-02
7.6530536e-02
6.6515741e-02
4.0878385e-02
1.5978170e-03
-3.6612690e-02
-5.7845739e-02
-6.5247665e-02
-6.5359070e-02
-4.6284886e-02
4.1107455e-04
5.6064316e-02
6.7406433e-02
1.4699062e-02
-5.0519015e-02
-7.8139743e-02
-7.7058425e-02
-8.8057022e-02
-1.0690431e-01
-7.9253501e-02
2.1704451e-03
7.6831979e-02
1.0540421e-01
1.1265203e-01
1.4561790e-01
1.8624502e-01
1.5209472e-01
3.0988359e-02
-9.7604467e-02
-1.6691167e-01
-1.6623811e-01
-1.3380020e-01
-9.7518553e-02
-4.4832436e-02
2.5560455e-02
7.3167705e-02
8.3955116e-02
9.5039324e-02
7.5395544e-02
-9.0765916e-03
-8.9442867e-02
-1.1441921e-01
-9.1342974e-02
-3.8680061e-02
2.3458721e-02
6.3128354e-02
4.8852987e-02
-1.0884674e-02
-7.9384486e-02
-1.1626778e-01
-1.1179620e-01
-9.9727709e-02
-1.1156508e-01
-1.2606043e-01
-7.3821988e-02
5.0163121e-02
1.8651315e-01
3.0918673e-01
3.5309816e-01
2.8288186e-01
1.8110140e-01
8.5980065e-02
-1.4063141e-02
-8.9021726e-02
-1.1365036e-01
-1.0513853e-01
-8.0789479e-02
-4.4023238e-02
-1.5700600e-02
-1.4407498e-02
-2.9900352e-02
-4.4194578e-02
-4.2927256e-02
-2.3377441e-02
-3.7554727e-03
3.9722891e-03
9.1418029e-03
2.0981669e-02
3.8156344e-02
4.7276022e-02
4.8452059e-02
5.6713398e-02
6.7782695e-02
5.9096634e-02
9.6857279e-03
-5.5240711e-02
-7.9693405e-02
-4.5642809e-02
2.1034313e-02
5.1844985e-02
6.8228831e-03
-5.9289426e-02
-9.3307661e-02
-8.8199804e-02
-5.7177698e-02
-4.9888511e-02
-9.3724171e-02
-1.4581555e-01
-1.6159390e-01
-1.3325720e-01
-7.8463671e-02
-1.5875901e-02
4.6250697e-02
9.7569588e-02
1.2353154e-01
1.1216396e-01
8.9430406e-02
1.0381770e-01
1.2660502e-01
8.0161649e-02
-2.7759491e-02
-1.1316838e-01
-1.0753022e-01
-3.2131719e-02
2.3273718e-02
7.0568599e-03
-3.6524910e-02
-8.6582377e-03
7.3541863e-02
9.9725356e-02
6.4088852e-02
4.7480346e-02
1.1684346e-01
2.1970405e-01
2.1862235e-01
9.2349974e-02
-5.0556345e-02
-1.1154854e-01
-1.0803647e-01
-1.0772942e-01
-1.2400378e-01
-1.3414605e-01
-1.1019874e-01
-6.1194584e-02
-2.3920971e-02
-1.3121360e-02
-1.3471433e-02
9.1047986e-03
5.5351288e-02
9.1936077e-02
9.8103406e-02
8.4468847e-02
8.7010010e-02
9.5035040e-02
5.7937452e-02
-1.6506224e-02
-6.1885030e-02
-5.8016460e-02
-6.5752017e-02
-1.1618398e-01
-1.6346292e-01
-1.6379662e-01
-1.0661154e-01
-3.1582587e-02
-4.7285857e-03
-2.3414950e-02
-3.3927494e-02
7.4167029e-03
8.2716101e-02
1.1483471e-01
8.3239036e-02
2.4465464e-02
-4.1311330e-02
-8.2944911e-02
-6.3738273e-02
-3.2232539e-03
5.3874030e-02
6.5621548e-02
2.0232243e-02
-7.7710677e-03
3.7393454e-02
1.0799955e-01
1.1782798e-01
6.2894457e-02
4.3868546e-02
8.7535957e-02
1.0734578e-01
4.9614121e-02
-4.3803150e-02
-9.1531863e-02
-7.8144591e-02
-4.9545404e-02
-4.1745065e-02
-5.6535494e-02
-5.3828490e-02
-1.4792973e-02
1.9207129e-02
4.9969919e-03
-3.7666654e-02
-4.0721680e-02
3.4846416e-03
4.0824088e-02
3.9733330e-02
1.0904203e-02
-8.7009143e-03
-5.6693127e-04
1.6592395e-02
7.2342798e-03
-4.0498456e-02
-8.7452094e-02
-9.0999557e-02
-8.0464106e-02
-9.5316089e-02
-8.3465263e-02
-7.7301453e-03
5.5525215e-02
4.3037900e-02
2.6888835e-02
6.3127012e-02
1.1619082e-01
1.5096974e-01
1.0305193e-01
-1.4988860e-02
-9.1207704e-02
-7.9400897e-02
-1.4635709e-04
7.0240496e-02
7.6586257e-02
7.0418364e-02
8.3883141e-02
6.3811984e-02
-4.6406049e-03
-4.5070446e-02
-3.5836202e-02
-3.9879419e-02
-8.5101778e-02
-1.4321433e-01
-1.6084673e-01
-1.1051715e-01
-2.6866441e-02
1.0427165e-02
-2.5555942e-02
-5.7406115e-02
-3.0698327e-02
2.1107449e-02
4.5183734e-02
4.4936204e-02
7.8689338e-02
1.5414820e-01
2.0484933e-01
1.7313397e-01
8.6629170e-02
3.6398944e-02
3.9283684e-02
4.3465482e-02
4.9727055e-03
-7.2115270e-02
-1.1005755e-01
-9.0395441e-02
-7.5274927e-02
-9.3847030e-02
-1.2514015e-01
-1.2812002e-01
-1.0354472e-01
-8.1873340e-02
-6.2680191e-02
-2.4564352e-02
5.7440414e-02
1.2242396e-01
8.0689073e-02
-8.3336689e-03
-5.7238089e-02
-4.8873526e-02
1.2952464e-02
8.1195352e-02
1.0337705e-01
8.0326485e-02
4.0422570e-02
2.0846770e-02
3.7475105e-02
5.8281860e-02
6.7328388e-02
5.9518587e-02
2.4246347e-02
-1.2410671e-02
-3.3140295e-02
-3.3659412e-02
-3.9683627e-03
2.2062001e-02
4.0086463e-03
-2.7388754e-02
-3.4730450e-02
-3.5051082e-02
-5.8509725e-02
-9.6734938e-02
-9.2192321e-02
-2.9882521e-02
2.4192817e-02
3.8886364e-02
6.3038755e-02
9.8346523e-02
8.4866827e-02
3.0327926e-02
2.9020337e-03
2.0030199e-02
1.7946818e-02
-4.6364464e-02
-1.1837536e-01
-1.2839320e-01
-8.8310512e-02
-7.2110751e-02
-9.9367454e-02
-1.0534799e-01
-6.0350351e-02
-3.5205226e-03
2.2044874e-02
3.5797822e-02
1.0054957e-01
1.6401750e-01
1.3716729e-01
6.6408992e-02
6.8355889e-03
-2.8694689e-02
-2.1469966e-02
2.4467227e-02
6.5408566e-02
5.2338103e-02
-8.8410411e-03
-8.2675823e-02
-1.2992297e-01
-1.0360946e-01
1.1330740e-02
1.4328175e-01
1.7962315e-01
1.2084161e-01
6.0065566e-02
2.8668644e-02
8.3845463e-03
-3.0283020e-04
-1.2470997e-02
-4.1609418e-02
-6.1828570e-02
-6.7247043e-02
-7.0046807e-02
-6.7195800e-02
-6.4631864e-02
-6.7510691e-02
-6.1305864e-02
-4.3519591e-02
-3.0234173e-02
-2.7354375e-02
-3.1662050e-02
-2.8200985e-02
-1.2356459e-02
-9.7079732e-04
1.9280160e-02
7.7925838e-02
1.6136237e-01
2.1496465e-01
1.8494167e-01
8.5645635e-02
-4.8612199e-03
-5.0181781e-02
-5.9949515e-02
-5.3271318e-02
-4.8436196e-02
-3.7094713e-02
-1.7988012e-02
-1.1948660e-02
-3.1123482e-02
-5.0832103e-02
-2.6591852e-02
3.2877669e-02
6.0001590e-02
2.9930047e-02
-1.0784719e-02
-2.6154864e-02
-1.7997143e-02
-4.1421602e-04
1.5510650e-02
3.3476339e-02
4.7192053e-02
1.9839741e-02
-4.5183723e-02
-7.3887680e-02
-2.1557157e-02
7.5004768e-02
1.1279468e-01
3.9659922e-02
-5.1098503e-02
-8.0907020e-02
-5.9953026e-02
-2.2675604e-02
-1.8213483e-02
-6.0695553e-02
-1.1627498e-01
-1.4958634e-01
-1.4074016e-01
-9.5977713e-02
-3.9465417e-02
8.6968810e-03
3.7324497e-02
3.0388744e-02
-8.5806067e-03
-2.3061884e-02
2.3911977e-02
8.8356732e-02
9.3195187e-02
3.0859846e-02
-1.7171290e-02
2.2411204e-02
1.1465343e-01
1.4132366e-01
8.5018169e-02
5.7600455e-02
1.0195804e-01
1.3854859e-01
9.5900959e-02
-1.5553791e-03
-6.0862806e-02
-5.5241585e-02
-4.3434650e-02
-6.0088238e-02
-8.8941412e-02
-7.6434494e-02
-1.5775296e-02
2.0583214e-02
5.2795115e-04
-2.8837141e-02
-1.9499718e-02
2.2433010e-02
3.9455370e-02
4.3989289e-03
-3.8026354e-02
-6.3059595e-02
-7.6138346e-02
-6.8606352e-02
-4.4650813e-02
-2.0310970e-02
-2.0331109e-02
-5.2271663e-02
-6.3940345e-02
1.1686182e-02
1.3587643e-01
2.0416558e-01
1.6792684e-01
4.5372044e-02
-6.8285086e-02
-9.2775903e-02
-1.3148652e-02
9.4948865e-02
9.6512680e-02
-2.1087731e-03
-8.1284727e-02
-8.3535000e-02
-4.9735454e-02
-3.0487313e-02
-1.7628194e-02
4.5367340e-03
2.7247204e-02
7.6267644e-03
-6.8266984e-02
-1.2133414e-01
-1.0135479e-01
-4.7483712e-02
-2.4415873e-02
-4.1668247e-02
-2.7193842e-02
3.5211424e-02
9.0262613e-02
9.6511211e-02
5.7219723e-02
5.7592456e-02
1.2471714e-01
1.7458978e-01
1.4213884e-01
5.3533522e-02
2.1861470e-03
1.2100207e-02
2.6328507e-02
1.1599891e-03
-5.4973064e-02
-9.1246207e-02
-8.6928902e-02
-6.5963307e-02
-5.3926606e-02
-5.0356783e-02
-3.0520161e-02
8.3687990e-03
3.4708679e-02
3.7392991e-02
3.4307615e-02
2.9057676e-02
1.8574887e-02
2.8023537e-03
-2.7295338e-02
-7.1475937e-02
-1.2004053e-01
-1.7254316e-01
-2.0959015e-01
-1.8708311e-01
-8.7664892e-02
6.3579906e-02
1.8697042e-01
2.0654527e-01
1.5622024e-01
1.2157970e-01
1.4273538e-01
1.5002123e-01
5.5044923e-02
-7.6178097e-02
-1.4641281e-01
-1.5437524e-01
-1.2895271e-01
-9.3937287e-02
-5.5716639e-02
-1.3144334e-02
2.5256965e-02
2.9406590e-02
-5.1255647e-03
-1.6453518e-02
1.7081926e-02
4.8195165e-02
2.4842532e-02
-3.8206635e-02
-4.2835110e-02
2.9047171e-02
1.0357936e-01
1.1343769e-01
5.3839277e-02
3.3466069e-02
8.4011481e-02
9.8478559e-02
2.5679514e-02
-6.7140957e-02
-8.8906871e-02
-3.8414697e-02
1.9194296e-02
2.5915413e-02
-1.4340652e-02
-3.4024938e-02
-6.9044463e-03
3.2299400e-02
3.8684903e-02
3.3197881e-03
-2.5192569e-02
-2.0181340e-02
-9.4120422e-03
-1.3064810e-02
-1.0161114e-02
1.4153287e-02
4.5402176e-02
6.8274960e-02
5.6380082e-02
-1.3453154e-02
-1.1660975e-01
-2.1262557e-01
-2.8815766e-01
-3.2010550e-01
-2.7364152e-01
-1.6670554e-01
-6.5214167e-02
-8.5586957e-03
2.3329426e-02
7.9803332e-02
1.9006391e-01
3.1527701e-01
3.9884698e-01
4.1406080e-01
3.4234996e-01
1.9683699e-01
3.0360225e-02
-9.6079636e-02
-1.5410667e-01
-1.3758278e-01
-7.9742564e-02
-5.9767805e-02
-9.7649005e-02
-1.3095174e-01
-1.2354873e-01
-8.5972432e-02
-2.3425490e-02
4.0998268e-02
7.6550305e-02
6.7846784e-02
2.4548585e-02
-9.1522032e-03
-2.1497914e-03
3.7699954e-02
7.7090173e-02
8.1828172e-02
4.0804996e-02
-1.2382184e-02
-2.5245396e-02
8.9994412e-03
4.5911030e-02
3.7024072e-02
-1.8558566e-02
-7.4309319e-02
-9.6859947e-02
-8.9893919e-02
-7.6195934e-02
-7.1914834e-02
-6.9220533e-02
-5.5085368e-02
-2.5974391e-02
-6.3460102e-03
-2.2100861e-02
-4.2123168e-02
-2.4530858e-02
3.0841554e-02
1.0460700e-01
1.6775269e-01
1.8132052e-01
1.2518987e-01
4.2016610e-02
-1.6435435e-02
-4.4701117e-02
-5.3147781e-02
-5.0884865e-02
-4.4706542e-02
-4.0294065e-02
-2.2747336e-02
1.2078512e-02
1.5068911e-02
-1.8385534e-02
-4.2823166e-02
-5.9154784e-02
-5.8764390e-02
-4.0328664e-02
-2.6214327e-02
4.1843655e-03
6.1842622e-02
1.0257239e-01
8.4633692e-02
3.5968862e-02
1.9031829e-02
3.0757130e-02
1.2075907e-02
-4.7808832e-02
-9.0999525e-02
-6.0856990e-02
3.2886145e-02
1.0206703e-01
8.1150743e-02
2.7144003e-02
1.2655054e-02
2.7411664e-02
2.2500823e-02
-1.4902893e-02
-3.3493555e-02
-2.6990906e-02
-4.7085814e-02
-9.2949056e-02
-1.2031242e-01
-1.0364001e-01
-5.7485777e-02
-1.0632361e-02
1.7629581e-02
2.0773259e-02
2.5403483e-02
7.6514992e-02
1.4426606e-01
1.5263960e-01
1.0791035e-01
6.8351733e-02
6.9061347e-02
7.8399519e-02
4.7536951e-02
-1.2050911e-02
-7.2367993e-02
-1.1902143e-01
-1.5338151e-01
-1.9538488e-01
-2.3829179e-01
-2.3529096e-01
-1.7583795e-01
-9.1505974e-02
-1.4229320e-03
8.8459978e-02
1.7315147e-01
2.2916220e-01
2.0574927e-01
1.0773475e-01
6.5806584e-03
-5.3582013e-02
-5.4173772e-02
-2.4684022e-02
-9.8142939e-03
4.2418926e-03
3.1340820e-02
4.4028073e-02
2.4567225e-02
8.2432579e-03
2.2168231e-02
2.9854103e-02
-1.3465482e-02
-7.0411166e-02
-5.6738851e-02
8.1848165e-03
3.2899064e-02
7.6176032e-05
-3.8825318e-02
-1.9633076e-02
4.6747257e-02
6.7672950e-02
1.5593662e-02
-4.8718432e-02
-7.2959831e-02
-4.9434831e-02
-1.2104581e-02
-1.0944666e-02
-5.0552448e-02
-8.7868906e-02
-8.8531884e-02
-3.8683420e-02
4.5858190e-02
1.3680017e-01
1.7618232e-01
1.1318824e-01
1.8010011e-02
-3.2187410e-02
-4.8416002e-02
-5.9747399e-02
-6.7281445e-02
-5.2459377e-02
-1.9179823e-03
8.1693253e-02
1.5548198e-01
1.5956246e-01
8.8331609e-02
-1.1501169e-02
-9.5391220e-02
-1.3566404e-01
-1.1930050e-01
-8.1805913e-02
-7.7802032e-02
-1.0313212e-01
-1.1149929e-01
-9.0408646e-02
-6.4288470e-02
-1.2464689e-02
7.9249952e-02
1.6715755e-01
2.0499690e-01
1.6819053e-01
1.0977456e-01
9.1755035e-02
7.9894771e-02
3.2026765e-02
-1.7182434e-02
-2.8037962e-03
4.6188557e-02
3.9081219e-02
-2.4727805e-02
-6.9921518e-02
-4.2424556e-02
4.0570985e-02
8.8913031e-02
4.6413191e-02
-2.5896549e-02
-7.4323676e-02
-1.1391537e-01
-1.3867147e-01
-1.1991826e-01
-7.6555421e-02
-5.0011527e-02
-2.4041887e-02
2.0058260e-02
4.9825905e-02
4.6979714e-02
1.8494789e-02
-5.1790108e-03
1.8597341e-02
5.8238077e-02
5.2117892e-02
1.6241433e-02
-4.3342155e-04
2.0214381e-02
5.6709947e-02
6.5969736e-02
5.0426987e-02
4.7853937e-02
4.2202343e-02
-6.9811583e-03
-8.6905293e-02
-1.4376102e-01
-1.4252345e-01
-1.0843360e-01
-8.8424476e-02
-8.4567724e-02
-6.7242257e-02
-2.9523518e-02
-7.5761017e-03
-2.0046567e-02
-2.2239058e-02
3.0484635e-02
1.0164562e-01
9.9631061e-02
2.6144508e-02
-2.8611997e-02
-1.5932086e-02
1.9828120e-02
2.2861345e-02
1.6153014e-02
2.2764502e-02
1.1380110e-02
-2.2059885e-02
-1.8649156e-02
3.7364425e-02
8.5837010e-02
8.1226984e-02
5.2564987e-02
6.3712896e-02
1.1095569e-01
1.3654771e-01
1.0224747e-01
2.0618602e-02
-4.3828093e-02
-6.9589563e-02
-9.2683568e-02
-1.1716575e-01
-1.1080504e-01
-8.1778247e-02
-7.7261090e-02
-9.3472586e-02
-8.3458143e-02
-3.3701891e-02
1.3303541e-02
1.7849554e-02
-1.7036282e-03
4.5611970e-03
4.5575754e-02
7.0645575e-02
5.1806028e-02
2.4434123e-02
3.3864366e-02
8.2186080e-02
1.1490880e-01
1.1111940e-01
1.0511724e-01
8.6055741e-02
2.3393617e-02
-5.5658829e-02
-1.0210870e-01
-1.0296103e-01
-7.4360741e-02
-4.9244506e-02
-5.6192215e-02
-8.2132302e-02
-1.0331002e-01
-1.0973986e-01
-8.2695632e-02
-5.8477011e-02
-8.6345308e-02
-1.2022707e-01
-1.2009336e-01
-9.2396007e-02
-2.1538389e-02
1.1386384e-01
2.3441482e-01
2.4721734e-01
2.0833418e-01
1.6970413e-01
1.0668042e-01
3.3494900e-02
4.7441348e-03
2.3784450e-02
2.4379979e-02
-3.4375826e-02
-9.8271682e-02
-1.0145025e-01
-5.6431860e-02
-1.9298564e-02
-1.5456321e-02
-5.5316373e-03
3.1657852e-02
4.4301074e-02
-1.1956959e-03
-5.8900639e-02
-6.7275573e-02
-3.5410712e-02
-2.8604977e-02
-5.7205245e-02
-7.1300942e-02
-5.9892411e-02
-3.3677558e-02
1.9306103e-02
9.0635283e-02
1.4093350e-01
1.2636515e-01
4.4834388e-02
-4.8482082e-02
-9.3265247e-02
-6.8409411e-02
-2.0694061e-02
-8.5149717e-03
-1.2620438e-02
2.7266770e-02
1.1363706e-01
1.6343143e-01
1.0451895e-01
-1.0159238e-02
-6.8705115e-02
-3.7468174e-02
2.7103122e-02
3.5924001e-02
-2.4805327e-02
-7.8728659e-02
-8.4455051e-02
-7.2398813e-02
-9.7802661e-02
-1.5280032e-01
-1.6707257e-01
-1.1979631e-01
-3.8485008e-02
4.5556777e-02
1.3985244e-01
2.2026923e-01
2.1789044e-01
1.7215822e-01
1.1582094e-01
2.4471208e-02
-6.5740264e-02
-1.1478159e-01
-1.2382393e-01
-1.0940766e-01
-8.3487130e-02
-5.6022066e-02
-3.7297996e-02
-1.5726434e-02
2.2821091e-02
7.9546845e-02
1.3497621e-01
1.4788602e-01
1.0334255e-01
2.3897070e-02
-4.1274992e-02
-5.3142882e-02
-1.6712962e-02
1.5781487e-02
2.5531813e-03
-2.2997257e-02
-3.1222636e-02
-3.9701454e-02
-4.3552092e-02
-2.1372433e-02
1.3453901e-02
3.0245903e-02
2.3728553e-02
-1.4582483e-03
-3.8322395e-02
-4.2873682e-02
2.3620031e-04
3.8063117e-02
3.1036875e-02
8.8453924e-04
1.1067347e-02
4.0385501e-02
-6.3503033e-03
-1.0928040e-01
-1.5779480e-01
-9.8059884e-02
2.1730637e-02
8.0615517e-02
4.0336333e-02
4.5418190e-04
2.5106388e-02
6.8174924e-02
3.9789071e-02
-5.1189981e-02
-1.0175327e-01
-6.4981267e-02
1.2543176e-02
3.3849946e-02
1.3019664e-03
1.7895638e-02
9.2688111e-02
1.5089069e-01
1.3619869e-01
6.3235964e-02
2.3966802e-02
2.9263303e-02
6.9992363e-04
-7.5404987e-02
-1.5198429e-01
-1.6245009e-01
-6.7344891e-02
6.5416682e-02
9.9725856e-02
2.0979383e-02
-3.9886672e-02
-4.8323321e-02
-6.9520796e-02
-1.0429838e-01
-1.2099873e-01
-8.5834051e-02
6.9109972e-03
9.2525438e-02
1.0297995e-01
6.9631255e-02
7.4702821e-02
9.0398095e-02
5.6980098e-02
3.4386094e-02
7.0035592e-02
1.1705827e-01
1.3083151e-01
6.9506618e-02
-6.2227733e-02
-1.6744135e-01
-1.7298606e-01
-1.2352215e-01
-1.2354376e-01
-1.7877475e-01
-1.9436618e-01
-1.1146537e-01
2.3170950e-02
7.6985100e-02
2.0630170e-02
-2.2069138e-02
6.9260209e-03
8.2759442e-02
1.6197434e-01
1.8690426e-01
1.5957540e-01
1.2980880e-01
1.2054410e-01
1.1148184e-01
8.0476550e-02
1.8625903e-02
-5.5621150e-02
-1.1425853e-01
-1.5047497e-01
-1.3675860e-01
-6.6918373e-02
-7.9886246e-03
-1.2867770e-02
-6.1445728e-02
-1.0275785e-01
-1.0789841e-01
-8.0868800e-02
-5.0472814e-02
-4.3496115e-02
-1.6375119e-02
8.7944411e-02
2.0524730e-01
2.1179802e-01
1.1875698e-01
5.9049781e-02
6.7748515e-02
6.3594689e-02
9.7277612e-03
-4.2575233e-02
-4.9610989e-02
-1.5956434e-02
4.3099422e-02
5.6825584e-02
-5.3009690e-03
-5.0160571e-02
-6.0766567e-02
-8.6788963e-02
-9.9453805e-02
-6.9673640e-02
-8.2794615e-03
4.5762857e-02
5.5363276e-02
5.2824740e-02
5.4917698e-02
5.2567588e-02
6.2540870e-02
5.1708708e-02
-6.1407958e-03
-7.0461864e-02
-8.6963964e-02
-4.1327854e-02
-1.6075883e-02
-6.0759163e-02
-9.8286187e-02
-7.8382893e-02
-6.4051389e-02
-1.1930023e-01
-1.8573014e-01
-1.8030603e-01
-8.4955644e-02
2.7083194e-02
3.9560594e-02
-1.6807652e-02
-2.2577357e-02
6.3271979e-02
1.8266559e-01
2.5054894e-01
2.9419169e-01
3.3820533e-01
2.9889062e-01
1.6447085e-01
9.1569188e-03
-9.9335101e-02
-1.4495849e-01
-1.5948359e-01
-1.6280540e-01
-1.5048808e-01
-1.2151575e-01
-9.4210216e-02
-7.9585815e-02
-5.8324932e-02
-7.6920620e-03
4.8312437e-02
5.7192328e-02
1.7030630e-02
-1.3851223e-02
-1.4017116e-02
-6.9073819e-03
7.6128352e-03
3.6954805e-02
5.8429079e-02
4.6291251e-02
2.4610301e-02
2.4131585e-02
4.9314491e-02
7.5310469e-02
7.0763389e-02
3.9177140e-02
-7.6541381e-03
-3.3115328e-02
-2.1746950e-02
-1.1706235e-02
-4.3707475e-03
4.1745706e-02
9.3700302e-02
7.2556483e-02
-3.5208012e-04
-5.7698619e-02
-6.2116873e-02
-4.6277739e-02
-7.0965855e-02
-1.1472104e-01
-1.4746097e-01
-1.7435652e-01
-1.9459540e-01
-1.9443124e-01
-1.4742511e-01
-4.2751394e-02
6.0396688e-02
7.7609689e-02
2.9175833e-02
9.6544911e-03
7.9106731e-02
1.7637416e-01
1.8340625e-01
1.1994062e-01
8.0405570e-02
6.8027991e-02
3.6330811e-02
2.0978950e-02
5.8876445e-02
6.3149292e-02
-2.5524170e-02
-1.2622551e-01
-1.4385715e-01
-1.0640105e-01
-9.9280326e-02
-1.0492548e-01
-5.5503554e-02
3.0875653e-02
9.8271954e-02
1.2768957e-01
1.5784069e-01
1.8375597e-01
1.4165446e-01
8.1111432e-02
4.8971890e-02
-4.0950824e-03
-8.6642650e-02
-1.6028159e-01
-2.0036377e-01
-1.9932333e-01
-1.5209742e-01
-9.2422510e-02
-5.6786397e-02
-2.3090509e-02
7.2621169e-03
-4.1035089e-03
-5.0574634e-02
-8.7765982e-02
-6.8481628e-02
2.7386222e-02
1.4669997e-01
2.3489761e-01
3.1096897e-01
3.6013269e-01
3.4258513e-01
2.5634591e-01
1.1542009e-01
-4.1625003e-02
-1.6738843e-01
-2.2318947e-01
-2.2193488e-01
-1.8363834e-01
-1.3933685e-01
-1.2264298e-01
-6.7059682e-02
3.5761410e-02
7.1711660e-02
5.7127979e-03
-7.3451061e-02
-8.1593523e-02
-2.4704962e-02
3.8855172e-02
5.8190513e-02
4.7834655e-02
7.6032686e-02
1.2898518e-01
1.3374778e-01
6.3389536e-02
-5.6575903e-02
-1.4436867e-01
-1.4925693e-01
-9.9506470e-02
-4.1697200e-02
1.4742391e-02
1.0413931e-01
1.8501632e-01
1.6950642e-01
7.6326672e-02
-1.3082214e-02
-4.9250474e-02
-4.2811898e-02
-3.5331394e-02
-5.5427613e-02
-8.8547624e-02
-8.9162281e-02
-6.5490588e-02
-5.8362022e-02
-6.2774643e-02
-5.1586092e-02
-2.1980583e-02
1.2217646e-02
4.2900834e-02
6.2742765e-02
6.9631214e-02
7.9097141e-02
8.4422464e-02
6.2308632e-02
3.2373721e-02
2.6553406e-02
1.8062710e-02
-3.9003607e-02
-1.1549414e-01
-1.5103165e-01
-1.2732021e-01
-7.4479040e-02
-5.6251146e-02
-8.0998961e-02
-9.7850606e-02
-9.6793082e-02
-7.8178561e-02
-5.4713063e-02
-5.3053036e-02
-3.2464770e-02
4.6173165e-02
1.2735166e-01
1.5485180e-01
1.3237552e-01
7.5482931e-02
4.4490587e-02
9.1974994e-02
1.7211739e-01
1.7177593e-01
7.4761363e-02
-5.1843441e-03
-3.0359047e-02
-3.2463130e-02
-1.5114812e-02
1.0071126e-02
8.7468490e-03
-2.4331852e-02
-5.0675906e-02
-5.3729000e-02
-3.9588282e-02
-1.4317732e-02
9.1565829e-03
2.7260548e-02
3.0792073e-02
1.3334518e-02
-7.5976702e-03
-2.6215211e-02
-4.3147289e-02
-5.1213361e-02
-4.9482121e-02
-4.4344167e-02
-3.9833017e-02
-2.8889079e-02
-7.2080995e-03
2.0791700e-02
2.9924538e-02
2.0069322e-03
-3.3048507e-02
-4.7924493e-02
-4.3773616e-02
-3.6185751e-02
-3.4898127e-02
-1.8493463e-02
2.1668053e-02
5.3408136e-02
3.9607532e-02
-1.7663589e-02
-6.8962513e-02
-6.3467153e-02
-1.6469855e-03
7.1474255e-02
1.4073878e-01
1.9690899e-01
1.8228528e-01
9.8131344e-02
1.6567402e-02
-3.4022086e-02
-5.6320588e-02
-6.6755152e-02
-7.4237500e-02
-5.0758820e-02
-1.0193119e-02
1.2701566e-02
3.4414678e-02
6.1657336e-02
4.8716506e-02
-5.7229043e-03
-2.3955737e-02
4.0460676e-04
-1.1390690e-02
-8.0773705e-02
-1.5308944e-01
-1.6764919e-01
-1.1892668e-01
-6.1344184e-02
-4.3237939e-02
-5.4001926e-02
-4.9108455e-02
-1.2838430e-02
4.3973768e-02
1.1417160e-01
1.8013214e-01
2.4332822e-01
2.7241559e-01
2.0501033e-01
8.0708163e-02
-3.5177077e-02
-1.1870061e-01
-1.5475751e-01
-1.4472023e-01
-1.0737643e-01
-7.4894609e-02
-6.6441785e-02
-6.9632185e-02
-5.7319339e-02
-2.5938796e-02
1.7182796e-03
1.0381961e-02
5.2425501e-03
7.3913022e-03
3.8273768e-02
1.0239588e-01
1.7404567e-01
2.0030875e-01
1.6566131e-01
8.8361228e-02
-4.6011229e-03
-6.0941484e-02
-8.3054960e-02
-1.1834788e-01
-1.4709200e-01
-1.3046271e-01
-7.5624772e-02
-2.0221699e-02
-1.6866984e-02
-4.5374831e-02
-5.0229662e-02
-2.3975299e-02
2.1864322e-02
4.9178637e-02
4.0781158e-02
3.1171232e-02
5.2121784e-02
7.4226254e-02
4.7304919e-02
2.3303653e-04
-2.2336568e-02
-2.9957738e-02
-5.0388776e-02
-8.5371289e-02
-9.0624954e-02
-4.0036748e-02
3.8519305e-02
1.1638795e-01
1.4894465e-01
9.5694171e-02
1.3646858e-02
-3.2365542e-02
-4.7379581e-02
-4.3390268e-02
-3.5502542e-02
-4.0272676e-02
-4.6998384e-02
-3.6595157e-02
-2.1514423e-02
-2.1200646e-02
-2.3382282e-02
-2.4267688e-04
5.3350031e-02
8.4443910e-02
5.2173522e-02
-1.6149453e-02
-9.7652356e-02
-1.7233923e-01
-1.8735358e-01
-1.1602205e-01
1.4252851e-02
1.7148952e-01
2.8721291e-01
2.8932935e-01
1.9639536e-01
6.7917444e-02
-3.1931070e-02
-7.7130072e-02
-8.6014634e-02
-7.5439569e-02
-4.9220246e-02
-2.7456901e-02
-3.6339402e-02
-3.5484306e-02
2.7857382e-04
4.1931906e-02
7.4884109e-02
7.4618563e-02
2.8053191e-02
-2.9582197e-02
-6.8210449e-02
-8.8656530e-02
-1.0302136e-01
-1.1994590e-01
-1.3993228e-01
-1.5034412e-01
-1.4435519e-01
-1.4283867e-01
-1.7197273e-01
-2.3645828e-01
-2.7885639e-01
-2.0315650e-01
-4.5319753e-03
