-7.3648321e-03
2.6226306e-01
4.6888590e-01
4.9632521e-01
3.7370746e-01
2.4272715e-01
1.6842482e-01
1.1102382e-01
2.8719612e-02
-4.2296615e-02
-6.5713793e-02
-4.8015714e-02
-2.8620849e-02
-3.5818518e-02
-3.1610191e-02
1.5855643e-02
9.9321319e-02
1.4695821e-01
9.7304393e-02
1.6954048e-02
-3.6418284e-02
-6.9390737e-02
-8.4132927e-02
-8.3233867e-02
-7.1930295e-02
-5.5545759e-02
-3.8486269e-02
-2.2981527e-02
-8.4242615e-03
3.9396049e-03
1.1160482e-02
1.4194006e-02
1.2092589e-02
8.7405059e-04
-1.9552201e-02
-4.9916284e-02
-9.2514772e-02
-1.4614280e-01
-2.0495403e-01
-2.5805482e-01
-2.9099308e-01
-2.9014286e-01
-2.4912880e-01
-1.5586060e-01
1.5543524e-02
2.4475432e-01
4.2405029e-01
4.7637621e-01
4.5504460e-01
4.0078172e-01
2.7487027e-01
1.0519219e-01
-1.0711699e-02
-8.8688635e-03
8.0054031e-02
1.3173572e-01
7.5954489e-02
-1.5022912e-02
-5.0677091e-02
-3.9735376e-02
-3.6461258e-02
-5.0471955e-02
-7.2672577e-02
-9.8954166e-02
-1.1680656e-01
-1.2075564e-01
-1.1492385e-01
-1.0446126e-01
-9.3638212e-02
-8.5935374e-02
-8.1842140e-02
-8.1234970e-02
-8.4876943e-02
-8.7798226e-02
-8.1469691e-02
-5.9183106e-02
-2.4221272e-02
2.0133344e-02
8.7406339e-02
1.7715059e-01
2.3796898e-01
2.2021607e-01
1.4785408e-01
7.4518609e-02
2.2986567e-02
-1.4308087e-02
-4.8372062e-02
-7.4020471e-02
-8.2805170e-02
-7.5779786e-02
-6.1871396e-02
-4.7214046e-02
-3.2776845e-02
-2.0721427e-02
-1.2810743e-02
-8.0364408e-03
-2.3233516e-03
7.6381356e-03
2.1006385e-02
2.4099107e-02
7.0986824e-03
-1.5532819e-02
-3.1828185e-02
-3.9790863e-02
-3.7105333e-02
-2.4950828e-02
-1.3618459e-02
-1.5288351e-02
-2.4285970e-02
-2.3736333e-02
-4.2604718e-03
3.4336539e-02
5.9416223e-02
4.0621883e-02
1.3124771e-02
1.3084942e-02
3.4955325e-02
5.2602292e-02
4.3123294e-02
2.1056514e-02
1.4423844e-02
1.6414882e-02
1.9967659e-03
-2.0208394e-02
-2.9133117e-02
-3.1842559e-02
-3.5525045e-02
-3.0721795e-02
-1.2647692e-02
1.9763520e-02
3.5240118e-02
-1.9249147e-03
-5.7964671e-02
-9.4808470e-02
-1.1733434e-01
-1.3634341e-01
-1.4770725e-01
-1.3209903e-01
-7.1735723e-02
2.5414220e-02
9.2041248e-02
9.5735311e-02
1.1490508e-01
1.7827750e-01
1.9437440e-01
1.2000053e-01
3.8715636e-02
2.6545662e-02
9.5479472e-02
1.7356636e-01
1.4780541e-01
4.0046332e-02
-5.5454844e-02
-1.0836128e-01
-1.2574479e-01
-1.1742409e-01
-1.0236718e-01
-9.7358850e-02
-9.1679267e-02
-7.2700131e-02
-4.9692289e-02
-3.1216340e-02
-8.7198771e-03
1.4733802e-02
1.2855729e-02
-2.4560466e-02
-6.9178374e-02
-8.0612095e-02
-3.7472660e-02
3.0185105e-02
6.9261269e-02
8.3663629e-02
1.1839661e-01
2.1212975e-01
3.0723814e-01
2.7438643e-01
1.2907630e-01
-7.2598414e-03
-8.3593608e-02
-1.1199451e-01
-1.2423851e-01
-1.3057564e-01
-1.1119349e-01
-6.5187287e-02
-3.0161690e-02
-3.0022134e-02
-3.6532698e-02
-2.6385690e-02
-1.2569833e-02
-1.1630855e-02
-1.8573645e-02
-1.8977040e-02
-7.3447967e-03
6.8897673e-03
-7.6597194e-04
-3.6951644e-02
-7.6489706e-02
-9.7871725e-02
-1.0437970e-01
-1.1183659e-01
-1.2472334e-01
-1.2957997e-01
-1.1542638e-01
-8.2577958e-02
-3.4976579e-02
4.0970259e-02
1.8111245e-01
3.5003316e-01
4.2365074e-01
3.4481783e-01
1.9521236e-01
9.3044417e-02
7.5700274e-02
6.4374354e-02
-2.7064224e-02
-1.5668710e-01
-2.4608539e-01
-2.8646515e-01
-2.9755321e-01
-2.7728939e-01
-2.0429582e-01
-7.1093403e-02
8.8139792e-02
2.1302460e-01
2.3993865e-01
1.6372623e-01
8.6543031e-02
5.9503317e-02
3.8174571e-02
2.7266046e-03
-2.0490185e-02
6.7428242e-03
6.7649583e-02
9.4330073e-02
5.4532506e-02
-2.2821726e-02
-8.7486174e-02
-1.1222897e-01
-1.0078835e-01
-7.0736060e-02
-4.0276899e-02
-2.6049102e-02
-3.9130488e-02
-6.7940591e-02
-8.5020464e-02
-6.2724864e-02
1.7157096e-02
1.3562334e-01
2.4184772e-01
2.6251959e-01
1.7739447e-01
8.3991893e-02
1.5653924e-02
-6.8414560e-02
-1.3360312e-01
-1.4035590e-01
-9.2755243e-02
-4.7978213e-02
-6.8108376e-02
-1.2797179e-01
-1.7667884e-01
-1.9240064e-01
-1.7737197e-01
-1.3404304e-01
-4.2215662e-02
1.1128844e-01
2.6324281e-01
2.9440924e-01
2.1840563e-01
1.6875032e-01
2.0086647e-01
2.4506891e-01
1.8892312e-01
3.6967681e-02
-1.0246770e-01
-1.8307226e-01
-2.2171994e-01
-2.2691121e-01
-1.9635906e-01
-1.3899911e-01
-9.2929981e-02
-8.8419474e-02
-8.9951597e-02
-4.8647581e-02
4.7618196e-02
1.5314742e-01
1.7443081e-01
1.1167924e-01
6.5171075e-02
8.6376181e-02
1.3541483e-01
1.3627530e-01
7.6075685e-02
1.1869633e-02
-1.7669673e-02
-2.7463817e-02
-4.2646531e-02
-5.9021255e-02
-7.0483116e-02
-7.5391984e-02
-7.0681868e-02
-5.6663847e-02
-4.3500468e-02
-4.5543356e-02
-5.0982942e-02
-4.2711443e-02
-2.9991312e-02
-3.6090035e-02
-6.3042851e-02
-8.7996692e-02
-9.2223786e-02
-7.9171488e-02
-6.3261039e-02
-3.3708404e-02
3.4392482e-02
1.4070387e-01
2.1827349e-01
1.8421485e-01
7.2333587e-02
-2.1340939e-02
-6.9286767e-02
-8.8530727e-02
-7.9527455e-02
-2.8330839e-02
3.4649123e-02
4.6794755e-02
2.4839931e-02
4.2029216e-02
1.3079709e-01
2.2845971e-01
2.1189371e-01
8.1195738e-02
-4.9343241e-02
-1.2841551e-01
-1.6309003e-01
-1.5420018e-01
-1.0001120e-01
-3.2759969e-02
-5.7676550e-03
-1.1478419e-02
4.6678723e-03
6.7289662e-02
1.4198528e-01
1.5635106e-01
9.5928233e-02
2.1732396e-02
-2.3689493e-02
-4.4536463e-02
-5.8175858e-02
-6.6144819e-02
-6.1497312e-02
-4.9091893e-02
-3.7597530e-02
-2.8881001e-02
-1.9584355e-02
-8.7698659e-03
-3.4409585e-03
-6.6977888e-03
-1.0286396e-02
-9.6053805e-03
-9.4460865e-03
-1.2560179e-02
-1.8553024e-02
-2.8940350e-02
-4.2623382e-02
-5.8287021e-02
-7.4277811e-02
-8.3864242e-02
-8.0677046e-02
-6.7149766e-02
-4.7147180e-02
-1.4297819e-02
4.1547632e-02
1.2647622e-01
1.7427002e-01
1.1465953e-01
1.8036994e-02
-3.1571928e-02
-2.6886818e-02
1.6700954e-02
7.5108597e-02
1.1778881e-01
1.1433595e-01
6.7395107e-02
1.6024736e-02
-9.6262188e-03
-2.6175961e-04
2.0952535e-02
2.6761088e-04
-6.2604607e-02
-1.1756437e-01
-1.4287792e-01
-1.3803370e-01
-9.6810665e-02
-1.9525392e-02
4.9656966e-02
5.1313835e-02
5.8722413e-03
-1.7302579e-02
1.2651168e-02
5.1784200e-02
3.0267088e-02
-2.7158650e-02
-4.5787405e-02
-4.2268084e-03
2.8834942e-02
-3.5646552e-03
-2.7933788e-02
2.4033251e-02
8.1313250e-02
6.1373454e-02
2.8935527e-02
6.7539015e-02
1.4267795e-01
1.5215196e-01
7.6158585e-02
6.0610861e-03
-8.7981465e-03
1.6769944e-02
2.7229428e-02
-1.4961944e-02
-6.4765045e-02
-8.7222305e-02
-9.2106363e-02
-9.5140096e-02
-1.0429245e-01
-1.1293014e-01
-1.1481050e-01
-1.1099673e-01
-1.0851414e-01
-1.0372272e-01
-8.1084225e-02
-3.7637807e-02
1.6807356e-03
1.8100423e-02
3.9982625e-02
1.0568168e-01
2.3176976e-01
3.5410598e-01
3.4319907e-01
2.0799967e-01
7.5428231e-02
-1.0570010e-02
-7.2166094e-02
-1.2029110e-01
-1.5590788e-01
-1.7398021e-01
-1.7918536e-01
-1.8492605e-01
-1.8416745e-01
-1.5563018e-01
-9.1065330e-02
-1.4779774e-02
2.1267983e-02
1.8656231e-02
4.6117611e-02
1.4281901e-01
2.4787220e-01
2.4515962e-01
1.3712875e-01
3.6875316e-02
6.4577124e-03
2.8072567e-02
2.4749705e-02
-4.0365315e-02
-9.9780421e-02
-1.0100492e-01
-7.6741215e-02
-6.7042428e-02
-4.6188675e-02
1.9504255e-02
1.1037581e-01
1.4853614e-01
9.6643780e-02
2.8887708e-02
-5.3173803e-04
-1.4066092e-04
-7.0540867e-05
-2.1949948e-02
-4.6181585e-02
-5.3919188e-02
-5.0856244e-02
-5.4035547e-02
-6.9171022e-02
-8.1775349e-02
-8.3208900e-02
-7.8896460e-02
-7.7338230e-02
-8.2573726e-02
-9.3148276e-02
-1.0260427e-01
-9.8150450e-02
-7.1404238e-02
-2.0182394e-02
6.6932661e-02
2.0075375e-01
3.2267121e-01
3.1878583e-01
2.0267699e-01
9.9719239e-02
6.1569012e-02
6.6631225e-02
5.4533791e-02
-1.3043215e-02
-9.0605380e-02
-1.4262579e-01
-1.7484353e-01
-1.8462394e-01
-1.6855726e-01
-1.3181944e-01
-9.4002244e-02
-8.0489906e-02
-7.7636171e-02
-4.4888918e-02
3.9195280e-02
1.4480526e-01
1.8313567e-01
1.3285930e-01
8.6007588e-02
1.0409169e-01
1.5914901e-01
1.6396798e-01
8.5255084e-02
-1.2576209e-03
-4.1694745e-02
-5.3351218e-02
-6.4836797e-02
-7.4823109e-02
-7.0514351e-02
-5.4921630e-02
-3.7533179e-02
-3.3805258e-02
-4.7378311e-02
-6.0234147e-02
-6.0080082e-02
-5.6331636e-02
-5.8320783e-02
-5.7033995e-02
-4.4782629e-02
-1.9604746e-02
-6.4724862e-03
-3.3500501e-02
-6.7347571e-02
-6.9102995e-02
-3.5933201e-02
1.9642351e-03
1.3152572e-02
2.0582467e-02
6.4875779e-02
9.9725089e-02
6.0371948e-02
7.9557008e-03
1.4339812e-02
8.7660889e-02
1.6986084e-01
1.6118057e-01
7.9333792e-02
2.4851315e-02
3.6405962e-02
6.4192621e-02
3.9315367e-02
-1.8741979e-02
-4.8434719e-02
-3.9856388e-02
-2.1924710e-02
-1.5748592e-02
-2.1420179e-02
-4.5727047e-02
-8.0904069e-02
-1.0330835e-01
-1.0676987e-01
-8.8933707e-02
-5.4956643e-02
-2.9049721e-02
-2.5817604e-02
-2.9462547e-02
-1.3350282e-02
3.5836326e-02
1.0053139e-01
1.3565174e-01
1.1715167e-01
6.6764228e-02
2.5788507e-02
1.9879660e-02
4.0967957e-02
5.5831495e-02
4.1136985e-02
-3.3288284e-03
-6.0971227e-02
-1.0354563e-01
-1.1967658e-01
-1.1573302e-01
-1.0006785e-01
-8.6798378e-02
-8.8111297e-02
-9.4693515e-02
-8.1066600e-02
-2.8559866e-02
6.1769239e-02
1.1404422e-01
7.6810710e-02
4.6679364e-02
1.0525557e-01
1.9051320e-01
1.7406545e-01
4.5889481e-02
-7.9422770e-02
-1.3242692e-01
-1.3860710e-01
-1.3617637e-01
-9.8352480e-02
7.7527918e-03
1.1834778e-01
1.2784684e-01
6.3567814e-02
3.9582967e-02
1.0584331e-01
1.9453979e-01
1.7538622e-01
5.6831276e-02
-3.6066801e-02
-4.9775167e-02
-4.5195063e-02
-8.2069300e-02
-1.1905915e-01
-1.1769965e-01
-1.0442039e-01
-9.7631129e-02
-6.9722174e-02
8.1695670e-03
1.0951942e-01
1.5074910e-01
1.0411775e-01
4.5935321e-02
3.0933284e-02
5.2330790e-02
6.4179076e-02
2.9896428e-02
-3.0128912e-02
-8.9774528e-02
-1.4228740e-01
-1.8534876e-01
-2.1587714e-01
-2.2882409e-01
-2.2541118e-01
-2.0806043e-01
-1.6379264e-01
-7.7556855e-02
1.4018472e-02
7.5274867e-02
1.5242409e-01
2.8485273e-01
4.0703639e-01
3.9384415e-01
2.5822714e-01
1.5350857e-01
1.1806335e-01
6.0827703e-02
-3.7945670e-02
-9.8039171e-02
-7.6667833e-02
-6.6400352e-03
2.7490236e-02
-2.2441305e-02
-9.8282153e-02
-1.4327014e-01
-1.5283117e-01
-1.3407089e-01
-9.9174666e-02
-5.7709603e-02
-2.2400925e-02
-8.1270943e-03
-1.5933874e-03
1.7962149e-02
5.8095882e-02
1.0690574e-01
1.1579397e-01
6.4279536e-02
-4.6567503e-03
-5.5012439e-02
-8.0354238e-02
-8.5132647e-02
-7.9639164e-02
-6.6445167e-02
-4.9156434e-02
-3.0314355e-02
5.5709603e-03
7.1989580e-02
1.3650050e-01
1.1946668e-01
1.2873921e-02
-9.8731496e-02
-1.6975366e-01
-2.1333962e-01
-2.4061055e-01
-2.3967091e-01
-2.0152562e-01
-1.4410975e-01
-7.2085534e-02
-1.1827627e-02
-2.3073939e-03
-2.2173856e-02
-6.3020312e-02
-8.6704489e-02
-2.3361883e-02
1.1737478e-01
2.6849417e-01
3.7268897e-01
4.1833509e-01
4.1667097e-01
3.7866727e-01
3.0748959e-01
2.0372512e-01
1.0996745e-01
5.2899652e-02
-2.7546666e-02
-1.1633589e-01
-1.0727089e-01
-1.1750003e-03
9.1588307e-02
6.4683373e-02
-5.8243292e-02
-1.4801777e-01
-1.4647212e-01
-1.1741913e-01
-1.2366923e-01
-1.2935028e-01
-1.0436924e-01
-8.3060884e-02
-8.2091938e-02
-7.7515424e-02
-5.1524043e-02
-2.5128338e-02
-3.8708242e-02
-8.3429935e-02
-1.1193348e-01
-1.0804192e-01
-7.3427734e-02
3.9763946e-03
1.1162781e-01
1.8013250e-01
1.5051247e-01
5.4340734e-02
-2.6254707e-02
-5.0212191e-02
-3.2130136e-02
3.8610863e-03
5.8867356e-02
1.5143892e-01
2.3463671e-01
2.3531012e-01
1.6065747e-01
4.2621567e-02
-6.8599261e-02
-1.3141090e-01
-1.5797884e-01
-1.8202172e-01
-2.1007065e-01
-2.1929140e-01
-2.1397685e-01
-2.0281555e-01
-1.6599891e-01
-7.9151164e-02
6.9895169e-02
2.1935366e-01
2.4270831e-01
1.5063130e-01
8.5253719e-02
1.1853925e-01
1.8990068e-01
1.6676522e-01
3.9737339e-02
-6.8957798e-02
-1.1021536e-01
-1.2771840e-01
-1.4980044e-01
-1.4230281e-01
-7.5071481e-02
-1.5582721e-02
-3.7637712e-02
-8.6703881e-02
-8.4702435e-02
-2.6919306e-03
1.1382111e-01
1.5505716e-01
1.3041468e-01
1.4178051e-01
1.6182404e-01
9.4303712e-02
-3.0596665e-02
-1.1749308e-01
-1.2184303e-01
-5.2084488e-02
3.2688541e-02
5.4278233e-02
-4.2354399e-03
-7.6013510e-02
-8.1935878e-02
6.2152025e-03
1.0810139e-01
1.2058781e-01
6.0218156e-02
-2.5272372e-02
-1.0212493e-01
-1.3344717e-01
-1.0915595e-01
-3.5934636e-02
4.3516356e-02
7.1843764e-02
4.2642915e-02
2.3800532e-03
2.0956696e-03
4.3704257e-02
6.9927957e-02
4.1013645e-02
-1.9600706e-02
-6.8695609e-02
-7.4733139e-02
-3.9934389e-02
-1.1308194e-02
-2.5982016e-02
-5.4527981e-02
-4.2278882e-02
1.9555194e-02
7.2299303e-02
5.0399845e-02
-2.3002603e-02
-6.9589555e-02
-5.2822660e-02
1.0572642e-02
5.7586375e-02
4.1044625e-02
4.2700546e-03
1.1620764e-02
8.5859511e-02
1.7689035e-01
1.7054284e-01
5.2228621e-02
-7.0413132e-02
-1.3504474e-01
-1.5735262e-01
-1.6845092e-01
-1.7418732e-01
-1.5071862e-01
-8.4676946e-02
-6.3078774e-03
4.2759681e-02
6.9981490e-02
1.3257475e-01
2.0749121e-01
2.3990685e-01
2.3417095e-01
1.4470947e-01
1.9312529e-03
-7.5268760e-02
-5.3978568e-02
-6.7287236e-03
-2.7724083e-02
-8.9800208e-02
-1.0245652e-01
-3.6330241e-02
5.5944713e-02
7.0410464e-02
-4.7630791e-03
-7.6850314e-02
-9.1837439e-02
-5.7019822e-02
-3.7245692e-02
-8.3123056e-02
-1.4332255e-01
-1.6178242e-01
-1.3021989e-01
-5.4727898e-02
7.1444670e-02
1.9010080e-01
2.0202513e-01
1.3090872e-01
4.7817944e-02
-3.9900004e-03
5.2279021e-03
4.4213906e-02
4.3880796e-02
-1.0506689e-02
-7.0057898e-02
-8.6774620e-02
-5.0427582e-02
-1.9562140e-03
1.8310655e-02
9.9469881e-03
-1.0162988e-02
-2.7579829e-03
2.6620496e-02
1.9846428e-02
-3.3771445e-02
-9.5701119e-02
-1.2562740e-01
-1.1087300e-01
-5.0520134e-02
4.9638328e-02
1.4754996e-01
1.7362073e-01
1.0826420e-01
2.2713938e-02
-8.3019830e-03
3.9986900e-02
1.1339218e-01
9.9808548e-02
-1.1165436e-03
-8.6807716e-02
-1.1185430e-01
-8.9068952e-02
-4.5712830e-02
-4.4880121e-03
2.3042575e-02
9.5916496e-03
-4.3510614e-02
-7.9160770e-02
-5.9766791e-02
-2.3169053e-03
5.2877468e-02
7.4786816e-02
7.2392370e-02
9.4790996e-02
1.6160983e-01
1.9218423e-01
1.2462732e-01
3.7104600e-02
-1.9815711e-02
-7.0067576e-02
-1.0499836e-01
-1.0662017e-01
-8.2297206e-02
-6.1366838e-02
-5.7911592e-02
-5.8189759e-02
-5.3820161e-02
-5.5860031e-02
-7.3043811e-02
-9.3385368e-02
-1.0308540e-01
-1.0428705e-01
-1.0688793e-01
-1.0716157e-01
-8.4740335e-02
-2.3735456e-02
3.3426264e-02
3.7934117e-02
4.7050667e-02
1.2894944e-01
2.2551989e-01
2.0322184e-01
5.5827114e-02
-8.8810629e-02
-1.5277676e-01
-1.3828464e-01
-6.5776515e-02
5.7656361e-02
1.9225944e-01
2.4970991e-01
1.9473281e-01
9.0209505e-02
2.2003723e-02
3.5732280e-02
1.0527106e-01
1.1863725e-01
1.4724013e-02
-1.2370078e-01
-2.1249187e-01
-2.3824488e-01
-2.1104824e-01
-1.3998455e-01
-4.5481280e-02
3.7052744e-03
-1.4277980e-02
-1.5393333e-02
6.0059029e-02
1.5679926e-01
1.6629395e-01
9.5721382e-02
5.0661569e-02
7.5914179e-02
9.4441881e-02
3.2194427e-02
-4.1833685e-02
-5.4330877e-02
-2.6770500e-02
-1.5259529e-02
-2.9134211e-02
-2.0901724e-02
2.8162654e-02
6.2313343e-02
3.5623099e-02
-4.8563181e-03
-1.7156670e-02
-1.3359072e-02
-2.3195710e-02
-5.9866294e-02
-1.0120226e-01
-1.3039235e-01
-1.5126507e-01
-1.6758204e-01
-1.7056651e-01
-1.5296914e-01
-1.2236661e-01
-8.4744203e-02
-2.4164452e-02
8.3455536e-02
2.0039038e-01
2.0997654e-01
1.0052443e-01
4.4235071e-03
-3.4067870e-03
6.2550988e-02
1.7926224e-01
2.9210123e-01
2.9875505e-01
1.8096579e-01
3.6618744e-02
-6.0102372e-02
-1.1050964e-01
-1.3440644e-01
-1.3339686e-01
-1.1813775e-01
-1.2061092e-01
-1.4629965e-01
-1.5724142e-01
-1.2088469e-01
-3.4504188e-02
5.1883346e-02
6.1562814e-02
1.2516083e-02
-6.3806126e-03
4.2703388e-02
1.1893683e-01
1.2154166e-01
2.7362738e-02
-6.0950905e-02
-7.7600885e-02
-3.9566763e-02
-2.8451261e-02
-8.9988777e-02
-1.3638879e-01
-9.1471358e-02
-2.2337556e-02
-1.3042729e-02
2.9545880e-03
1.1951019e-01
2.9065877e-01
3.8400198e-01
3.1571117e-01
1.3474318e-01
-3.2906735e-02
-1.2809849e-01
-1.5523276e-01
-1.2252752e-01
-6.7593100e-02
-4.2789596e-02
-6.9283515e-02
-1.2004748e-01
-1.4688437e-01
-1.2850566e-01
-7.9810754e-02
-3.5583350e-02
-2.2605103e-02
-1.7170431e-02
2.2069951e-02
5.4515739e-02
3.6249064e-02
1.4376947e-02
3.3782727e-02
1.1765787e-01
2.2607905e-01
2.4920547e-01
1.6525405e-01
5.6737883e-02
-1.4748355e-02
-4.6974022e-02
-4.6845058e-02
-3.3390094e-02
-3.7957888e-02
-7.1716028e-02
-1.2593928e-01
-1.6693260e-01
-1.6658146e-01
-1.1985455e-01
-4.6397203e-02
4.2770255e-03
3.6070368e-03
-2.9016425e-02
-4.5913258e-02
-9.2000086e-03
4.7538788e-02
5.0573415e-02
-2.3393049e-03
-4.0731207e-02
-1.1062593e-02
5.0453433e-02
8.7385601e-02
1.2304742e-01
1.8011049e-01
2.2280584e-01
1.9379236e-01
8.3747293e-02
-2.7885153e-02
-6.7194057e-02
-5.8680585e-02
-7.4789658e-02
-1.1244712e-01
-1.0960950e-01
-5.3044124e-02
4.3436535e-03
3.5146214e-03
-3.8840455e-02
-5.4617791e-02
-1.3743172e-02
4.1487587e-02
4.1048859e-02
-2.2098367e-02
-1.0378624e-01
-1.6177126e-01
-1.6763740e-01
-1.2031637e-01
-3.3696426e-02
7.1909604e-02
1.2285312e-01
7.2192895e-02
-1.3384419e-02
-5.9686752e-02
-2.1788201e-02
1.0880601e-01
2.4395733e-01
2.5450317e-01
1.5643494e-01
9.5342868e-02
1.3693898e-01
1.9434866e-01
1.3527666e-01
-1.7541938e-02
-1.4176485e-01
-2.0613335e-01
-2.4171956e-01
-2.5380602e-01
-2.2074808e-01
-1.3933934e-01
-7.8094802e-02
-9.2984720e-02
-1.1857353e-01
-8.5138318e-02
2.0664337e-02
1.3747141e-01
1.3703019e-01
3.2965501e-02
-3.0845941e-02
1.7520199e-02
1.1645815e-01
1.3247762e-01
6.3184274e-02
4.2290324e-02
1.2898120e-01
2.3682848e-01
2.2488611e-01
9.9626959e-02
-5.5636168e-03
-3.7957012e-02
-4.6982503e-02
-7.4817317e-02
-9.8390299e-02
-8.7936712e-02
-5.7802815e-02
-2.9844636e-02
-1.5609325e-02
-2.9583184e-02
-6.3045262e-02
-9.1598723e-02
-1.1120944e-01
-1.3192683e-01
-1.5771950e-01
-1.8319702e-01
-1.9979202e-01
-2.0222294e-01
-1.8197725e-01
-1.1418509e-01
7.5587678e-03
1.1340741e-01
1.1465533e-01
5.4794729e-02
6.4130419e-02
1.6370286e-01
2.4497998e-01
2.1370391e-01
9.5346025e-02
1.6524549e-02
8.0189030e-02
2.2903216e-01
3.0806795e-01
2.4200912e-01
1.0251272e-01
3.9046451e-02
1.0657500e-01
2.0182854e-01
1.7140548e-01
1.5010993e-02
-1.2332565e-01
-1.7850520e-01
-1.6962645e-01
-1.3866752e-01
-1.2900429e-01
-1.3349898e-01
-1.2903287e-01
-1.1447784e-01
-9.7022434e-02
-8.2440797e-02
-7.2443568e-02
-6.9275009e-02
-7.3557272e-02
-8.3081501e-02
-9.5465945e-02
-1.0527623e-01
-1.0493949e-01
-9.0318081e-02
-6.0703353e-02
-1.0839361e-02
6.7957639e-02
1.7877636e-01
2.5307837e-01
2.2413071e-01
1.5527067e-01
9.3750862e-02
2.5591777e-02
-3.5203100e-02
-7.0695698e-02
-7.4709985e-02
-6.0146630e-02
-5.5399151e-02
-6.7077675e-02
-7.4807660e-02
-6.2305051e-02
-2.9407961e-02
-2.6169475e-03
-1.3909837e-02
-5.2974136e-02
-8.5088879e-02
-8.5431570e-02
-4.7224613e-02
9.1484289e-03
5.0501290e-02
7.1089490e-02
1.0737522e-01
1.9956656e-01
2.8833548e-01
2.8790125e-01
2.0228490e-01
5.5381769e-02
-9.4386856e-02
-1.8832430e-01
-2.3344040e-01
-2.4408327e-01
-2.0879161e-01
-1.2204220e-01
-3.8503699e-02
-2.4029242e-02
-4.3499106e-02
-1.7057953e-02
8.4472640e-02
2.0100021e-01
2.1647731e-01
1.4120188e-01
9.2690095e-02
1.2414051e-01
1.7934496e-01
1.5232613e-01
4.4180080e-02
-5.6143129e-02
-1.1397430e-01
-1.4028575e-01
-1.5039276e-01
-1.4990876e-01
-1.4198410e-01
-1.3244236e-01
-1.1672363e-01
-9.2573068e-02
-6.8172887e-02
-3.9753675e-02
9.8126971e-03
8.5378453e-02
1.2500164e-01
7.3665291e-02
-7.9440931e-04
-3.0006942e-02
-1.3230186e-02
-1.3916640e-03
-4.3267712e-02
-8.9535813e-02
-7.9714787e-02
-1.5946641e-02
3.1246011e-02
2.3681121e-03
-4.1978503e-02
-2.1373944e-02
1.7672345e-02
1.1236668e-02
2.6076328e-02
1.1162721e-01
1.9720996e-01
1.8904885e-01
1.0552433e-01
5.3922139e-02
7.9684248e-02
1.2196381e-01
8.0509550e-02
-3.2814921e-02
-1.2293708e-01
-1.5412037e-01
-1.4468092e-01
-1.0977112e-01
-5.2064787e-02
6.3576832e-03
2.6791274e-02
-2.1220019e-03
-3.6195585e-02
-2.8370380e-02
1.3460413e-02
4.9403027e-02
4.3763223e-02
4.1833787e-03
-1.7434691e-02
1.0054724e-02
5.6700404e-02
6.3142102e-02
2.7711306e-02
-6.7571517e-03
-2.9238046e-02
-3.9527483e-02
-3.1469931e-02
-1.2957471e-02
-4.9675497e-03
-2.7680764e-02
-7.3466614e-02
-1.0931829e-01
-1.1359027e-01
-7.8727965e-02
-3.5058832e-03
8.9901362e-02
1.2258286e-01
5.9399460e-02
-1.1669622e-02
-2.2395827e-02
2.3571637e-02
8.4693874e-02
9.8966930e-02
6.2874767e-02
3.7918457e-02
6.6085866e-02
9.1197238e-02
3.2555679e-02
-7.1236142e-02
-1.4297287e-01
-1.6445459e-01
-1.4028376e-01
-7.9083945e-02
1.2499656e-02
1.0027371e-01
1.2651682e-01
9.6067073e-02
6.7518843e-02
7.7509219e-02
9.2470756e-02
5.4367880e-02
-1.5959253e-02
-7.2025884e-02
-1.0279169e-01
-1.0559412e-01
-8.3935990e-02
-6.0325432e-02
-5.3696112e-02
-5.6010215e-02
-5.6094413e-02
-4.2523067e-02
-3.3137054e-03
4.8053737e-02
7.5342008e-02
6.3820032e-02
3.7354162e-02
2.5413110e-02
3.4561763e-02
4.3370945e-02
2.6046212e-02
-7.7563326e-03
-3.6818213e-02
-6.2553303e-02
-7.9232253e-02
-7.0117758e-02
-4.5379346e-02
-3.7999337e-02
-5.3148381e-02
-6.0937231e-02
-3.5474929e-02
1.5419479e-02
7.3291277e-02
1.1868568e-01
1.4403926e-01
1.3301422e-01
5.0710774e-02
-5.3530047e-02
-1.0490930e-01
-8.6346461e-02
-4.0568047e-02
-3.0315628e-02
-3.8866616e-02
-1.4243718e-02
7.3740474e-02
1.8294841e-01
1.9650628e-01
1.0642393e-01
2.4506555e-02
5.0305660e-03
2.9685095e-02
4.3805315e-02
1.3169356e-02
-3.0989927e-02
-6.2183844e-02
-7.6891670e-02
-8.6494725e-02
-9.8249598e-02
-1.0271275e-01
-9.7440767e-02
-7.8246909e-02
-4.6055996e-02
-1.1981658e-02
2.3962905e-02
6.1350139e-02
7.9963079e-02
6.1986498e-02
1.7374789e-02
-1.8805606e-02
-2.0226904e-02
1.2127472e-02
4.2327711e-02
2.8801044e-02
-1.0101451e-02
-2.9620477e-02
-1.4001120e-02
9.8276281e-03
-4.8182662e-03
-5.0502121e-02
-8.0788938e-02
-8.1763938e-02
-6.2168987e-02
-1.4828799e-02
4.6607500e-02
8.3464132e-02
7.7232621e-02
3.5195352e-02
-4.7614919e-05
1.0863668e-02
4.2959463e-02
4.1892647e-02
1.7717297e-02
1.5826281e-02
2.7279019e-02
-2.0342112e-06
-7.1925473e-02
-1.2680038e-01
-1.2544756e-01
-6.9940378e-02
5.8512783e-03
5.0057610e-02
5.8089425e-02
7.1082426e-02
7.0744534e-02
9.4768208e-03
-6.2199916e-02
-7.8968082e-02
-3.1258083e-02
7.3408796e-02
1.8747468e-01
2.1199364e-01
1.3045466e-01
4.3935268e-02
5.1154309e-03
5.3251832e-03
5.4633629e-03
-3.8480132e-02
-9.6682742e-02
-1.2933475e-01
-1.3488811e-01
-1.2142403e-01
-9.7441654e-02
-6.2934654e-02
-3.6364250e-02
-4.8274854e-02
-8.5477546e-02
-1.0276700e-01
-7.7060657e-02
-2.0523395e-02
3.5954015e-02
7.4910908e-02
1.1943040e-01
2.1326704e-01
3.0495042e-01
2.6414104e-01
1.0860501e-01
-2.2126011e-02
-7.2529671e-02
-8.3620863e-02
-9.0277127e-02
-6.6052233e-02
1.9221815e-02
1.2528726e-01
1.4937059e-01
6.9426949e-02
-2.1836597e-02
-7.3622533e-02
-1.0406729e-01
-1.3084935e-01
-1.4784582e-01
-1.4794218e-01
-1.4352843e-01
-1.4689410e-01
-1.4836557e-01
-1.2990084e-01
-7.9169692e-02
5.4111780e-03
1.2096954e-01
2.0856837e-01
2.0337884e-01
1.5106330e-01
8.6843910e-02
1.5164383e-02
-2.6391568e-02
-2.3769370e-02
1.3995758e-02
6.5428693e-02
8.6602308e-02
5.1738226e-02
-8.6575046e-03
-4.8889684e-02
-5.7618947e-02
-3.9299382e-02
-1.3967010e-02
-1.9377550e-02
-4.8556665e-02
-6.6387231e-02
-6.1673082e-02
-3.2982654e-02
7.2769173e-03
3.0792086e-02
2.3375617e-02
-2.1905907e-03
-2.3311037e-02
-2.6856732e-02
-3.8435780e-03
3.5964179e-02
5.8621947e-02
4.0822965e-02
-4.5849778e-03
-3.8887808e-02
-4.3190945e-02
-2.9548393e-02
-2.1558961e-02
-2.3839124e-02
-9.1808969e-03
4.5738174e-02
1.1569300e-01
1.4327148e-01
1.1951572e-01
7.2876746e-02
8.4804105e-03
-6.1518077e-02
-1.0449813e-01
-1.0696080e-01
-7.9234586e-02
-3.7854924e-02
1.1917420e-02
3.9627721e-02
1.3409746e-02
-2.8959049e-02
-4.9206482e-02
-4.7540114e-02
-2.7240460e-02
1.4720523e-02
7.2194893e-02
1.2404531e-01
1.2959776e-01
6.9881158e-02
-3.5684885e-03
-4.9863139e-02
-7.0302711e-02
-6.8166051e-02
-4.6386615e-02
-1.2354050e-02
5.4763672e-03
-9.0174007e-03
-2.7727562e-02
-3.4847924e-02
-3.5032493e-02
-2.2989713e-02
-3.8599629e-03
-1.8221564e-03
-2.3089173e-02
-4.0543749e-02
-3.4187868e-02
7.1011569e-04
5.3732349e-02
8.3056276e-02
6.1528798e-02
1.4496693e-02
-1.9553447e-02
-2.1715405e-02
7.0853863e-03
3.9446636e-02
4.5134487e-02
2.7965666e-02
8.0026729e-03
-1.6563164e-05
1.2848581e-02
3.4347140e-02
3.4489263e-02
9.1621142e-03
-2.2804986e-02
-5.2830780e-02
-7.3848981e-02
-7.5378598e-02
-5.7950953e-02
-3.3580060e-02
-1.4243623e-02
2.0581943e-03
3.3546990e-02
8.1799504e-02
1.0409145e-01
6.8899568e-02
1.0944964e-02
-2.7145481e-02
-3.6171259e-02
-3.0526824e-02
-3.3511545e-02
-4.7871665e-02
-5.9147933e-02
-5.2250768e-02
-1.9695740e-02
2.8511937e-02
6.0673007e-02
4.5214180e-02
-5.3482939e-03
-4.5673370e-02
-5.5719131e-02
-4.2126186e-02
-5.3623426e-03
3.7037162e-02
4.6987298e-02
2.8123772e-02
1.6014166e-02
2.6432239e-02
5.6453414e-02
6.8579755e-02
2.9436520e-02
-1.9598924e-02
-3.8012369e-02
-4.0211686e-02
-3.5876726e-02
-1.5456713e-02
1.0028452e-02
1.2726813e-02
-1.2978020e-02
-4.2021087e-02
-4.4229656e-02
-6.7899627e-03
4.3431992e-02
5.6363525e-02
2.7269361e-02
-4.4301485e-03
-8.0971990e-03
1.0478961e-02
1.6136098e-02
-2.5361657e-03
-2.3990664e-02
-3.3970507e-02
-2.3435659e-02
4.1553287e-03
3.0954551e-02
4.3126024e-02
2.8500003e-02
-7.1281176e-03
-3.4435608e-02
-3.3334655e-02
6.1099505e-05
5.1225194e-02
7.5956484e-02
4.2799021e-02
-2.2451338e-02
-7.4418960e-02
-1.0094836e-01
-1.1490573e-01
-1.1923970e-01
-9.8157165e-02
-4.2517732e-02
3.4217669e-02
1.0194680e-01
1.5389054e-01
1.5260308e-01
5.8483073e-02
-4.5592719e-02
-9.2362724e-02
-9.3480119e-02
-4.8173026e-02
5.3071376e-02
1.5539644e-01
1.5610266e-01
6.6717871e-02
-7.2637044e-03
-1.5070063e-02
3.6957712e-02
1.0759973e-01
1.0822420e-01
1.0959625e-02
-1.0391685e-01
-1.8041233e-01
-2.1571036e-01
-2.0935184e-01
-1.6601650e-01
-1.1116216e-01
-6.6202816e-02
-6.1216774e-03
1.0719500e-01
2.1432692e-01
2.1750293e-01
1.3996457e-01
5.3969775e-02
1.6977194e-03
-3.0979476e-04
2.2380540e-02
2.7612996e-02
4.1375467e-03
-3.0912777e-02
-6.3495960e-02
-8.7735231e-02
-9.4568988e-02
-6.9330963e-02
-2.8716653e-02
-1.7717232e-02
-3.3188859e-02
-2.6324822e-02
2.4986358e-02
6.6186119e-02
3.5061807e-02
-2.6394315e-02
-5.6456908e-02
-3.9835781e-02
3.2984118e-02
9.7205744e-02
8.9479870e-02
6.5985980e-02
3.2760510e-02
-2.8593374e-02
-4.6845321e-02
2.2830838e-02
1.1145617e-01
9.5984181e-02
-1.2756430e-02
-9.7524588e-02
-1.1999585e-01
-1.0536165e-01
-6.0145373e-02
2.4536601e-02
1.0179075e-01
1.0051397e-01
5.2682820e-02
3.8238834e-02
8.7669249e-02
1.6372562e-01
1.6056537e-01
5.1547564e-02
-6.7040658e-02
-1.3986040e-01
-1.6633969e-01
-1.4634275e-01
-9.1386936e-02
-4.0345764e-02
-2.9295556e-02
-3.6811428e-02
-2.4410892e-02
2.0135425e-02
8.4928624e-02
1.1587799e-01
7.7193300e-02
1.4207437e-02
-2.8888728e-02
-5.4461712e-02
-7.1822409e-02
-8.4554636e-02
-9.3872281e-02
-9.6000864e-02
-9.6022538e-02
-1.0343898e-01
-9.7646256e-02
-5.1969299e-02
3.2561564e-02
1.2350422e-01
2.0608168e-01
2.4838009e-01
2.0391314e-01
1.2579436e-01
5.7650277e-02
-1.1351899e-02
-7.0352653e-02
-1.0822818e-01
-1.2128391e-01
-1.1905232e-01
-1.1092093e-01
-8.8022820e-02
-5.3808465e-02
-2.7634595e-02
-6.4104285e-03
3.5124791e-02
8.8306440e-02
9.6501464e-02
5.1488730e-02
1.3864318e-02
1.5365016e-02
4.8747784e-02
7.7340814e-02
6.1565062e-02
1.6438618e-02
-3.0171557e-02
-5.9611686e-02
-5.5886369e-02
-1.6138999e-02
3.5574624e-02
4.5698596e-02
6.0228410e-03
-3.4250426e-02
-4.8823504e-02
-3.5819456e-02
-8.8152663e-03
-1.0259747e-04
-2.4704215e-02
-6.4448755e-02
-8.5698682e-02
-7.4982870e-02
-3.3130524e-02
2.2464917e-02
5.3271220e-02
4.4352267e-02
1.8098848e-02
1.3173196e-02
3.9161485e-02
6.7727826e-02
8.5408969e-02
9.3336616e-02
7.6665224e-02
3.7124015e-02
3.4754015e-03
-5.6201990e-03
5.8758650e-03
1.0775479e-02
-1.0072006e-02
-4.0473366e-02
-5.7046794e-02
-5.4527427e-02
-3.8390632e-02
-2.0663380e-02
-1.5550692e-02
-3.1444503e-02
-6.2736655e-02
-8.8071597e-02
-9.5820912e-02
-8.8404102e-02
-6.4526052e-02
-2.6925493e-02
1.2767374e-02
4.7096225e-02
8.7474808e-02
1.1342172e-01
8.3165540e-02
2.9963951e-02
5.9099623e-03
1.8682312e-02
6.1401763e-02
9.9560916e-02
8.7224504e-02
3.8520821e-02
-5.7707384e-03
-3.5502696e-02
-4.7099670e-02
-4.1319445e-02
-2.7796708e-02
-2.4685557e-02
-4.2962411e-02
-6.2684857e-02
-6.2037539e-02
-3.0759808e-02
1.7482605e-02
3.9976843e-02
1.3511916e-02
-3.7552614e-02
-7.0162457e-02
-6.6949764e-02
-4.1502097e-02
-1.8928272e-02
-1.7841373e-02
-2.6783865e-02
-8.1388280e-03
4.9521959e-02
1.0618426e-01
1.2661975e-01
1.3076168e-01
1.3837019e-01
1.1927460e-01
5.9587830e-02
5.3273801e-03
-8.1207431e-03
2.2930551e-03
-8.5918056e-04
-2.9431530e-02
-6.0353470e-02
-7.3817143e-02
-6.7695320e-02
-4.6612369e-02
-2.3424189e-02
-1.5274470e-02
-2.4937601e-02
-4.1084331e-02
-5.1546807e-02
-5.1920662e-02
-4.6462581e-02
-3.7177860e-02
-2.5900050e-02
-2.4430693e-02
-3.9816377e-02
-6.4176784e-02
-8.3462705e-02
-8.2185746e-02
-5.9978605e-02
-2.2443239e-02
4.3833480e-02
1.4807497e-01
2.3613438e-01
2.2838359e-01
1.5013319e-01
7.9904140e-02
4.4056478e-02
3.9517959e-02
2.4044406e-02
-3.8153819e-02
-1.0679073e-01
-1.4393306e-01
-1.5377879e-01
-1.3750411e-01
-8.8467702e-02
-9.3579195e-03
6.7788481e-02
8.4418102e-02
3.6187286e-02
-6.6846821e-03
-2.2287632e-03
2.4213790e-02
2.9677032e-02
5.7736178e-03
-1.8843377e-02
-1.1494093e-02
2.6185228e-02
5.6809958e-02
5.4340818e-02
2.7647602e-02
-1.7237247e-03
-2.5149232e-02
-4.0621353e-02
-3.3878446e-02
3.9198527e-03
4.7302105e-02
5.7579078e-02
3.4045734e-02
1.5868764e-02
3.0630547e-02
5.1371510e-02
3.1332057e-02
-1.8014531e-02
-5.9114179e-02
-8.7083981e-02
-1.0442409e-01
-1.0954959e-01
-1.0301000e-01
-8.0004222e-02
-3.6079724e-02
8.7417277e-03
2.0744479e-02
-6.9088323e-03
-6.0781995e-02
-1.1547622e-01
-1.4740757e-01
-1.4802776e-01
-9.9978756e-02
1.4116932e-02
1.7333838e-01
2.9845615e-01
3.0243365e-01
2.1716939e-01
1.6554391e-01
1.9787756e-01
2.3703492e-01
1.6247932e-01
-1.0588303e-02
-1.6566769e-01
-2.5743280e-01
-2.9589755e-01
-2.8266597e-01
-2.1166409e-01
-8.6235166e-02
4.1564505e-02
7.9471264e-02
3.6713569e-02
2.2339336e-02
9.1547710e-02
1.8444744e-01
1.8290752e-01
8.5033693e-02
2.2733848e-03
-8.2726630e-03
3.3782423e-02
5.5941891e-02
2.1849851e-02
-7.8060692e-03
9.2542914e-03
2.8894268e-02
3.0043130e-03
-3.9317637e-02
-6.0921094e-02
-6.4910831e-02
-6.4044221e-02
-6.7619390e-02
-6.9841217e-02
-6.3566730e-02
-4.8680311e-02
-3.0286250e-02
-1.8844342e-02
-1.9031211e-02
-2.4007550e-02
-3.0285638e-02
-4.4178754e-02
-6.8848263e-02
-9.7942172e-02
-1.1820245e-01
-1.1714210e-01
-9.7154797e-02
-8.2829242e-02
-8.6432067e-02
-7.5199442e-02
-1.8422412e-02
8.2883503e-02
1.6787430e-01
1.9108268e-01
2.1709084e-01
2.5265395e-01
2.1277742e-01
1.0942364e-01
5.0222995e-02
8.6149996e-02
1.4529988e-01
1.1385537e-01
1.5030938e-03
-9.1102085e-02
-1.3489628e-01
-1.4784817e-01
-1.2577978e-01
-7.5716185e-02
-3.1714888e-02
-2.0553423e-02
-4.4337949e-02
-7.2824110e-02
-7.4125469e-02
-3.9726892e-02
8.3343038e-03
2.2785613e-02
1.9629689e-03
-8.8717974e-03
1.5667994e-02
5.9681127e-02
7.4858085e-02
5.0609939e-02
2.1989599e-02
3.4007466e-03
-7.5691068e-03
-5.2498538e-03
2.4418653e-02
6.7329260e-02
8.1740789e-02
4.4730613e-02
-2.5084198e-02
-8.4410571e-02
-1.1323507e-01
-1.1716528e-01
-1.0291251e-01
-8.1042915e-02
-7.6946834e-02
-9.4045999e-02
-9.4075939e-02
-5.8024235e-02
4.6713107e-03
8.6605141e-02
1.6010996e-01
2.1879890e-01
2.5459209e-01
1.9985351e-01
5.8886890e-02
-8.2151027e-02
-1.7585474e-01
-2.1820406e-01
-2.0849651e-01
-1.3889301e-01
-7.8535815e-03
1.4070466e-01
2.0641896e-01
1.6672262e-01
1.1929792e-01
1.2921256e-01
1.4628204e-01
8.7638444e-02
-2.2042813e-02
-1.0746752e-01
-1.5028579e-01
-1.5461197e-01
-1.2282070e-01
-7.2984086e-02
-3.6962336e-02
-3.0484818e-02
-3.8147358e-02
-2.8035010e-02
1.5920771e-02
7.5513762e-02
1.0646461e-01
8.4624101e-02
3.8460073e-02
9.1200153e-03
7.1911521e-03
1.6989378e-02
1.7058963e-02
-5.8194977e-03
-4.6889815e-02
-8.2523290e-02
-9.2527080e-02
-7.3500555e-02
-4.7668445e-02
-4.9803724e-02
-7.3660008e-02
-8.6044041e-02
-7.0207460e-02
-2.7543806e-02
3.0735764e-02
1.0682257e-01
1.4764668e-01
8.1871083e-02
-2.1992409e-02
-6.2283262e-02
-1.3534470e-02
7.8596602e-02
1.0315701e-01
4.2079904e-02
4.6465643e-03
5.8969939e-02
1.4698619e-01
1.3894719e-01
1.9950989e-02
-9.5527861e-02
-1.4463066e-01
-1.4448551e-01
-1.2951781e-01
-1.0495744e-01
-5.0247045e-02
-9.8471215e-05
-4.7491762e-03
-2.1328356e-02
1.3002106e-02
1.1668874e-01
2.3784801e-01
2.5035838e-01
1.3499828e-01
9.1435164e-03
-5.9746073e-02
-7.4854085e-02
-5.7787075e-02
-4.2722632e-02
-5.0309375e-02
-7.2019775e-02
-8.0562638e-02
-5.8545434e-02
-1.8734467e-02
3.6898481e-03
-6.8665004e-03
-2.7203298e-02
-3.0673003e-02
-1.4511543e-02
1.3429451e-03
3.7793746e-03
1.1610294e-02
1.9873440e-02
1.0215039e-02
1.2572996e-02
4.9795404e-02
9.1358872e-02
8.6206805e-02
3.6619106e-02
-1.2381667e-03
1.1334928e-03
2.1686415e-02
2.0421952e-02
-1.3071868e-02
-5.6019657e-02
-8.5038274e-02
-9.6832161e-02
-9.8341953e-02
-8.8297968e-02
-7.3738417e-02
-6.2982486e-02
-4.7705138e-02
-1.3815759e-02
5.0965336e-02
1.3828433e-01
2.0021207e-01
1.8007144e-01
8.8527839e-02
-1.1162357e-03
-4.8626671e-02
-5.4605274e-02
-3.5501371e-02
-2.7012474e-02
-4.3173376e-02
-6.3243297e-02
-6.8209317e-02
-5.0736517e-02
-5.6258442e-03
5.6210385e-02
7.7933043e-02
3.1330064e-02
-2.5702034e-02
-5.0337799e-02
-4.5234863e-02
-1.3879516e-02
3.0870843e-02
5.3676577e-02
3.2535792e-02
-8.6056433e-03
-2.7963501e-02
-5.0881450e-03
3.9120631e-02
6.1733961e-02
4.6485033e-02
1.5568283e-02
-2.6748370e-03
-1.6867038e-02
-4.3575187e-02
-6.3332901e-02
-5.5334107e-02
-3.7332101e-02
-3.4269028e-02
-2.5820624e-02
1.4682714e-02
6.2979961e-02
6.9732391e-02
3.6995155e-02
1.2679205e-02
2.2419637e-02
5.8155930e-02
8.2971789e-02
6.1808306e-02
6.7158872e-03
-4.7057687e-02
-8.0300500e-02
-9.1316376e-02
-9.3145795e-02
-1.0037484e-01
-1.0702011e-01
-9.3928640e-02
-5.3291424e-02
1.4178241e-03
4.9600829e-02
7.4683503e-02
6.0726081e-02
2.1935634e-02
4.1908571e-03
3.1471851e-02
1.0358390e-01
1.6829438e-01
1.4784576e-01
6.3493821e-02
-1.6934056e-02
-6.4144284e-02
-6.8394079e-02
-5.0041562e-02
-5.1962357e-02
-8.2654733e-02
-1.0755594e-01
-1.0657483e-01
-8.3105032e-02
-3.5381413e-02
3.4198487e-02
1.0765595e-01
1.3616675e-01
8.7198137e-02
1.2524829e-02
-2.8561291e-02
-2.4795378e-02
-2.9337938e-03
-5.0160713e-03
-1.9326958e-02
-4.1353451e-03
5.5689957e-02
1.1631849e-01
1.1080863e-01
5.4328720e-02
1.8072052e-03
-2.9362115e-02
-4.8590120e-02
-6.5087834e-02
-7.7710632e-02
-8.8995970e-02
-9.9360307e-02
-9.9183749e-02
-8.0631494e-02
-4.0779947e-02
1.0763176e-02
4.4617586e-02
4.9891306e-02
4.9261587e-02
7.2637737e-02
1.0342768e-01
8.9881478e-02
3.2241860e-02
-2.9051937e-02
-5.7875694e-02
-3.9407277e-02
2.0956032e-03
2.0355540e-02
-3.2124681e-03
-5.3299118e-02
-1.0360199e-01
-1.2646238e-01
-1.0921633e-01
-4.7020104e-02
6.4900267e-02
1.7705955e-01
1.8694781e-01
9.5191465e-02
7.1626920e-03
-2.1840931e-02
8.8644787e-03
4.6704931e-02
4.1135316e-02
3.7631852e-02
8.0765678e-02
9.7052335e-02
1.7192861e-02
-7.7307293e-02
-1.1512099e-01
-1.2330782e-01
-1.4072433e-01
-1.6534759e-01
-1.5422657e-01
-8.5942760e-02
3.8356208e-02
1.6599181e-01
1.9412085e-01
1.2771523e-01
7.4886531e-02
8.3326737e-02
8.2891805e-02
5.9399157e-03
-8.8164890e-02
-1.3374517e-01
-1.3994051e-01
-1.3942772e-01
-1.4043523e-01
-1.1346615e-01
-3.9241634e-02
7.8513797e-02
1.6425810e-01
1.5097505e-01
1.0934108e-01
9.3124037e-02
7.2473228e-02
2.6664232e-02
-3.0300914e-02
-6.4606359e-02
-6.3045300e-02
-4.4190742e-02
-4.6686781e-02
-7.4197786e-02
-8.5753223e-02
-6.0022947e-02
-4.8259746e-03
5.0516158e-02
5.0778528e-02
-1.2374030e-02
-7.1949480e-02
-9.0234441e-02
-7.4065466e-02
-1.7206181e-02
9.5891971e-02
2.2270313e-01
2.4972226e-01
1.5634936e-01
4.5805836e-02
-1.3763694e-02
-3.5754266e-02
-6.2774474e-02
-9.7165503e-02
-1.0243244e-01
-6.4751618e-02
-7.9534276e-03
3.5013782e-02
5.6892575e-02
5.6229312e-02
1.9627564e-02
-4.2946380e-02
-9.3718021e-02
-1.0633915e-01
-7.3806883e-02
-1.2934817e-02
3.2951575e-02
3.4781228e-02
1.0457191e-02
1.7325924e-03
2.9115266e-02
7.9759895e-02
1.1257032e-01
8.6630383e-02
1.5358271e-02
-4.0652988e-02
-5.3137878e-02
-3.3591473e-02
-3.8234836e-03
1.6058853e-04
-3.0861816e-02
-6.0478153e-02
-6.2767313e-02
-3.6637817e-02
4.8715880e-03
2.6683235e-02
6.8978198e-03
-3.9525683e-02
-8.0513559e-02
-9.4213242e-02
-8.4839293e-02
-7.9967498e-02
-9.1615787e-02
-8.5465164e-02
-1.9796972e-02
8.9660837e-02
1.8850762e-01
2.4429644e-01
2.0565203e-01
7.1853277e-02
-5.5033870e-02
-1.1859474e-01
-1.0496088e-01
4.7406371e-03
1.3822609e-01
1.5932701e-01
7.8588985e-02
3.0739636e-02
7.6579408e-02
1.5353609e-01
1.3182801e-01
-2.6430993e-04
-1.2165975e-01
-1.6852985e-01
-1.7238693e-01
-1.6791673e-01
-1.4020579e-01
-7.7554695e-02
-3.0702650e-02
-4.5962537e-02
-6.9344800e-02
-3.3628677e-02
6.6819458e-02
1.5271765e-01
1.2956145e-01
4.7368053e-02
-3.7567927e-04
2.3646198e-03
2.9647743e-02
4.9134754e-02
4.9187135e-02
2.2770748e-02
-2.5611801e-02
-5.8873550e-02
-4.8943609e-02
-6.5821602e-04
5.2729735e-02
5.3178447e-02
-9.4609131e-03
-6.8948898e-02
-8.3315165e-02
-6.4004858e-02
-2.9158836e-02
3.3359612e-03
1.4891146e-02
1.9099301e-03
-1.3844956e-02
1.8195598e-03
3.2774801e-02
2.9034160e-02
-3.3872866e-03
-2.3506345e-02
-1.6203941e-03
5.0293272e-02
7.3652921e-02
2.9069112e-02
-5.2921048e-02
-1.1414203e-01
-1.3123382e-01
-1.0193812e-01
-3.3019812e-02
4.6506281e-02
7.8170962e-02
3.5193521e-02
-1.8883782e-02
-2.1591501e-02
3.8863044e-02
1.1565709e-01
1.0945877e-01
2.3811754e-02
-3.8868342e-02
-3.5186591e-02
3.2547620e-02
9.5746281e-02
8.7641706e-02
8.0949181e-02
7.9662307e-02
1.7929013e-02
-4.1630391e-02
-3.0603042e-02
2.6641610e-02
4.1931829e-02
-2.0978205e-02
-8.5655948e-02
-9.6781122e-02
-6.6122412e-02
-4.6450980e-02
-7.2459322e-02
-1.0422812e-01
-1.1618180e-01
-1.1799614e-01
-9.4913534e-02
-2.6215894e-02
7.7879874e-02
1.3666870e-01
1.0457633e-01
7.0234798e-02
1.0873703e-01
1.5173144e-01
1.0876150e-01
2.9571604e-02
-1.2201368e-02
-2.9484721e-02
-5.3239275e-02
-9.2159760e-02
-1.3657378e-01
-1.6237340e-01
-1.5029017e-01
-1.1291327e-01
-7.4149395e-02
-2.2899002e-02
5.8302163e-02
1.3012099e-01
1.4072145e-01
8.9659978e-02
2.1285306e-02
-8.1243925e-03
2.8639820e-02
9.8672682e-02
1.3713262e-01
1.0311497e-01
1.4359151e-02
-5.7038921e-02
-7.4044270e-02
-4.8753777e-02
3.1664247e-03
2.1457234e-02
-2.8690034e-02
-8.4053534e-02
-9.5143495e-02
-5.9058749e-02
-8.9418784e-04
3.6655760e-02
3.7100677e-02
-6.4427439e-03
-7.1326812e-02
-1.0569055e-01
-8.4166556e-02
-3.8376641e-02
-2.1576823e-02
-3.4027386e-02
-3.2089234e-02
2.5724121e-02
9.4855905e-02
1.0405139e-01
1.0564439e-01
1.7140972e-01
2.5730984e-01
2.4586297e-01
1.3367972e-01
5.5321118e-02
7.5200045e-02
1.0295171e-01
3.4901549e-02
-8.3654807e-02
-1.6757517e-01
-2.0845711e-01
-2.2220781e-01
-2.2982157e-01
-2.4038326e-01
-2.3503973e-01
-2.1285289e-01
-2.0781315e-01
-2.1997638e-01
-1.9760713e-01
-1.0747959e-01
-1.2020673e-03
4.0967200e-02
6.1469841e-02
1.7827756e-01
3.7538132e-01
5.1434527e-01
5.1378218e-01
3.7553030e-01
1.8336365e-01
7.2563862e-02
4.8409632e-02
-4.9770450e-03
-1.0569212e-01
-1.6673511e-01
-1.4625333e-01
-6.2067867e-02
-3.0049688e-03
-4.6516451e-02
-1.3037206e-01
-1.8272210e-01
-2.0149440e-01
-1.8612937e-01
-1.2567638e-01
-2.8202447e-02
6.5405239e-02
1.1444651e-01
9.8407669e-02
4.1304857e-02
7.0932318e-03
1.7957546e-02
3.7224625e-02
2.6340746e-02
5.8241940e-04
1.5417348e-02
9.1530992e-02
1.5660754e-01
1.2636569e-01
3.9446566e-02
-2.8147710e-02
-5.7061025e-02
-6.1758635e-02
-5.5993402e-02
-2.8175357e-02
1.3589014e-02
2.2542473e-02
-1.4362696e-02
-5.7420897e-02
-8.3279134e-02
-9.2549628e-02
-8.5439138e-02
-6.7985772e-02
-4.3823972e-02
-5.9120015e-03
4.0368845e-02
7.1863615e-02
7.0891323e-02
4.4765758e-02
1.9888319e-02
1.1820232e-02
1.1395409e-02
-1.0785407e-02
-6.0253152e-02
-1.1057356e-01
-1.4304735e-01
-1.4967264e-01
-1.2447629e-01
-6.3674165e-02
3.5229848e-02
1.3882791e-01
1.6166660e-01
8.8062910e-02
8.1338168e-03
-1.4067473e-02
2.3012625e-02
5.5744606e-02
7.2316314e-03
-7.8976123e-02
-1.0988782e-01
-7.7418018e-02
-2.3192085e-02
5.3052321e-02
1.8457343e-01
3.1406947e-01
3.3143138e-01
2.2259491e-01
6.9855402e-02
-2.5440594e-02
-3.7782387e-02
-5.0947068e-02
-1.2654699e-01
-2.0713771e-01
-2.3410127e-01
-2.1495389e-01
-1.6847288e-01
-9.2834581e-02
3.3343955e-02
1.8124989e-01
2.3913345e-01
1.7652658e-01
1.0433908e-01
9.3329220e-02
9.0110129e-02
3.2858387e-02
-3.7856265e-02
-7.2961189e-02
-7.7639050e-02
-7.4433617e-02
-8.4888786e-02
-1.0334318e-01
-1.1748340e-01
-1.2603788e-01
-1.2793273e-01
-1.2391623e-01
-1.1548878e-01
-9.4615009e-02
-4.9361468e-02
2.8055378e-02
9.8065195e-02
9.2696891e-02
2.6332335e-02
-2.9654467e-02
-3.4401880e-02
-1.5243138e-02
-1.2867732e-02
8.3855451e-03
1.0155364e-01
2.1390062e-01
2.0700826e-01
8.1077002e-02
-1.9384080e-02
-2.5980231e-02
3.7466073e-02
7.7908642e-02
3.2370610e-02
-2.0774066e-02
-8.3834558e-03
2.2884429e-02
1.5869088e-02
-4.2349974e-04
-3.6551162e-03
-1.8474748e-02
-5.5969220e-02
-9.3186051e-02
-9.5504061e-02
-5.7047315e-02
-9.7991276e-03
7.4696020e-04
-2.0412746e-02
-2.2623274e-02
1.8864364e-02
7.0639837e-02
8.2654902e-02
5.4514684e-02
2.0087239e-02
1.2037898e-02
4.6272700e-02
1.2030503e-01
1.5687716e-01
8.2682219e-02
-2.5196295e-02
-9.1259424e-02
-1.2053124e-01
-1.3370866e-01
-1.4835328e-01
-1.5284702e-01
-1.3057965e-01
-8.7980750e-02
-5.9392144e-02
-5.5641369e-02
-3.5104012e-02
3.3713840e-02
1.0358443e-01
9.6487142e-02
4.0881151e-02
2.3389170e-02
5.9085505e-02
6.8570515e-02
-4.1241170e-03
-8.5663210e-02
-9.7561478e-02
-4.3818882e-02
4.8309568e-02
1.1236916e-01
9.6367477e-02
7.3929205e-02
5.9204804e-02
-2.4611348e-03
-5.1097516e-02
-2.7311953e-02
4.4224733e-02
8.2213640e-02
4.1704671e-02
-1.3089091e-02
-1.7242352e-02
3.7391303e-02
8.9080527e-02
7.0853830e-02
1.3796081e-02
-3.3510266e-02
-6.2693892e-02
-7.6988826e-02
-7.0121294e-02
-4.0017466e-02
-1.0137812e-02
-4.8999159e-03
-1.8004822e-02
-1.9086804e-02
7.5245422e-03
4.0535144e-02
4.0334887e-02
3.9561567e-03
-3.6506310e-02
-5.8795747e-02
-5.8704292e-02
-3.7405608e-02
-1.6213843e-03
2.6952842e-02
2.4366791e-02
-4.7211833e-03
-2.9031636e-02
-2.9474558e-02
-1.1628050e-02
4.3406947e-03
-5.7503115e-03
-4.6599441e-02
-8.9588068e-02
-1.0218753e-01
-7.2672233e-02
-2.9109264e-02
5.6280676e-04
5.2836733e-02
1.6497642e-01
2.6697518e-01
2.6881723e-01
1.8152293e-01
5.3623021e-02
-5.5187971e-02
-1.0832817e-01
-1.0886317e-01
-6.5032580e-02
9.4365503e-03
6.1754879e-02
3.8282849e-02
-1.7978197e-02
-5.1025542e-02
-5.6879525e-02
-5.2750803e-02
-7.1801173e-02
-1.2042777e-01
-1.6696455e-01
-1.9271852e-01
-1.9821897e-01
-1.7521844e-01
-1.0368075e-01
3.0848381e-02
1.9696177e-01
3.2724453e-01
3.5384156e-01
2.7393779e-01
1.8855613e-01
1.4870828e-01
1.0659674e-01
3.5873288e-02
