-89
-92
-94
-97
-98
-100
-100
-100
-102
-100
-100
-99
-97
-94
-92
-87
-82
-77
-70
-64
-57
-50
-43
-35
-27
-19
-12
-4
1
7
11
16
21
26
30
33
36
38
41
42
43
43
43
43
43
41
40
37
36
33
31
28
26
25
23
21
20
20
18
17
16
15
13
12
12
11
8
7
6
6
6
5
5
3
3
3
3
3
3
3
2
2
2
2
2
2
1
1
1
1
0
-2
-2
-2
-2
-2
0
1
5
10
17
25
35
45
55
63
67
68
68
63
55
46
35
22
11
1
-4
-10
-13
-15
-15
-14
-13
-10
-7
-2
13
38
80
138
215
300
380
430
433
382
287
171
62
-18
-64
-79
-75
-67
-58
-52
-49
-48
-47
-45
-45
-44
-44
-44
-44
-44
-43
-42
-42
-43
-43
-43
-43
-43
-42
-42
-42
-42
-42
-42
-43
-43
-44
-45
-45
-47
-47
-45
-45
-44
-43
-42
-43
-44
-45
-48
-49
-52
-54
-57
-59
-63
-65
-68
-69
-72
-74
-75
-78
-82
-84
-87
-90
-92
-93
-95
-94
-94
-93
-92
-89
-87
-83
-79
-73
-67
-58
-52
-45
-39
-32
-24
-17
-8
-2
5
10
15
18
21
25
28
32
35
38
41
43
43
43
45
43
42
41
40
38
36
32
30
26
25
21
21
20
20
18
18
17
16
15
12
11
10
7
6
6
7
7
7
7
6
5
3
3
3
5
6
7
7
8
7
6
5
5
3
2
2
0
0
0
1
2
3
3
5
6
8
15
22
32
43
55
65
71
72
70
65
56
46
37
25
13
2
-7
-14
-17
-19
-20
-19
-18
-15
-12
-3
15
43
87
146
220
305
385
438
447
403
312
197
86
0
-53
-74
-74
-67
-59
-53
-49
-48
-47
-45
-45
-45
-44
-44
-44
-43
-43
-43
-43
-42
-40
-40
-39
-39
-39
-38
-38
-39
-39
-40
-40
-40
-39
-39
-39
-39
-40
-39
-39
-38
-37
-38
-37
-37
-38
-39
-40
-43
-45
-48
-50
-52
-54
-57
-59
-63
-65
-69
-73
-77
-80
-84
-87
-89
-90
-92
-93
-93
-94
-92
-89
-88
-84
-78
-74
-69
-60
-54
-45
-38
-29
-22
-15
-9
-4
0
3
8
15
20
25
31
35
37
40
41
43
43
43
45
45
42
42
40
36
33
33
31
30
28
26
23
20
20
17
18
18
18
18
17
17
16
15
13
12
11
11
11
12
12
11
10
10
8
10
10
10
8
7
6
3
3
2
2
1
1
1
1
1
1
2
5
8
13
20
28
38
50
60
67
72
72
68
60
51
37
25
12
3
-5
-12
-15
-18
-19
-20
-19
-19
-17
-10
1
23
57
110
177
261
347
420
456
438
368
260
141
37
-34
-72
-82
-77
-68
-60
-57
-54
-52
-52
-50
-50
-52
-49
-49
-49
-49
-47
-47
-48
-48
-48
-48
-48
-48
-48
-48
-49
-48
-49
-49
-50
-50
-50
-50
-52
-50
-52
-50
-50
-49
-49
-48
-49
-50
-53
-53
-54
-57
-58
-60
-64
-68
-70
-74
-79
-82
-85
-89
-94
-98
-100
-104
-107
-108
-109
-109
-109
-108
-105
-103
-99
-95
-92
-87
-80
-74
-65
-57
-48
-39
-30
-24
-17
-9
-3
3
10
15
20
25
28
31
35
38
40
40
40
41
41
41
41
41
41
40
38
36
35
32
31
27
26
25
23
22
21
20
20
20
18
17
16
15
13
12
11
11
10
10
8
8
8
6
6
5
5
5
3
3
2
2
2
2
3
6
8
13
20
27
37
47
56
65
71
73
72
67
60
50
40
28
16
7
-2
-8
-12
-14
-14
-14
-13
-10
-8
-3
7
30
63
117
191
278
370
442
472
446
367
248
126
23
-42
-72
-75
-68
-58
-50
-47
-45
-44
-44
-43
-43
-43
-43
-43
-43
-43
-43
-42
-42
-42
-42
-42
-42
-43
-42
-43
-43
-44
-44
-44
-45
-45
-44
-44
-45
-45
-45
-47
-45
-45
-47
-45
-47
-47
-48
-49
-52
-54
-55
-58
-60
-63
-67
-69
-73
-77
-79
-82
-84
-87
-90
-92
-94
-97
-98
-99
-99
-100
-98
-95
-93
-88
-83
-77
-72
-64
-57
-49
-40
-32
-23
-14
-8
-3
2
6
12
17
21
26
30
32
36
37
38
40
41
40
41
41
41
40
40
37
36
32
30
26
25
23
23
22
21
20
18
17
16
15
12
11
11
10
8
8
8
7
7
6
6
5
5
6
5
5
5
5
5
3
3
2
2
1
1
0
0
0
0
1
2
5
7
13
20
28
38
50
60
67
72
72
68
62
52
42
31
20
10
0
-7
-12
-15
-17
-15
-15
-14
-12
-8
-2
16
43
88
151
231
322
403
452
451
392
290
167
55
-25
-69
-83
-79
-69
-60
-55
-53
-53
-52
-52
-52
-52
-50
-49
-49
-49
-48
-48
-48
-48
-48
-48
-48
-48
-48
-48
-48
-48
-48
-48
-49
-50
-52
-52
-52
-52
-52
-52
-50
-49
-49
-49
-49
-49
-49
-49
-50
-52
-54
-55
-57
-60
-63
-67
-70
-73
-75
-79
-82
-83
-87
-88
-90
-92
-94
-94
-95
-95
-94
-93
-90
-87
-83
-78
-72
-65
-57
-49
-40
-33
-24
-15
-9
-3
3
7
12
17
22
27
32
36
38
41
43
43
45
46
45
45
43
42
42
41
38
37
35
32
31
30
27
26
26
23
23
22
21
20
20
20
18
17
16
15
13
12
12
12
11
11
11
10
10
11
11
10
10
8
7
6
6
5
3
3
3
3
5
6
8
12
17
25
31
40
50
58
66
71
71
68
62
55
43
32
20
8
0
-8
-13
-17
-18
-18
-17
-17
-15
-12
-4
8
35
77
138
216
306
390
442
447
396
296
173
61
-23
-72
-87
-82
-73
-63
-57
-54
-50
-49
-49
-48
-48
-48
-45
-47
-47
-47
-48
-47
-47
-47
-47
-47
-47
-47
-47
-48
-48
-47
-47
-47
-48
-49
-50
-49
-50
-50
-52
-50
-50
-50
-49
-49
-49
-49
-50
-52
-54
-55
-57
-59
-62
-65
-68
-72
-74
-77
-79
-82
-84
-87
-88
-90
-92
-93
-93
-94
-94
-93
-90
-89
-85
-83
-79
-73
-68
-60
-52
-44
-37
-28
-20
-13
-5
0
6
11
15
17
21
23
27
30
32
35
36
38
38
38
40
40
38
38
36
36
35
33
31
28
26
23
21
20
17
16
16
13
13
12
11
11
10
8
7
7
7
6
6
6
5
3
3
3
3
3
3
5
5
5
5
5
5
5
5
5
3
3
3
2
1
1
0
0
0
0
0
0
1
2
6
10
16
23
33
43
53
62
67
70
67
61
53
43
32
21
10
0
-7
-13
-14
-15
-15
-15
-14
-12
-8
0
15
41
81
140
213
297
375
422
425
373
281
165
58
-22
-65
-80
-77
-68
-58
-52
-49
-47
-47
-45
-45
-45
-44
-43
-43
-43
-44
-44
-43
-43
-43
-43
-43
-43
-42
-42
-42
-42
-43
-43
-44
-44
-45
-44
-44
-44
-45
-44
-43
-44
-43
-44
-44
-45
-47
-48
-48
-49
-52
-53
-55
-57
-59
-62
-64
-67
-69
-72
-74
-77
-79
-82
-83
-84
-85
-87
-85
-85
-85
-84
-82
-80
-77
-73
-68
-63
-58
-52
-45
-38
-32
-24
-17
-9
-3
3
8
13
17
22
26
28
32
35
37
40
41
41
41
41
41
41
41
40
38
36
35
33
32
28
27
25
22
21
18
17
16
15
15
13
12
11
11
11
10
10
8
7
6
5
5
5
3
3
3
3
3
3
3
3
2
2
2
2
1
1
1
2
2
2
0
-2
-2
-3
-3
-3
-3
-2
0
1
3
7
12
18
27
37
47
57
63
66
66
62
55
45
33
21
10
-2
-8
-13
-15
-17
-15
-14
-14
-13
-10
-4
8
32
71
126
198
280
361
418
433
397
313
202
91
3
-49
-73
-75
-68
-60
-54
-50
-49
-48
-47
-47
-47
-47
-45
-44
-43
-43
-40
-40
-40
-40
-40
-40
-39
-40
-42
-42
-42
-40
-39
-38
-39
-40
-43
-44
-44
-43
-43
-42
-42
-40
-42
-42
-43
-44
-47
-49
-52
-53
-55
-57
-58
-60
-64
-68
-72
-75
-79
-82
-83
-87
-89
-90
-93
-95
-95
-97
-95
-97
-97
-97
-94
-93
-89
-85
-79
-73
-65
-59
-50
-42
-33
-24
-17
-10
-3
3
8
15
18
23
28
32
35
37
40
42
45
46
46
46
46
46
42
40
37
35
33
31
30
27
26
25
25
23
22
21
18
17
17
16
16
16
16
15
15
13
12
11
10
10
10
10
8
7
6
6
6
6
6
6
5
5
3
2
2
1
1
1
0
0
1
1
3
7
11
17
25
33
43
53
63
70
72
70
65
58
47
36
23
12
2
-4
-9
-13
-14
-14
-13
-13
-10
-8
0
15
40
81
138
213
297
376
428
433
388
296
182
72
-10
-59
-78
-78
-69
-62
-55
-53
-50
-50
-49
-49
-48
-48
-48
-48
-48
-47
-47
-45
-45
-44
-43
-43
-43
-43
-43
-43
-42
-42
-42
-42
-42
-43
-43
-43
-43
-44
-44
-44
-43
-44
-43
-44
-43
-44
-45
-47
-49
-52
-55
-58
-62
-65
-68
-70
-73
-77
-79
-83
-85
-89
-93
-94
-97
-98
-99
-100
-100
-99
-98
-95
-93
-90
-85
-80
-75
-68
-60
-52
-44
-37
-28
-20
-14
-7
0
6
11
16
22
27
31
35
37
40
41
43
43
43
42
42
41
38
37
36
33
32
30
28
27
26
25
23
22
21
20
20
18
18
18
17
17
16
15
13
12
11
10
10
10
10
10
10
8
8
7
7
5
5
3
3
2
2
2
2
3
7
10
15
18
26
33
43
52
61
67
71
70
66
58
48
38
26
15
5
-3
-9
-14
-15
-17
-15
-14
-13
-10
-4
6
26
60
110
178
260
343
410
435
408
331
220
105
10
-52
-79
-80
-72
-62
-54
-49
-48
-47
-47
-47
-45
-45
-44
-44
-44
-44
-44
-44
-43
-43
-43
-43
-43
-43
-43
-43
-42
-43
-43
-43
-44
-44
-44
-44
-44
-44
-44
-43
-44
-43
-43
-44
-45
-45
-47
-49
-52
-53
-55
-58
-60
-63
-65
-68
-69
-74
-77
-79
-82
-84
-87
-88
-90
-93
-94
-95
-97
-97
-95
-94
-92
-88
-83
-78
-72
-64
-57
-48
-40
-33
-24
-18
-10
-3
3
8
15
20
25
28
31
33
36
37
40
40
41
42
42
41
40
38
36
35
33
31
28
27
26
25
25
23
23
22
21
21
20
18
17
16
16
15
13
12
12
11
11
10
10
10
8
8
8
7
8
7
7
6
6
6
6
6
5
5
3
3
3
3
5
6
8
12
17
23
32
41
51
61
68
72
73
70
63
56
46
36
23
13
3
-2
-7
-9
-10
-10
-9
-9
-7
-3
5
21
47
91
150
226
310
383
426
422
365
266
151
48
-25
-65
-74
-69
-60
-54
-50
-49
-50
-50
-50
-49
-49
-49
-49
-49
-48
-49
-49
-49
-49
-48
-48
-49
-49
-50
-52
-53
-54
-55
-55
-57
-57
-57
-55
-55
-55
-55
-54
-54
-53
-52
-53
-53
-53
-53
-54
-57
-58
-59
-60
-63
-67
-69
-70
-73
-74
-77
-79
-82
-83
-85
-88
-90
-90
-90
-92
-92
-92
-92
-90
-89
-87
-84
-79
-73
-67
-60
-53
-44
-37
-29
-22
-15
-8
-3
3
8
13
18
22
26
30
32
35
37
38
40
40
40
40
40
38
37
36
32
31
30
27
27
25
22
21
18
18
18
18
18
17
17
16
16
13
13
13
13
11
11
11
10
11
11
12
11
10
8
6
5
5
5
7
8
8
7
7
6
5
2
2
2
1
1
1
2
3
7
11
17
23
32
41
51
60
66
70
68
65
57
48
38
26
16
5
-3
-9
-12
-14
-14
-15
-15
-14
-10
-4
8
32
67
118
188
268
351
413
435
405
327
216
105
11
-47
-73
-77
-68
-60
-53
-49
-47
-45
-44
-43
-42
-42
-42
-42
-43
-43
-42
-40
-40
-39
-39
-40
-40
-40
-40
-40
-40
-39
-39
-39
-39
-39
-39
-39
-39
-39
-39
-39
-38
-39
-39
-39
-42
-42
-43
-44
-45
-48
-49
-52
-54
-58
-62
-65
-69
-73
-77
-78
-80
-82
-83
-84
-88
-90
-94
-95
-95
-95
-93
-90
-87
-83
-79
-75
-70
-65
-58
-50
-42
-34
-27
-19
-10
-4
2
7
13
18
22
26
30
33
36
40
42
45
47
50
48
48
48
46
45
42
41
37
33
31
30
27
26
23
22
21
20
20
18
18
17
16
15
13
12
11
11
10
10
10
8
8
8
8
7
7
6
7
6
6
6
5
5
5
5
5
5
5
3
2
2
2
2
3
7
11
16
22
31
41
52
62
70
73
75
70
62
52
41
30
17
6
-3
-9
-12
-13
-14
-13
-13
-12
-10
-5
5
25
56
103
170
250
335
405
440
423
356
251
135
35
-33
-68
-78
-73
-65
-59
-55
-53
-52
-52
-50
-49
-49
-48
-48
-48
-48
-47
-47
-47
-47
-47
-45
-45
-45
-45
-45
-44
-44
-44
-45
-47
-47
-47
-48
-47
-47
-47
-45
-44
-45
-45
-47
-47
-48
-49
-50
-52
-54
-57
-59
-62
-65
-68
-72
-75
-78
-82
-84
-87
-89
-92
-94
-97
-98
-98
-99
-99
-99
-99
-98
-95
-92
-88
-82
-74
-68
-62
-54
-48
-39
-32
-24
-17
-9
-2
2
8
13
20
25
30
33
37
40
42
43
45
46
47
46
45
43
43
41
40
37
35
33
31
30
28
26
26
25
23
22
21
20
18
18
18
17
16
15
15
13
13
12
12
12
11
12
11
11
11
8
8
7
6
5
3
3
2
2
2
2
2
3
6
8
13
20
27
36
46
56
65
71
73
72
67
60
51
40
28
17
7
-2
-8
-12
-12
-13
-12
-10
-9
-7
-2
10
31
66
118
187
271
355
416
435
401
317
203
90
0
-55
-79
-79
-70
-60
-53
-49
-47
-45
-44
-44
-43
-43
-43
-43
-43
-43
-43
-43
-43
-43
-43
-43
-43
-42
-42
-43
-43
-44
-43
-44
-44
-44
-44
-45
-44
-44
-44
-44
-44
-43
-44
-44
-45
-47
-48
-49
-50
-53
-54
-57
-59
-60
-63
-67
-70
-74
-78
-82
-84
-85
-88
-90
-92
-93
-93
-93
-92
-92
-92
-90
-89
-87
-83
-79
-73
-65
-58
-50
-44
-35
-28
-20
-13
-7
0
5
10
13
18
22
26
30
33
35
36
36
36
35
36
37
37
37
37
36
35
33
31
28
26
23
20
17
13
12
11
11
10
8
10
8
8
7
7
6
6
3
3
2
2
3
3
5
5
5
5
3
3
2
2
2
3
3
5
5
5
3
2
1
0
0
0
1
1
1
1
0
1
2
6
11
17
25
33
43
53
63
70
73
72
67
58
48
37
26
13
3
-5
-9
-10
-12
-12
-10
-9
-8
-5
1
15
40
80
137
212
297
381
440
455
416
331
217
103
12
-43
-68
-72
-65
-58
-50
-47
-44
-43
-42
-42
-42
-42
-42
-43
-43
-42
-40
-39
-38
-37
-37
-37
-37
-38
-38
-39
-39
-40
-42
-42
-43
-43
-43
-43
-43
-42
-42
-40
-39
-40
-40
-43
-43
-45
-47
-48
-50
-53
-55
-58
-60
-64
-67
-70
-74
-78
-80
-83
-85
-88
-90
-93
-95
-97
-97
-97
-97
-95
-93
-93
-90
-89
-87
-83
-78
-72
-65
-58
-50
-43
-37
-28
-20
-13
-5
1
5
10
15
20
23
27
31
35
36
37
38
40
40
40
38
38
37
36
35
33
31
28
26
23
21
21
18
17
18
17
17
16
15
13
12
12
12
11
8
7
7
6
6
5
5
5
6
6
6
6
5
5
3
2
2
2
2
2
2
2
1
1
0
-2
-2
-3
-3
-3
-3
-2
0
2
5
11
17
26
36
46
56
65
68
70
66
61
52
41
31
20
8
0
-8
-12
-15
-14
-14
-13
-10
-8
-7
3
21
48
93
157
236
322
398
441
432
371
270
151
45
-29
-68
-79
-73
-64
-54
-49
-48
-47
-45
-44
-44
-43
-43
-42
-42
-40
-40
-39
-39
-39
-39
-39
-39
-38
-38
-39
-39
-39
-39
-40
-40
-40
-42
-42
-42
-42
-42
-42
-40
-40
-40
-40
-42
-42
-43
-44
-48
-49
-50
-53
-55
-58
-60
-63
-67
-69
-73
-77
-79
-83
-85
-88
-89
-90
-92
-92
-92
-92
-92
-92
-89
-87
-84
-79
-75
-70
-64
-57
-49
-42
-33
-24
-17
-9
-3
2
8
15
20
25
30
33
38
41
43
46
46
47
48
48
47
47
46
45
43
42
38
37
35
32
28
27
23
21
20
18
17
17
16
15
15
13
12
12
11
8
8
7
7
7
7
7
6
6
5
5
3
5
3
3
3
2
2
2
2
2
2
2
2
0
0
-2
-3
-2
-2
0
0
0
1
2
6
10
16
23
32
42
52
60
66
67
66
62
55
46
36
25
16
5
-4
-10
-14
-15
-17
-15
-14
-13
-10
-4
6
28
62
115
182
263
342
401
421
388
308
200
90
2
-54
-78
-79
-72
-62
-55
-52
-49
-48
-48
-48
-48
-49
-49
-49
-47
-47
-45
-45
-44
-44
-44
-44
-44
-44
-44
-44
-44
-44
-44
-45
-45
-45
-45
-47
-47
-47
-45
-45
-44
-42
-42
-42
-43
-44
-45
-48
-49
-52
-53
-54
-55
-58
-60
-64
-67
-69
-72
-74
-77
-80
-84
-85
-87
-88
-89
-89
-89
-89
-89
-87
-84
-80
-75
-70
-65
-60
-54
-49
-44
-37
-29
-22
-15
-9
-3
1
7
12
18
23
28
31
33
36
36
37
38
40
42
43
45
45
43
41
38
37
35
35
33
32
31
28
27
25
23
22
21
20
18
16
15
13
11
10
10
10
10
8
7
6
6
5
3
3
5
5
6
6
6
5
3
2
2
2
3
3
3
3
2
2
2
1
1
1
0
-3
-4
-5
-4
-3
-2
0
0
1
3
8
15
22
32
43
55
65
71
73
71
65
57
46
35
22
12
2
-5
-9
-13
-13
-14
-13
-13
-10
-7
-2
15
42
82
140
216
302
382
440
452
412
323
210
95
6
-48
-72
-74
-67
-59
-54
-50
-50
-50
-50
-50
-49
-48
-47
-47
-45
-45
-47
-45
-44
-44
-43
-43
-42
-42
-43
-44
-44
-45
-43
-43
-43
-43
-43
-43
-44
-44
-44
-44
-45
-44
-44
-44
-44
-44
-45
-47
-49
-52
-54
-58
-62
-65
-68
-72
-73
-77
-79
-83
-87
-89
-92
-93
-94
-95
-97
-98
-99
-99
-99
-97
-97
-94
-90
-88
-82
-74
-67
-58
-50
-42
-35
-28
-20
-14
-8
0
6
10
15
18
22
27
32
37
41
42
43
43
43
43
43
43
42
41
40
36
32
30
27
26
25
22
20
20
17
16
15
13
13
13
13
13
12
12
10
8
7
7
6
5
5
3
3
3
3
5
5
5
5
3
3
3
3
2
2
2
1
0
0
0
0
0
0
0
0
1
3
7
13
21
31
42
55
63
70
71
67
60
51
41
31
21
10
0
-8
-13
-17
-18
-19
-18
-17
-15
-10
0
13
41
83
141
217
303
386
441
448
403
310
193
80
-7
-58
-78
-77
-70
-62
-55
-52
-50
-49
-49
-48
-47
-47
-44
-44
-44
-44
-44
-43
-42
-42
-40
-40
-40
-42
-42
-42
-42
-42
-42
-42
-42
-43
-43
-43
-43
-44
-43
-44
-43
-43
-43
-42
-42
-43
-44
-45
-49
-52
-55
-58
-62
-64
-68
-72
-74
-78
-82
-85
-90
-95
-100
-103
-105
-107
-107
-105
-105
-104
-103
-100
-97
-93
-89
-84
-78
-70
-63
-54
-47
-37
-29
-22
-14
-8
-2
6
10
16
22
27
31
33
37
38
40
41
41
41
41
41
40
40
38
36
35
33
31
30
28
27
27
26
25
23
22
21
20
18
18
18
17
17
16
15
13
13
12
12
12
13
11
11
10
8
7
5
3
5
5
3
3
3
3
6
8
11
16
23
32
42
52
61
67
70
68
62
53
43
32
21
10
0
-7
-14
-18
-20
-22
-19
-18
-18
-14
-8
3
26
61
113
185
270
355
421
445
416
335
221
102
7
-54
-82
-85
-78
-69
-63
-59
-58
-57
-55
-55
-54
-52
-50
-50
-49
-49
-49
-49
-49
-48
-47
-47
-47
-47
-47
-47
-47
-47
-47
-47
-47
-47
-47
-47
-47
-47
-47
-47
-47
-48
-47
-48
-47
-47
-48
-49
-52
-54
-57
-59
-62
-64
-67
-69
-72
-74
-77
-79
-83
-85
-88
-92
-94
-95
-97
-98
-98
-97
-94
-92
-88
-83
-78
-72
-65
-58
-52
-44
-35
-28
-20
-13
-7
0
5
11
17
22
27
31
33
37
41
43
46
46
47
47
48
47
46
45
42
40
38
37
33
32
30
28
26
25
23
22
21
21
20
18
18
18
17
16
15
13
13
12
12
11
11
11
11
10
10
10
10
8
8
7
7
6
3
3
2
2
2
3
5
7
10
15
21
28
37
46
56
65
68
71
70
66
58
50
40
28
16
6
-4
-10
-14
-15
-15
-15
-15
-15
-13
-8
5
27
62
115
186
268
353
417
440
408
328
215
100
7
-50
-75
-77
-68
-58
-50
-47
-45
-44
-44
-43
-43
-43
-40
-40
-40
-42
-42
-40
-40
-40
-40
-40
-40
-39
-39
-39
-39
-39
-40
-40
-39
-39
-39
-40
-39
-39
-39
-39
-39
-38
-39
-39
-40
-42
-43
-44
-45
-48
-49
-50
-53
-54
-55
-58
-60
-64
-67
-70
-74
-77
-79
-82
-83
-83
-83
-83
-84
-83
-83
-83
-79
-77
-74
-69
-63
-57
-52
-44
-38
-29
-22
-15
-8
-3
2
6
10
15
20
23
30
33
37
40
41
41
42
42
41
41
41
41
40
37
35
31
28
26
23
21
20
17
15
13
11
10
10
10
10
8
7
7
6
6
6
5
3
2
1
0
0
0
0
0
0
0
1
1
0
0
0
0
-2
-2
-2
-3
-4
-4
-7
-7
-8
-8
-8
-7
-5
-2
3
10
18
27
37
47
55
61
63
63
60
51
41
30
18
8
0
-9
-13
-17
-18
-19
-18
-17
-14
-10
-3
11
36
75
130
203
288
372
431
447
411
323
210
97
6
-48
-70
-73
-67
-59
-53
-50
-49
-49
-48
-48
-48
-48
-47
-47
-47
-47
-44
-43
-42
-40
-40
-39
-39
-39
-39
-38
-38
-38
-38
-38
-38
-38
-38
-39
-39
-40
-40
-42
-39
-39
-37
-37
-37
-39
-40
-43
-44
-47
-49
-52
-54
-57
-59
-63
-65
-69
-72
-74
-78
-79
-83
-85
-87
-88
-90
-92
-92
-93
-93
-92
-89
-85
-82
-75
-70
-63
-57
-49
-42
-34
-28
-20
-14
-8
-3
2
7
12
17
22
27
32
36
38
41
42
42
43
42
41
41
40
40
38
38
37
33
32
28
25
22
21
20
20
20
18
18
17
16
15
13
13
11
11
11
10
10
8
7
7
6
6
5
5
3
3
2
2
2
2
2
0
0
-2
-3
-4
-4
-4
-4
-4
-3
-2
1
5
10
17
27
38
50
58
66
70
68
63
56
46
35
23
12
3
-4
-12
-15
-18
-18
-18
-18
-17
-14
-9
1
22
56
106
175
256
342
411
441
420
346
237
120
20
-45
-77
-84
-77
-68
-62
-57
-54
-53
-53
-53
-52
-52
-52
-50
-50
-50
-50
-48
-48
-48
-48
-48
-48
-48
-48
-48
-47
-47
-47
-47
-47
-47
-47
-47
-47
-48
-48
-48
-48
-47
-45
-45
-47
-45
-47
-48
-50
-53
-54
-57
-59
-60
-63
-67
-69
-72
-77
-79
-83
-87
-90
-94
-97
-98
-98
-97
-98
-97
-94
-92
-89
-85
-82
-77
-70
-64
-58
-49
-42
-34
-25
-18
-10
-4
2
8
15
21
26
31
35
38
41
43
46
47
48
48
48
47
46
45
42
41
40
38
38
37
35
32
31
30
28
27
28
27
26
25
25
23
22
21
20
20
20
20
18
18
18
17
17
17
16
15
12
11
10
10
8
8
8
7
8
8
8
11
15
20
26
35
45
55
63
71
75
76
72
66
58
47
36
25
13
3
-4
-9
-10
-12
-12
-12
-10
-9
-7
1
16
42
85
143
222
307
388
438
443
391
293
175
62
-19
-65
-80
-77
-67
-58
-53
-50
-50
-49
-49
-47
-47
-47
-47
-47
-47
-48
-48
-48
-48
-48
-49
-50
-49
-49
-49
-49
-49
-48
-48
-48
-49
-49
-48
-49
-50
-50
-50
-49
-49
-49
-48
-49
-48
-49
-50
-52
-54
-55
-58
-60
-62
-65
-68
-69
-73
-75
-79
-82
-87
-89
-92
-94
-97
-98
-98
-99
-99
-100
-99
-97
-93
-88
-83
-75
-68
-62
-53
-45
-37
-29
-20
-13
-7
0
6
10
15
18
23
26
30
32
33
36
36
37
38
37
37
36
35
32
31
27
26
23
22
21
20
18
17
15
15
13
13
12
13
12
11
11
10
10
10
8
8
8
7
7
6
6
6
5
5
5
5
3
3
2
2
1
0
0
0
0
1
1
2
3
7
12
17
26
35
46
56
65
71
73
72
67
61
51
40
28
16
6
-2
-8
-12
-13
-14
-13
-12
-10
-8
-2
8
30
65
116
186
267
350
413
436
406
328
217
103
10
-49
-74
-75
-68
-58
-50
-47
-45
-44
-43
-43
-43
-42
-42
-43
-43
-44
-43
-43
-43
-43
-43
-42
-42
-39
-39
-40
-40
-42
-43
-45
-47
-47
-48
-48
-48
-47
-47
-45
-47
-45
-45
-45
-47
-47
-49
-50
-53
-54
-58
-60
-63
-64
-67
-68
-69
-72
-75
-79
-83
-87
-90
-93
-95
-98
-99
-100
-100
-102
-102
-99
-97
-93
-87
-80
-73
-65
-58
-50
-44
-38
-32
-24
-15
-8
0
3
7
11
15
18
23
27
31
33
33
36
36
37
35
33
32
30
31
30
31
28
26
22
20
18
17
17
17
18
17
17
15
13
11
10
10
11
13
15
16
16
15
13
11
10
8
7
7
6
6
7
7
8
8
8
7
6
5
3
5
7
10
15
20
27
36
46
57
68
76
82
82
78
70
61
50
37
26
15
6
1
-3
-5
-5
-5
-5
-4
-2
5
15
33
65
110
173
252
338
416
462
460
402
303
185
75
-5
-50
-65
-64
-57
-49
-45
-44
-44
-44
-44
-44
-44
-43
-43
-44
-44
-45
-47
-47
-47
-45
-44
-44
-43
-43
-44
-45
-45
-47
-48
-48
-48
-48
-49
-49
-50
-49
-49
-48
-48
-47
-49
-49
-50
-52
-53
-54
-58
-60
-64
-67
-70
-74
-78
-82
-87
-90
-95
-98
-103
-107
-109
-112
-114
-115
-115
-115
-115
-113
-110
-108
-104
-100
-95
-89
-83
-75
-69
-60
-53
-43
-33
-23
-14
-7
1
6
10
15
21
26
31
36
38
41
42
42
42
43
43
42
41
40
38
36
35
33
31
28
27
26
25
23
25
25
25
23
22
22
21
20
20
18
17
16
15
13
12
11
10
10
10
7
7
7
7
6
5
5
5
5
5
6
8
11
15
21
27
37
47
58
67
73
76
73
68
61
51
41
30
17
7
-2
-5
-10
-12
-13
-13
-12
-9
-5
0
11
33
68
123
196
285
376
447
476
451
370
252
127
25
-42
-73
-79
-72
-63
-57
-52
-49
-49
-48
-48
-47
-45
-44
-44
-43
-44
-44
-44
-44
-45
-45
-45
-45
-45
-45
-45
-44
-45
-45
-45
-45
-47
-47
-48
-49
-49
-49
-49
-48
-48
-48
-47
-48
-48
-49
-52
-53
-55
-58
-60
-64
-68
-70
-74
-78
-82
-87
-90
-94
-99
-102
-104
-107
-107
-108
-108
-107
-107
-105
-103
-99
-95
-89
-84
-78
-69
-62
-54
-47
-38
-30
-23
-15
-8
-2
5
8
13
18
22
26
31
35
37
38
41
41
41
41
40
40
40
38
37
37
35
33
31
28
27
26
25
25
23
22
21
21
21
20
18
17
16
15
15
13
12
12
11
10
10
8
8
7
6
5
5
5
3
2
2
1
1
2
3
6
11
16
23
32
42
52
61
67
71
71
67
61
51
42
31
20
8
0
-7
-10
-13
-14
-13
-13
-12
-9
-5
2
20
47
92
156
235
323
401
445
438
376
273
153
45
-30
-69
-80
-74
-65
-57
-52
-49
-48
-48
-47
-45
-44
-43
-43
-43
-44
-44
-44
-44
-43
-44
-43
-43
-43
-43
-43
-43
-44
-43
-43
-44
-44
-45
-45
-45
-47
-47
-47
-47
-45
-47
-45
-45
-47
-47
-48
-50
-52
-54
-55
-58
-60
-63
-65
-69
-72
-74
-78
-80
-84
-88
-90
-93
-95
-95
-95
-95
-94
-93
-92
-88
-85
-82
-75
-70
-64
-57
-49
-42
-34
-25
-18
-10
-4
2
6
11
17
22
27
31
35
37
40
41
42
42
42
42
42
41
40
40
38
37
35
33
31
30
27
25
23
21
20
18
17
17
16
16
13
12
12
11
11
10
10
10
8
8
8
8
8
8
6
6
5
6
5
3
3
2
2
2
3
5
8
13
20
27
36
46
55
62
67
68
66
60
51
41
28
17
6
-3
-10
-17
-19
-20
-20
-19
-18
-17
-13
-5
6
31
71
127
201
285
365
417
425
378
288
173
65
-15
-63
-80
-78
-72
-64
-60
-58
-57
-55
-54
-53
-50
-48
-48
-47
-47
-47
-47
-45
-45
-45
-47
-48
-48
-48
-48
-47
-44
-43
-43
-43
-44
-43
-44
-45
-47
-47
-45
-45
-44
-43
-42
-40
-42
-42
-43
-44
-47
-48
-50
-54
-57
-60
-63
-65
-67
-69
-72
-75
-79
-83
-87
-90
-93
-93
-94
-94
-93
-92
-92
-89
-87
-83
-79
-74
-67
-60
-53
-43
-34
-24
-17
-10
-5
0
3
8
15
21
26
31
35
37
40
41
41
42
41
41
41
41
41
41
40
37
33
32
30
28
27
26
25
23
23
22
21
20
20
17
17
16
15
13
13
13
13
12
12
11
11
11
11
11
10
8
7
6
5
3
3
2
1
2
2
5
6
8
11
16
22
31
41
52
62
67
72
71
68
61
51
40
28
17
7
0
-8
-13
-15
-18
-18
-17
-14
-13
-9
0
17
48
95
157
237
323
400
443
438
381
280
163
55
-22
-65
-78
-75
-68
-60
-57
-55
-54
-54
-53
-53
-50
-50
-49
-49
-49
-49
-48
-48
-47
-47
-47
-47
-47
-47
-48
-47
-48
-48
-49
-49
-50
-50
-50
-50
-50
-49
-49
-49
-49
-50
-49
-49
-50
-52
-54
-55
-58
-59
-62
-64
-67
-70
-74
-78
-83
-87
-90
-94
-98
-99
-100
-103
-104
-104
-104
-104
-103
-103
-100
-97
-94
-89
-84
-79
-72
-64
-57
-48
-39
-30
-23
-15
-8
-2
5
11
17
22
27
31
35
37
40
41
42
43
43
43
45
45
43
43
42
41
38
36
35
32
30
28
26
25
23
23
22
21
21
20
21
20
20
18
16
15
13
13
12
11
11
10
10
10
8
10
7
7
7
7
7
8
10
13
17
23
31
40
50
60
67
72
75
72
67
60
51
40
28
17
7
-2
-7
-10
-10
-10
-10
-9
-8
-7
-2
11
32
68
121
192
276
360
421
440
405
321
207
93
1
-55
-78
-78
-69
-59
-52
-48
-45
-44
-44
-44
-43
-43
-43
-43
-43
-44
-45
-45
-44
-43
-42
-42
-42
-43
-44
-45
-47
-47
-47
-47
-47
-47
-48
-48
-48
-47
-47
-47
-48
-48
-48
-48
-47
-47
-47
-48
-49
-52
-53
-54
-57
-60
-64
-68
-72
-74
-77
-80
-83
-87
-89
-93
-95
-95
-95
-95
-94
-93
-90
-88
-84
-82
-77
-69
-63
-55
-48
-40
-33
-25
-19
-13
-8
-2
2
8
12
17
21
25
28
32
36
38
38
38
37
36
35
33
32
32
31
31
31
31
27
26
22
20
18
16
16
15
16
15
16
15
15
15
13
13
13
13
13
12
11
10
10
10
10
10
8
7
7
6
6
5
3
2
2
2
2
2
3
6
8
13
21
30
38
50
60
68
73
73
70
62
53
42
31
21
11
1
-5
-9
-13
-15
-17
-15
-14
-13
-8
1
18
46
88
151
228
316
395
443
445
392
296
178
70
-12
-59
-77
-75
-69
-62
-57
-53
-50
-49
-48
-47
-47
-47
-48
-48
-48
-47
-45
-44
-43
-43
-42
-42
-42
-42
-43
-43
-43
-44
-43
-44
-44
-44
-44
-45
-45
-45
-44
-44
-45
-45
-45
-47
-45
-47
-48
-49
-52
-53
-55
-58
-62
-64
-68
-72
-75
-79
-83
-85
-88
-92
-93
-94
-95
-97
-97
-97
-95
-93
-90
-88
-85
-82
-78
-73
-67
-59
-53
-44
-37
-30
-23
-15
-8
0
5
11
16
21
26
30
35
37
40
42
42
45
45
43
43
43
42
41
40
40
37
36
35
32
31
28
27
25
23
22
21
21
20
20
20
18
18
17
17
17
17
16
15
15
13
12
11
10
7
6
5
5
5
3
3
3
5
7
11
17
25
33
43
53
63
71
75
75
71
63
55
45
33
21
11
1
-5
-9
-13
-14
-14
-13
-12
-10
-5
2
17
46
88
152
230
317
393
437
431
371
267
150
43
-30
-69
-79
-73
-63
-55
-50
-47
-45
-45
-45
-45
-45
-45
-45
-45
-45
-45
-45
-45
-45
-47
-47
-45
-47
-47
-47
-45
-47
-47
-47
-48
-48
-48
-48
-49
-49
-48
-48
-47
-45
-47
-45
-45
-47
-48
-49
-50
-53
-55
-58
-60
-62
-64
-67
-72
-75
-78
-83
-87
-89
-93
-95
-98
-99
-100
-100
-99
-100
-98
-95
-93
-89
-84
-79
-74
-65
-59
-49
-42
-33
-24
-18
-10
-4
2
7
12
17
22
26
28
32
35
37
38
38
40
38
37
38
36
36
35
33
31
30
27
26
23
22
20
18
17
16
15
15
13
13
13
13
13
12
12
12
12
12
12
11
11
11
10
10
10
7
7
6
5
5
5
5
5
5
5
6
10
13
20
28
38
48
57
65
70
71
68
63
56
46
35
25
13
3
-4
-9
-13
-14
-14
-14
-13
-12
-8
-2
11
32
70
123
195
278
360
417
431
391
303
190
78
-7
-59
-79
-77
-68
-58
-52
-48
-47
-45
-45
-45
-45
-45
-44
-45
-45
-45
-45
-45
-45
-45
-44
-44
-44
-44
-44
-44
-44
-44
-44
-45
-45
-45
-47
-45
-45
-45
-45
-45
-44
-44
-44
-43
-44
-44
-45
-48
-49
-52
-53
-55
-58
-60
-63
-65
-68
-70
-74
-77
-80
-84
-88
-89
-92
-92
-92
-92
-93
-92
-90
-88
-84
-79
-75
-69
-64
-57
-50
-42
-34
-27
-19
-12
-4
2
6
12
17
22
25
28
31
35
37
38
40
38
38
37
37
37
36
36
35
35
32
30
27
25
22
20
18
17
17
16
16
15
13
12
13
12
11
11
10
10
10
10
8
8
7
6
5
2
2
2
2
2
1
0
0
-2
0
1
2
5
8
12
17
25
33
42
52
60
66
70
68
65
58
48
38
28
16
6
-3
-8
-12
-14
-15
-15
-15
-14
-12
-5
5
22
53
100
165
242
327
398
435
420
353
248
132
31
-37
-70
-78
-72
-63
-57
-52
-49
-47
-45
-45
-45
-45
-47
-47
-45
-45
-45
-45
-45
-45
-43
-42
-40
-40
-40
-40
-40
-42
-42
-42
-43
-44
-45
-47
-45
-45
-45
-44
-44
-42
-40
-42
-40
-42
-43
-45
-48
-49
-52
-54
-57
-58
-60
-63
-67
-70
-74
-79
-84
-88
-89
-92
-93
-94
-95
-98
-98
-98
-95
-93
-90
-85
-82
-77
-70
-65
-58
-52
-44
-37
-27
-19
-12
-4
2
8
12
18
23
28
32
36
37
41
41
43
45
45
45
45
43
42
41
38
36
35
33
32
31
28
27
25
22
22
20
20
20
17
16
15
13
13
12
11
11
10
10
10
10
10
8
8
8
7
7
6
5
5
3
3
3
3
6
8
12
18
26
36
47
58
67
73
75
72
66
57
46
35
25
13
3
-4
-10
-14
-15
-15
-14
-13
-10
-8
0
11
35
72
127
197
281
362
423
442
410
328
217
103
12
-47
-72
-77
-69
-62
-55
-52
-50
-49
-49
-48
-48
-45
-45
-45
-47
-47
-47
-48
-47
-47
-45
-45
-45
-45
-45
-47
-48
-48
-48
-48
-48
-48
-49
-49
-50
-49
-49
-48
-47
-45
-47
-47
-48
-48
-49
-50
-53
-55
-57
-60
-64
-67
-70
-74
-78
-82
-85
-89
-92
-94
-97
-98
-100
-100
-103
-103
-102
-102
-100
-98
-95
-92
-87
-82
-75
-67
-59
-50
-44
-35
-28
-20
-13
-5
1
7
12
17
21
26
28
32
33
35
36
37
37
38
38
38
38
37
35
33
32
31
28
27
25
23
22
21
20
20
18
20
20
18
18
17
17
16
15
15
12
12
11
11
8
7
7
5
5
5
5
5
6
6
8
11
15
21
27
36
46
56
66
71
73
72
68
61
52
41
30
18
8
1
-5
-9
-12
-13
-12
-10
-9
-7
-2
7
27
58
106
173
253
340
410
441
420
347
237
120
22
-43
-73
-78
-70
-60
-53
-48
-45
-44
-44
-43
-43
-43
-43
-43
-42
-42
-42
-42
-42
-42
-40
-40
-40
-42
-42
-42
-42
-42
-42
-43
-43
-44
-45
-45
-45
-45
-45
-44
-43
-43
-43
-43
-43
-43
-44
-47
-48
-50
-53
-55
-58
-62
-64
-68
-72
-77
-79
-84
-88
-92
-95
-97
-99
-99
-100
-99
-100
-98
-95
-93
-90
-85
-82
-75
-70
-62
-55
-47
-39
-30
-23
-14
-7
0
6
12
18
23
27
31
35
36
37
40
40
40
41
40
40
40
38
38
36
35
31
28
27
25
23
22
22
22
21
21
21
20
18
18
17
17
16
15
13
12
11
10
10
8
8
7
6
5
3
2
1
1
1
2
2
3
6
10
13
20
27
37
48
58
66
68
68
65
58
51
42
32
21
8
-2
-9
-14
-17
-18
-18
-17
-15
-13
-10
-2
16
43
86
145
220
303
380
427
428
377
282
167
58
-20
-65
-79
-77
-67
-58
-53
-50
-49
-48
-48
-47
-47
-47
-47
-47
-47
-47
-47
-47
-45
-45
-44
-44
-45
-45
-45
-45
-45
-45
-45
-45
-47
-47
-45
-47
-47
-47
-45
-45
-45
-44
-43
-43
-43
-44
-45
-47
-48
-50
-53
-55
-59
-63
-65
-69
-72
-73
-77
-80
-83
-87
-90
-93
-94
-94
-94
-93
-92
-90
-88
-84
-82
-78
-73
-68
-62
-55
-48
-39
-32
-24
-15
-7
0
3
10
15
18
23
26
31
35
37
41
42
43
43
45
43
43
45
43
43
41
38
35
32
31
30
28
26
25
23
22
21
21
20
20
18
18
17
17
16
15
13
12
11
11
10
10
8
6
5
3
2
1
1
1
2
3
7
10
13
20
26
35
43
55
63
70
72
70
63
56
46
35
22
11
1
-7
-13
-18
-18
-19
-18
-17
-14
-10
-5
7
30
67
120
192
277
362
426
446
415
331
217
100
6
-52
-77
-80
-73
-64
-58
-54
-53
-52
-52
-50
-50
-50
-49
-49
-48
-47
-47
-45
-45
-45
-45
-47
-47
-47
-48
-48
-48
-49
-49
-49
-49
-49
-50
-50
-49
-49
-49
-49
-48
-48
-49
-48
-49
-50
-50
-53
-55
-58
-60
-63
-67
-70
-74
-78
-82
-85
-89
-93
-95
-98
-99
-102
-103
-105
-105
-105
-104
-103
-102
-98
-94
-90
-85
-79
-73
-67
-58
-50
-40
-32
-23
-14
-7
2
7
13
18
25
30
35
38
41
43
45
46
47
47
47
47
47
45
43
42
41
40
38
36
33
32
31
30
30
27
26
26
25
25
23
22
22
22
21
20
18
17
17
16
15
15
13
11
11
10
10
10
10
10
11
12
16
21
28
37
47
57
66
72
76
77
73
67
58
47
36
23
12
2
-7
-10
-13
-14
-14
-13
-12
-9
-7
0
15
41
81
140
218
306
390
445
451
400
302
181
67
-17
-65
-79
-77
-67
-58
-52
-48
-45
-44
-43
-42
-42
-40
-40
-40
-39
-40
-40
-40
-42
-42
-42
-43
-42
-42
-43
-43
-43
-43
-44
-44
-44
-45
-47
-47
-48
-47
-48
-47
-47
-45
-47
-47
-48
-49
-49
-52
-53
-55
-58
-59
-62
-65
-68
-72
-74
-78
-80
-84
-87
-90
-94
-97
-99
-100
-100
-102
-100
-99
-97
-93
-89
-85
-80
-73
-67
-60
-52
-44
-35
-27
-18
-9
-2
5
8
15
20
25
28
33
36
38
41
42
41
42
41
41
40
38
37
36
35
32
31
28
27
23
22
21
20
18
17
16
15
15
15
13
12
13
12
11
10
8
7
7
7
6
6
6
5
5
2
2
2
1
0
0
0
0
0
0
0
1
3
6
11
17
25
33
43
53
61
66
68
66
60
52
42
32
21
10
0
-7
-13
-17
-19
-19
-17
-15
-14
-12
-4
8
32
71
126
201
285
366
423
435
392
302
187
73
-13
-63
-83
-79
-70
-60
-53
-49
-48
-47
-45
-45
-44
-44
-43
-43
-43
-44
-44
-45
-45
-47
-47
-47
-47
-47
-47
-45
-45
-47
-47
-45
-47
-47
-47
-48
-48
-49
-48
-48
-47
-47
-45
-47
-47
-47
-48
-49
-50
-52
-54
-57
-59
-62
-64
-67
-70
-73
-75
-78
-80
-84
-87
-88
-90
-93
-94
-94
-95
-94
-92
-89
-87
-83
-79
-74
-68
-62
-54
-47
-38
-30
-23
-14
-7
0
6
12
18
23
28
33
37
38
41
42
43
45
43
43
42
41
40
38
36
33
32
31
30
26
25
22
21
21
20
18
20
18
18
18
17
17
16
16
15
13
13
13
12
12
12
11
11
10
10
10
10
8
8
6
6
3
3
1
1
1
1
2
3
6
10
15
21
30
40
51
60
67
71
71
67
60
51
41
30
17
7
-2
-7
-12
-14
-14
-14
-13
-10
-8
-3
7
25
56
102
166
246
328
397
427
407
338
231
117
20
-44
-74
-78
-70
-60
-52
-47
-44
-43
-42
-40
-40
-40
-40
-40
-42
-42
-42
-40
-40
-40
-40
-40
-40
-40
-40
-40
-42
-42
-43
-43
-42
-42
-42
-42
-43
-43
-43
-44
-43
-44
-43
-43
-44
-44
-45
-47
-48
-49
-52
-53
-55
-58
-62
-64
-68
-72
-74
-77
-79
-82
-85
-87
-89
-92
-94
-95
-98
-97
-95
-94
-92
-88
-83
-78
-73
-67
-60
-53
-45
-37
-29
-22
-14
-8
0
6
12
18
23
28
33
36
40
41
42
42
43
45
43
42
40
37
35
32
30
28
27
26
23
22
20
18
18
17
18
17
17
16
16
15
13
12
11
10
10
10
10
10
11
10
10
8
8
8
6
6
6
6
6
5
2
2
0
0
1
1
2
2
3
5
8
12
20
28
38
48
58
65
68
68
65
57
50
38
27
15
3
-7
-10
-15
-18
-18
-17
-15
-14
-12
-5
6
26
60
107
171
251
335
401
435
418
350
246
132
33
-33
-65
-75
-70
-63
-57
-53
-52
-50
-49
-47
-45
-45
-43
-43
-44
-44
-44
-44
-44
-43
-43
-43
-43
-42
-42
-40
-42
-42
-43
-44
-44
-44
-44
-44
-45
-44
-45
-45
-45
-44
-44
-44
-44
-45
-45
-47
-48
-50
-53
-55
-59
-62
-65
-68
-70
-74
-77
-80
-83
-87
-89
-92
-94
-95
-95
-95
-98
-97
-95
-93
-90
-87
-83
-79
-74
-68
-59
-52
-44
-38
-32
-24
-18
-10
-3
5
12
18
25
30
35
40
43
45
47
47
47
48
48
48
46
43
41
38
35
32
30
28
27
26
25
23
22
22
21
21
20
20
18
17
17
16
16
15
13
13
12
12
12
12
11
11
11
11
11
12
11
11
10
8
7
7
7
7
6
6
6
7
11
15
22
30
41
52
62
71
76
77
75
68
60
48
36
22
11
1
-5
-10
-14
-14
-13
-13
-12
-9
-4
3
21
50
95
157
233
320
396
442
440
386
287
172
65
-13
-58
-73
-73
-67
-58
-54
-52
-52
-50
-49
-49
-49
-47
-47
-48
-48
-48
-45
-45
-45
-45
-45
-44
-45
-45
-47
-47
-47
-48
-48
-48
-49
-49
-49
-48
-49
-49
-49
-50
-49
-49
-48
-49
-52
-52
-54
-57
-59
-62
-64
-68
-72
-75
-79
-83
-87
-89
-93
-95
-99
-102
-103
-105
-108
-108
-109
-109
-108
-107
-104
-102
-98
-94
-90
-85
-79
-72
-65
-57
-48
-40
-32
-23
-14
-5
2
8
15
20
25
30
35
37
41
41
42
42
43
42
42
40
37
36
35
33
32
31
30
28
27
26
25
22
21
20
18
18
18
17
17
16
15
15
12
12
12
11
11
11
11
11
11
11
10
8
8
7
6
5
3
5
5
5
6
6
8
11
16
21
30
38
50
60
68
72
75
73
68
61
51
40
28
17
7
-2
-8
-12
-13
-14
-13
-12
-9
-7
0
11
33
67
120
191
275
360
422
442
407
323
208
93
2
-54
-75
-75
-67
-57
-50
-47
-44
-43
-43
-42
-42
-42
-42
-42
-42
-40
-40
-40
-40
-40
-39
-39
-39
-39
-39
-39
-39
-40
-40
-40
-40
-40
-42
-42
-42
-43
-43
-43
-42
-43
-42
-43
-43
-43
-44
-45
-48
-50
-52
-55
-58
-60
-64
-68
-70
-74
-78
-80
-84
-87
-89
-92
-94
-95
-97
-97
-97
-95
-94
-92
-88
-84
-80
-75
-70
-64
-57
-49
-42
-33
-25
-18
-10
-3
3
10
16
21
26
31
33
37
40
41
42
43
42
42
42
41
38
36
35
32
30
28
25
23
22
20
18
17
17
16
17
16
16
15
13
12
11
11
11
11
10
10
10
10
10
10
10
10
11
11
10
8
8
6
6
3
3
2
2
2
2
3
3
5
6
10
15
21
28
38
48
57
63
68
68
66
61
52
42
30
20
8
0
-9
-13
-17
-18
-18
-17
-15
-13
-10
-2
16
42
86
145
220
303
381
428
427
375
278
162
56
-20
-63
-78
-74
-65
-58
-53
-50
-48
-48
-47
-45
-44
-42
-42
-43
-44
-45
-45
-43
-42
-40
-40
-40
-40
-42
-40
-42
-42
-40
-39
-39
-39
-40
-42
-40
-42
-42
-42
-40
-42
-43
-43
-44
-44
-44
-44
-47
-49
-50
-53
-55
-58
-60
-63
-67
-73
-77
-79
-82
-83
-85
-87
-88
-90
-92
-94
-95
-97
-98
-97
-94
-90
-85
-80
-75
-70
-63
-55
-47
-38
-29
-22
-14
-8
-3
3
10
16
22
27
32
35
38
42
45
48
50
51
50
50
47
46
43
41
40
36
33
31
28
26
25
23
22
21
21
18
18
17
17
17
16
16
15
13
11
8
7
7
7
7
7
8
8
8
7
7
5
5
3
3
3
3
3
2
2
2
2
2
5
8
12
17
25
33
45
55
65
72
76
76
71
62
52
40
27
16
5
-4
-10
-14
-14
-14
-14
-13
-10
-8
-3
8
31
67
120
188
272
356
423
450
425
350
238
123
27
-35
-65
-73
-68
-60
-55
-52
-50
-49
-48
-47
-47
-45
-45
-43
-44
-44
-44
-44
-43
-42
-42
-42
-42
-43
-43
-43
-44
-44
-44
-44
-45
-45
-47
-47
-47
-45
-47
-47
-47
-48
-48
-47
-48
-48
-49
-49
-52
-55
-58
-62
-64
-68
-72
-75
-79
-82
-85
-89
-93
-94
-98
-99
-102
-103
-104
-105
-105
-105
-104
-102
-99
-97
-93
-88
-83
-75
-68
-59
-52
-42
-34
-27
-19
-12
-4
3
8
15
21
27
31
36
40
43
45
46
46
47
46
46
46
45
43
41
40
38
36
35
32
31
28
27
26
25
23
22
20
18
17
16
17
16
15
13
12
12
11
12
11
10
8
8
7
6
6
6
6
6
5
5
2
2
2
2
3
5
6
10
15
21
28
38
48
58
67
72
73
70
65
55
45
33
21
10
0
-5
-12
-15
-17
-17
-17
-15
-13
-9
-2
13
40
80
137
213
301
381
435
442
395
300
182
70
-14
-63
-79
-78
-69
-60
-55
-53
-52
-50
-50
-50
-49
-49
-49
-49
-49
-48
-48
-49
-48
-48
-48
-48
-47
-45
-45
-45
-45
-47
-47
-47
-47
-48
-48
-49
-48
-48
-49
-48
-47
-47
-47
-47
-48
-48
-49
-52
-53
-57
-58
-60
-64
-67
-70
-73
-77
-79
-83
-85
-89
-92
-95
-99
-102
-104
-104
-105
-104
-102
-99
-97
-92
-88
-83
-78
-72
-65
-58
-49
-42
-34
-27
-19
-12
-4
2
8
15
20
26
30
35
38
42
46
48
50
50
48
48
46
45
42
40
38
37
35
32
31
30
27
26
25
23
23
22
22
21
21
20
18
17
16
16
15
15
15
13
13
13
12
12
12
11
11
11
8
8
7
6
6
5
5
5
5
5
6
8
12
17
23
32
42
51
61
68
72
72
70
63
55
45
35
22
12
1
-7
-12
-14
-15
-15
-15
-14
-13
-10
-2
13
40
81
140
216
302
381
431
433
382
286
168
60
-19
-64
-78
-73
-64
-55
-49
-45
-44
-43
-42
-40
-40
-39
-40
-40
-42
-42
-40
-40
-40
-40
-40
-40
-39
-39
-39
-40
-40
-42
-42
-42
-43
-43
-43
-43
-43
-43
-42
-42
-42
-42
-43
-43
-44
-45
-47
-48
-50
-52
-54
-57
-58
-60
-63
-65
-69
-72
-75
-79
-82
-85
-87
-89
-90
-93
-93
-92
-92
-89
-88
-85
-83
-79
-75
-70
-64
-57
-49
-40
-33
-24
-15
-8
-3
2
8
15
21
27
32
36
40
42
45
46
47
47
47
47
45
43
42
42
40
38
37
33
31
27
25
22
20
17
16
15
13
12
13
12
10
8
7
6
6
6
6
6
7
6
6
5
3
1
0
0
0
0
-2
-2
0
0
-2
-2
-3
-3
-4
-3
-4
-4
-5
-5
-4
-3
1
3
10
18
27
38
48
58
65
66
65
58
51
42
31
20
8
-2
-8
-13
-15
-18
-18
-18
-17
-17
-14
-8
3
25
60
111
180
263
346
412
437
412
333
225
110
15
-45
-74
-79
-72
-63
-57
-52
-49
-49
-49
-49
-49
-47
-47
-45
-45
-44
-42
-42
-40
-40
-40
-42
-42
-42
-43
-43
-43
-43
-42
-40
-40
-42
-42
-43
-43
-43
-42
-42
-40
-42
-42
-42
-40
-39
-40
-42
-44
-48
-52
-54
-58
-60
-62
-64
-67
-69
-74
-77
-80
-83
-85
-89
-92
-94
-95
-95
-97
-95
-94
-90
-87
-83
-78
-73
-67
-60
-52
-44
-35
-29
-23
-18
-12
-5
1
8
15
21
26
31
35
37
41
43
46
48
50
51
50
51
48
48
47
45
41
38
33
31
30
30
28
28
27
25
23
22
21
20
18
17
16
15
15
13
13
12
11
11
10
10
10
11
10
10
8
7
7
7
6
6
6
3
3
1
1
1
1
1
1
2
5
10
16
25
33
45
55
63
70
72
71
66
58
48
38
26
13
3
-4
-10
-14
-15
-15
-15
-15
-14
-12
-4
10
35
73
128
202
285
368
431
452
420
337
225
110
16
-44
-72
-75
-69
-60
-55
-53
-52
-50
-49
-48
-48
-48
-49
-48
-49
-49
-49
-48
-48
-47
-47
-45
-47
-47
-47
-48
-47
-47
-47
-48
-48
-48
-49
-49
-49
-48
-49
-48
-49
-48
-48
-48
-48
-49
-52
-54
-57
-59
-62
-65
-68
-72
-74
-78
-83
-87
-90
-95
-98
-100
-103
-105
-107
-108
-109
-110
-109
-109
-108
-104
-100
-97
-92
-87
-80
-73
-65
-58
-49
-42
-34
-27
-18
-10
-3
3
8
13
18
23
27
31
35
37
40
41
43
45
45
45
43
42
40
38
36
33
32
28
27
26
25
22
22
21
21
18
18
17
16
16
15
15
13
12
11
11
11
10
10
10
8
8
7
7
7
7
7
7
6
6
5
5
5
3
3
3
3
2
3
5
7
12
17
26
35
46
56
65
71
75
72
68
62
53
42
31
18
7
-2
-7
-12
-13
-14
-14
-13
-12
-10
-5
3
22
55
103
170
252
338
408
442
425
353
245
126
26
-42
-74
-79
-72
-62
-52
-48
-45
-44
-44
-43
-43
-43
-43
-43
-43
-43
-43
-43
-43
-43
-44
-44
-43
-43
-44
-44
-44
-44
-44
-45
-45
-44
-45
-45
-45
-45
-45
-45
-45
-44
-43
-43
-43
-43
-44
-45
-48
-49
-52
-54
-58
-60
-63
-65
-68
-70
-73
-77
-79
-83
-84
-87
-88
-89
-90
-92
-92
-90
-89
-87
-84
-80
-75
-70
-64
-57
-49
-42
-34
-27
-20
-14
-8
-3
1
6
10
13
18
23
27
31
33
37
38
41
42
43
42
43
43
42
42
41
38
36
35
33
32
30
28
27
26
26
23
22
22
21
18
17
15
12
11
8
8
6
6
6
6
6
6
5
5
3
3
3
2
2
2
2
2
2
3
3
3
3
2
2
1
0
0
0
0
1
1
0
0
-2
-2
-3
-3
-4
-3
-3
-2
-2
0
3
7
13
21
28
36
43
51
56
58
61
57
52
45
36
25
15
5
-4
-10
-15
-17
-18
-17
-17
-14
-10
-4
10
33
72
128
201
285
366
422
435
393
306
191
81
-5
-55
-74
-73
-65
-55
-49
-45
-44
-43
-43
-43
-43
-44
-44
-44
-43
-43
-43
-43
-43
-43
-43
-43
-43
-42
-43
-43
-44
-44
-45
-45
-45
-45
-45
-45
-47
-45
-45
-44
-44
-43
-42
-42
-43
-43
-44
-45
-47
-48
-50
-53
-55
-58
-60
-63
-67
-69
-72
-74
-77
-79
-83
-85
-87
-88
-89
-89
-88
-88
-85
-84
-83
-82
-79
-77
-73
-67
-59
-52
-43
-35
-28
-22
-14
-9
-5
0
3
8
13
18
23
26
30
33
36
38
41
42
42
42
42
41
40
38
38
37
35
32
31
28
25
22
20
18
16
16
15
15
15
13
12
10
8
7
6
6
6
6
3
2
1
2
2
2
3
3
3
3
3
3
3
2
1
1
0
-2
-2
-2
-3
-2
-2
-2
0
0
0
0
0
2
6
12
22
32
43
55
63
68
70
67
61
51
41
30
17
7
-2
-8
-13
-17
-18
-18
-17
-17
-14
-10
-2
15
42
83
143
218
305
385
436
442
395
303
186
76
-7
-57
-74
-73
-65
-57
-52
-49
-48
-48
-47
-45
-45
-43
-43
-43
-43
-43
-42
-42
-40
-40
-40
-40
-42
-42
-42
-40
-40
-40
-40
-42
-40
-40
-40
-40
-40
-40
-40
-40
-40
-40
-39
-38
-39
-40
-43
-44
-47
-49
-52
-53
-55
-58
-60
-65
-69
-73
-77
-80
-82
-84
-87
-90
-93
-94
-94
-94
-92
-90
-88
-87
-84
-80
-78
-73
-68
-60
-53
-45
-38
-30
-24
-19
-13
-7
0
5
10
13
18
22
26
30
32
36
40
43
46
47
47
46
45
43
43
42
41
40
36
35
33
32
30
28
26
23
22
21
21
20
18
16
15
13
11
10
8
7
6
5
5
5
6
6
6
6
6
5
5
3
2
2
2
3
3
3
3
3
3
1
1
1
1
0
-2
-3
-4
-4
-4
-4
-3
1
3
8
15
22
31
41
51
60
65
67
65
58
52
42
31
20
10
-2
-8
-14
-17
-18
-18
-18
-17
-14
-10
-3
13
41
85
143
221
307
387
440
443
395
298
181
71
-12
-60
-78
-78
-69
-62
-57
-54
-53
-50
-50
-50
-50
-50
-49
-49
-49
-49
-48
-48
-48
-48
-48
-47
-47
-47
-47
-47
-47
-48
-48
-48
-48
-49
-50
-50
-50
-49
-49
-48
-48
-48
-47
-48
-49
-50
-52
-53
-54
-55
-58
-60
-63
-65
-70
-73
-77
-79
-82
-84
-87
-88
-90
-92
-93
-95
-95
-97
-97
-97
-97
-94
-92
-89
-84
-79
-73
-67
-58
-52
-44
-35
-28
-20
-14
-8
-2
2
7
11
16
21
26
30
35
37
41
43
45
46
46
46
46
46
45
43
43
41
40
36
33
30
28
26
25
23
22
21
20
20
18
18
16
16
15
13
13
11
11
10
8
8
7
7
7
6
6
6
6
6
6
6
6
6
6
5
3
3
2
3
2
2
3
3
5
6
10
13
18
26
35
43
53
62
67
71
70
66
58
51
40
27
16
5
-4
-9
-14
-17
-18
-18
-17
-15
-13
-8
3
25
58
111
180
263
348
415
441
416
337
227
110
15
-47
-74
-77
-69
-60
-53
-49
-47
-45
-45
-44
-43
-43
-43
-43
-42
-42
-42
-42
-42
-40
-40
-40
-40
-40
-40
-39
-39
-39
-39
-40
-42
-42
-42
-42
-42
-42
-40
-39
-40
-39
-39
-39
-39
-40
-42
-43
-45
-47
-49
-53
-55
-58
-62
-64
-68
-70
-74
-77
-80
-83
-85
-88
-90
-92
-93
-95
-94
-94
-92
-89
-87
-82
-78
-73
-65
-59
-52
-44
-37
-29
-22
-15
-10
-4
-2
2
7
12
16
21
25
27
31
33
36
37
40
41
41
41
40
40
40
38
38
37
35
32
30
28
27
26
23
21
20
17
17
16
15
15
13
11
10
8
7
7
7
7
6
6
5
3
3
2
2
1
1
1
1
1
1
1
1
1
1
1
1
1
0
-2
-2
-2
-2
-4
-4
-5
-5
-5
-5
-5
-4
-2
1
7
13
23
33
45
55
61
65
65
60
55
45
35
23
12
2
-5
-12
-18
-20
-20
-19
-18
-17
-14
-9
-2
18
48
97
163
243
328
400
435
420
353
248
135
36
-32
-68
-75
-70
-62
-54
-50
-49
-47
-47
-47
-45
-45
-44
-43
-43
-43
-42
-42
-40
-40
-42
-42
-42
-42
-42
-42
-40
-40
-40
-40
-42
-43
-43
-43
-44
-44
-44
-43
-43
-42
-39
-39
-38
-38
-39
-42
-44
-47
-49
-50
-52
-53
-55
-58
-60
-64
-67
-70
-73
-77
-79
-82
-83
-84
-84
-84
-83
-83
-83
-82
-79
-75
-73
-68
-62
-57
-50
-44
-38
-32
-25
-19
-14
-8
-3
0
6
11
16
21
25
28
32
35
37
41
43
45
47
48
48
47
47
45
43
42
41
38
36
33
30
28
26
22
21
20
18
17
17
16
15
12
11
10
7
7
8
8
8
7
6
5
5
3
3
3
3
3
2
2
1
1
1
2
2
2
2
2
1
1
0
-2
-3
-3
-5
-5
-5
-5
-4
-3
0
3
7
15
22
32
43
55
62
68
68
66
58
50
41
30
17
6
-3
-9
-14
-17
-17
-17
-17
-17
-14
-10
-2
16
47
93
157
238
326
402
445
437
378
276
158
52
-23
-63
-77
-75
-67
-59
-55
-53
-52
-52
-50
-50
-49
-49
-47
-47
-47
-45
-45
-45
-45
-44
-44
-44
-44
-44
-43
-44
-44
-44
-43
-44
-44
-43
-44
-44
-44
-43
-44
-43
-43
-42
-43
-44
-45
-47
-48
-49
-50
-54
-57
-59
-62
-64
-68
-72
-75
-79
-83
-87
-89
-92
-94
-95
-98
-100
-100
-100
-100
-98
-97
-94
-90
-88
-84
-79
-73
-68
-62
-53
-45
-38
-30
-23
-15
-8
-2
2
7
12
17
21
25
30
32
36
38
41
42
43
45
45
45
45
43
40
38
37
36
33
31
28
27
23
22
20
18
17
16
17
16
15
15
12
11
10
10
8
7
7
7
6
6
6
5
3
3
3
2
3
3
3
2
2
2
2
2
2
1
1
0
-2
-2
-3
-3
-2
-3
-2
0
1
3
7
11
18
27
37
47
57
65
68
68
65
58
50
41
28
17
7
-3
-9
-12
-14
-15
-15
-14
-13
-10
-7
3
21
53
101
167
247
333
405
440
422
353
247
130
30
-38
-70
-78
-69
-60
-52
-47
-44
-44
-43
-43
-43
-42
-40
-40
-40
-40
-40
-40
-40
-42
-42
-40
-40
-40
-40
-42
-40
-40
-40
-39
-40
-40
-40
-42
-42
-42
-42
-40
-40
-40
-39
-39
-39
-40
-42
-43
-45
-47
-49
-50
-53
-55
-58
-62
-64
-67
-70
-73
-75
-78
-79
-82
-83
-85
-87
-89
-89
-88
-87
-84
-82
-78
-74
-69
-64
-58
-53
-45
-39
-32
-24
-19
-13
-7
0
2
8
13
18
22
26
28
31
32
33
36
37
38
40
40
40
38
38
37
37
35
33
32
31
30
27
26
23
22
20
18
16
15
13
12
11
10
10
8
8
8
6
6
5
3
3
3
2
2
2
1
1
0
1
1
2
2
2
2
2
2
2
2
2
1
1
1
-2
-2
-3
-3
-4
-4
-3
-3
-3
-3
-2
0
6
12
20
30
40
50
58
63
66
63
58
52
43
32
21
10
0
-9
-15
-18
-19
-19
-18
-17
-15
-12
-5
7
30
65
118
188
272
355
417
438
406
325
212
100
7
-49
-73
-77
-69
-62
-55
-53
-53
-52
-52
-49
-48
-48
-47
-44
-44
-44
-45
-44
-45
-45
-45
-44
-44
-42
-43
-43
-44
-44
-45
-45
-43
-43
-42
-42
-42
-40
-42
-42
-43
-43
-43
-44
-43
-44
-45
-47
-48
-50
-52
-54
-57
-59
-62
-64
-67
-69
-72
-74
-78
-82
-84
-88
-89
-89
-90
-90
-90
-90
-88
-87
-84
-80
-77
-73
-68
-63
-57
-50
-43
-37
-29
-22
-14
-8
-2
2
7
10
13
17
20
22
25
28
32
36
38
41
40
40
40
40
40
40
40
37
35
32
31
27
26
23
21
18
16
13
12
12
12
12
11
10
7
5
3
3
3
2
2
1
1
1
1
1
1
1
1
1
1
2
1
1
1
1
1
1
1
0
0
-2
0
0
0
-3
-3
-4
-4
-4
-3
-2
0
3
8
15
23
35
45
52
61
66
67
65
58
50
38
26
13
5
-3
-9
-14
-17
-18
-18
-17
-15
-13
-7
5
26
60
110
176
258
345
416
451
436
367
262
143
41
-29
-68
-78
-75
-67
-60
-55
-53
-52
-52
-50
-48
-47
-47
-45
-44
-43
-42
-42
-40
-40
-38
-38
-38
-38
-38
-38
-38
-38
-37
-37
-37
-37
-37
-38
-38
-37
-38
-37
-38
-37
-37
-38
-38
-39
-40
-42
-45
-48
-49
-52
-54
-57
-59
-63
-67
-70
-74
-78
-82
-84
-88
-92
-94
-98
-99
-99
-100
-99
-99
-99
-99
-98
-94
-89
-84
-78
-69
-63
-54
-47
-37
-29
-24
-17
-9
-3
3
8
15
20
25
28
32
36
38
41
41
42
43
43
43
45
43
43
41
40
37
33
32
30
27
25
23
21
21
18
17
16
15
13
11
10
7
7
6
6
6
6
5
5
3
3
3
3
2
2
2
1
1
1
1
1
1
1
0
0
-2
-3
-3
-3
-3
-3
-2
-2
1
5
10
16
25
35
46
56
62
67
67
63
57
50
40
28
17
7
-2
-8
-13
-15
-17
-17
-17
-15
-13
-9
0
16
45
90
152
233
320
396
438
431
371
267
150
43
-30
-69
-80
-74
-65
-58
-52
-48
-47
-47
-48
-48
-49
-49
-48
-48
-47
-45
-45
-45
-44
-43
-43
-43
-43
-42
-42
-40
-40
-39
-39
-39
-39
-39
-38
-37
-37
-37
-35
-35
-34
-33
-34
-34
-34
-35
-38
-39
-40
-42
-44
-48
-52
-55
-58
-62
-65
-68
-72
-75
-79
-82
-84
-87
-89
-92
-93
-94
-95
-94
-93
-89
-87
-83
-78
-72
-64
-58
-50
-43
-34
-27
-19
-13
-7
-3
2
7
13
18
23
28
32
35
37
38
41
43
45
46
47
46
46
45
43
41
40
37
36
32
31
28
27
25
25
25
25
23
22
21
20
18
17
16
15
15
13
12
12
11
11
11
11
11
11
11
11
10
8
8
7
6
6
6
6
6
6
5
6
6
5
5
5
5
7
12
18
25
33
42
52
61
67
71
71
68
62
53
43
31
20
8
0
-7
-12
-15
-18
-17
-17
-17
-15
-12
-4
10
37
78
140
216
301
376
418
413
356
257
141
36
-37
-77
-87
-82
-72
-64
-59
-57
-55
-55
-53
-53
-53
-53
-52
-52
-52
-52
-50
-50
-52
-52
-52
-52
-52
-50
-49
-48
-48
-48
-49
-49
-49
-49
-49
-50
-49
-49
-48
-49
-49
-48
-49
-49
-48
-48
-49
-50
-52
-53
-54
-55
-58
-59
-62
-64
-68
-73
-77
-79
-82
-83
-84
-85
-87
-87
-89
-89
-89
-89
-89
-88
-83
-79
-75
-68
-62
-53
-47
-39
-33
-27
-20
-14
-9
-3
2
8
13
17
21
23
26
26
27
30
31
32
32
32
32
31
31
31
31
28
27
26
23
22
20
18
16
15
13
15
13
12
11
10
8
7
7
6
5
5
5
5
5
5
5
5
3
3
3
3
3
3
3
3
3
3
3
3
3
2
1
1
0
0
0
-2
-2
-2
-2
0
2
3
7
13
21
30
40
51
60
65
66
65
58
51
41
31
21
10
1
-5
-12
-15
-15
-15
-14
-12
-10
-5
0
16
42
83
142
216
301
380
432
438
393
301
188
78
-4
-53
-70
-72
-65
-57
-50
-47
-45
-44
-44
-44
-44
-44
-45
-45
-45
-44
-43
-40
-39
-39
-39
-40
-42
-42
-43
-43
-42
-40
-40
-39
-40
-40
-40
-40
-38
-38
-38
-38
-39
-40
-40
-42
-42
-43
-43
-44
-44
-47
-49
-53
-57
-60
-63
-67
-69
-70
-73
-75
-78
-80
-83
-84
-88
-88
-90
-89
-90
-90
-89
-89
-85
-80
-77
-70
-64
-59
-52
-45
-39
-32
-24
-18
-10
-3
2
8
13
17
21
25
28
32
36
40
41
42
43
45
45
46
45
45
42
41
38
35
31
30
27
25
23
21
20
18
17
16
16
15
15
15
15
13
12
11
10
10
8
8
7
7
6
6
6
6
6
5
5
5
5
5
5
3
2
1
0
0
-2
-2
-2
-2
-2
0
1
5
10
17
26
36
46
56
63
67
67
65
57
48
40
28
17
6
-3
-8
-13
-15
-17
-17
-15
-13
-12
-7
3
20
51
96
161
240
326
400
441
431
367
265
148
42
-30
-69
-78
-74
-65
-57
-52
-49
-48
-47
-47
-45
-45
-44
-45
-44
-44
-44
-43
-43
-43
-43
-44
-43
-43
-43
-43
-43
-43
-43
-43
-43
-43
-43
-43
-44
-44
-44
-45
-44
-45
-44
-43
-44
-44
-45
-47
-49
-50
-53
-55
-58
-60
-63
-65
-68
-70
-73
-77
-79
-82
-85
-89
-92
-94
-97
-97
-97
-95
-95
-93
-89
-87
-82
-77
-72
-64
-58
-50
-43
-34
-27
-19
-12
-5
1
5
8
13
18
22
27
31
35
37
40
42
45
46
45
46
43
42
40
40
37
35
33
32
30
27
26
23
22
20
20
18
17
17
16
15
13
12
12
11
10
8
8
8
8
8
7
7
7
7
7
7
6
5
5
3
1
1
0
0
0
0
1
3
6
11
17
25
35
45
55
63
70
72
71
66
58
50
38
27
15
5
-3
-9
-13
-15
-15
-15
-15
-14
-12
-5
6
26
62
112
182
265
347
411
432
401
321
208
95
3
-53
-77
-78
-70
-59
-53
-49
-47
-45
-45
-44
-44
-43
-43
-42
-42
-42
-42
-42
-42
-40
-40
-40
-40
-42
-42
-40
-42
-42
-42
-43
-43
-43
-43
-44
-44
-43
-43
-42
-43
-42
-42
-42
-43
-44
-45
-47
-48
-49
-50
-53
-55
-58
-60
-64
-67
-70
-73
-75
-79
-82
-84
-85
-88
-89
-92
-92
-92
-92
-90
-89
-87
-82
-78
-72
-65
-59
-52
-45
-37
-29
-22
-15
-8
-2
3
7
12
16
18
22
25
27
31
33
36
37
38
38
40
38
40
40
38
37
35
32
31
28
26
25
25
23
21
20
18
17
15
13
13
12
11
8
8
7
7
6
6
6
6
6
5
5
3
3
2
1
1
1
1
1
0
0
-2
-2
-2
-3
-2
-3
-4
-4
-4
-4
-4
-2
2
7
15
23
33
45
55
61
65
63
60
52
43
33
22
11
0
-7
-13
-18
-19
-20
-19
-18
-15
-13
-8
1
20
51
98
165
243
328
400
433
417
350
246
131
32
-35
-70
-79
-74
-67
-59
-54
-52
-49
-48
-47
-47
-47
-47
-48
-48
-48
-47
-45
-43
-40
-40
-40
-39
-39
-39
-39
-39
-40
-40
-40
-40
-40
-39
-39
-38
-38
-39
-39
-39
-42
-42
-42
-40
-40
-40
-42
-44
-45
-48
-49
-52
-54
-57
-59
-62
-64
-65
-68
-70
-73
-75
-78
-82
-83
-85
-84
-83
-83
-83
-82
-80
-78
-74
-69
-63
-58
-50
-43
-34
-25
-19
-13
-7
-3
1
5
8
13
18
23
27
32
36
38
41
43
45
47
46
47
47
46
45
42
41
38
35
32
30
28
27
25
23
22
20
18
17
17
16
15
13
13
13
13
13
12
12
11
10
8
7
6
5
5
6
6
5
5
3
3
2
1
1
0
0
-2
-2
-2
-3
-2
-2
0
1
5
8
15
23
33
45
56
65
71
72
68
62
52
42
30
17
5
-4
-10
-15
-19
-20
-19
-18
-17
-14
-10
-4
12
38
80
138
215
301
378
428
433
383
290
173
63
-17
-64
-82
-79
-72
-62
-57
-53
-52
-50
-49
-49
-49
-48
-47
-47
-45
-45
-44
-44
-44
-44
-45
-44
-44
-44
-44
-44
-44
-45
-44
-44
-45
-45
-45
-45
-45
-44
-45
-44
-44
-44
-45
-45
-45
-47
-48
-49
-52
-54
-57
-59
-62
-64
-67
-69
-73
-77
-79
-83
-87
-90
-93
-95
-98
-100
-100
-103
-102
-100
-99
-97
-93
-88
-83
-78
-72
-65
-57
-49
-40
-33
-25
-18
-10
-5
1
6
11
16
21
25
30
33
37
40
41
43
45
46
45
43
42
41
40
38
37
36
35
33
32
30
28
27
25
25
22
22
20
20
18
17
16
16
15
15
15
13
13
12
12
11
11
10
8
7
7
6
5
3
2
2
2
1
2
2
3
5
8
12
18
26
35
45
53
62
68
70
68
65
57
48
37
26
15
3
-5
-10
-14
-15
-15
-15
-14
-13
-10
-5
7
30
65
116
186
267
348
410
431
398
320
207
95
3
-54
-79
-80
-72
-63
-55
-50
-48
-45
-44
-43
-43
-43
-42
-43
-43
-44
-45
-45
-45
-44
-43
-43
-42
-43
-44
-44
-45
-44
-43
-42
-40
-40
-42
-43
-43
-43
-44
-43
-44
-45
-44
-44
-43
-43
-43
-44
-45
-48
-49
-52
-54
-57
-60
-63
-67
-69
-70
-73
-74
-75
-77
-78
-80
-82
-82
-82
-82
-80
-82
-82
-80
-78
-73
-67
-58
-49
-40
-34
-27
-20
-15
-10
-7
-3
0
5
10
13
17
20
23
26
28
32
35
36
37
38
40
41
42
41
37
33
28
26
25
23
23
25
23
23
21
18
17
16
13
12
10
8
7
6
7
6
6
6
6
5
3
5
3
5
5
5
5
3
3
3
5
3
3
3
3
2
2
1
1
1
1
1
2
2
3
7
11
17
25
33
45
56
67
77
82
82
78
70
60
48
36
25
13
5
-3
-8
-10
-9
-9
-9
-8
-7
-2
8
28
61
107
171
252
337
412
452
442
381
276
158
52
-23
-63
-77
-74
-67
-60
-55
-54
-53
-52
-50
-49
-50
-50
-50
-52
-52
-49
-49
-49
-49
-47
-47
-47
-47
-48
-47
-47
-47
-47
-48
-47
-47
-47
-48
-47
-48
-49
-49
-50
-50
-52
-52
-52
-52
-52
-54
-57
-59
-60
-63
-65
-68
-72
-74
-78
-80
-85
-88
-92
-94
-97
-98
-99
-100
-100
-102
-103
-103
-102
-100
-98
-95
-92
-87
-80
-74
-68
-60
-52
-44
-37
-29
-23
-15
-9
-3
3
8
15
20
25
30
33
37
40
42
43
46
47
47
47
47
46
45
42
41
38
37
36
35
33
33
31
30
27
27
26
23
22
21
18
17
16
15
13
12
11
10
7
6
5
5
3
3
2
1
-2
-4
-7
-9
-12
-13
-12
-8
-2
3
8
12
13
12
8
6
3
5
11
26
52
96
157
233
318
396
445
445
390
292
172
63
-17
-60
-74
-68
-59
-49
-44
-40
-39
-38
-37
-37
-35
-35
-34
-34
-34
-35
-34
-34
-34
-33
-33
-33
-33
-33
-33
-33
-33
-33
-33
-33
-33
-34
-34
-35
-35
-35
-37
-35
-37
-35
-35
-35
-35
-37
-38
-40
-43
-47
-49
-53
-55
-59
-63
-67
-70
-74
-77
-80
-83
-85
-87
-88
-90
-90
-89
-88
-87
-84
-80
-75
-69
-63
-55
-48
-39
-32
-23
-17
-9
-3
2
6
8
12
13
16
18
20
22
23
25
26
28
31
31
32
33
35
35
35
33
32
32
31
30
27
26
25
22
21
20
18
17
16
16
16
15
13
12
12
11
10
8
7
5
5
2
2
1
0
0
-2
-2
-2
-2
-3
-3
-3
-3
-3
-4
-5
-4
-4
-4
-4
-4
-4
-4
-4
-4
-5
-5
-5
-4
-4
-4
-4
-4
-3
-3
-3
-3
-4
-4
-5
-5
-5
-5
-5
-5
-4
-4
-3
0
2
7
13
21
31
41
50
58
63
66
65
61
53
43
32
21
10
-2
-8
-13
-17
-18
-18
-17
-15
-14
-10
-4
10
33
72
128
203
288
370
425
436
391
302
187
75
-9
-59
-78
-75
-68
-58
-53
-49
-48
-48
-47
-45
-45
-44
-44
-44
-45
-45
-45
-45
-47
-47
-47
-45
-45
-47
-47
-47
-47
-47
-48
-48
-48
-49
-49
-49
-49
-49
-48
-48
-48
-47
-47
-47
-47
-47
-47
-48
-48
-50
-52
-53
-54
-55
-58
-59
-60
-63
-64
-67
-68
-70
-72
-72
-74
-74
-74
-74
-74
-73
-73
-72
-70
-69
-65
-63
-59
-54
-49
-42
-34
-25
-19
-12
-5
-2
2
8
15
21
26
30
35
37
40
41
42
43
45
46
46
47
46
45
43
42
41
38
37
33
30
26
23
21
18
17
16
16
13
13
12
10
8
7
6
5
5
3
2
2
2
1
1
1
1
0
0
-2
-2
-2
-2
0
0
0
0
0
0
-2
-2
-3
-3
-4
-4
-4
-5
-5
-5
-4
-3
-2
2
7
15
23
33
45
53
61
65
65
61
53
45
35
23
11
0
-7
-13
-17
-19
-19
-17
-17
-15
-13
-8
0
20
52
101
166
247
331
401
436
421
352
248
132
33
-33
-68
-74
-70
-62
-54
-52
-50
-49
-48
-47
-45
-44
-44
-44
-44
-43
-44
-44
-44
-45
-44
-44
-44
-43
-43
-43
-43
-42
-42
-42
-42
-43
-44
-44
-44
-44
-45
-44
-45
-44
-44
-43
-43
-44
-45
-47
-49
-52
-54
-55
-58
-60
-64
-68
-73
-77
-80
-83
-85
-89
-92
-94
-95
-98
-99
-99
-100
-100
-100
-99
-97
-94
-88
-80
-74
-68
-59
-53
-44
-38
-30
-23
-17
-9
-4
1
6
11
16
22
27
31
35
37
40
41
42
43
45
45
45
45
45
42
40
37
36
33
31
31
28
27
25
25
22
22
22
21
21
21
21
20
18
17
15
12
12
12
12
12
12
11
11
10
8
8
8
8
7
8
8
8
8
6
6
3
1
1
0
0
1
1
3
6
10
13
20
28
38
50
61
70
76
77
75
67
57
46
33
22
11
3
-3
-8
-12
-12
-12
-12
-10
-8
-4
3
18
47
88
148
226
312
391
442
447
398
305
187
77
-5
-55
-74
-75
-68
-60
-57
-53
-52
-52
-52
-50
-49
-49
-48
-48
-45
-44
-44
-44
-43
-44
-45
-45
-44
-44
-44
-44
-44
-43
-43
-43
-44
-43
-44
-45
-47
-47
-48
-48
-47
-47
-48
-48
-49
-49
-50
-53
-55
-58
-59
-62
-64
-67
-69
-73
-75
-78
-82
-84
-87
-90
-93
-95
-97
-98
-99
-99
-99
-99
-99
-97
-94
-90
-85
-79
-73
-67
-58
-50
-43
-37
-29
-23
-17
-10
-4
2
8
15
18
23
28
32
35
36
40
42
43
45
46
45
43
42
40
37
36
33
31
28
27
25
23
21
21
18
17
16
16
15
13
13
12
11
10
10
10
10
10
10
10
8
8
7
6
5
3
2
2
2
2
1
0
-2
-3
-4
-7
-7
-7
-8
-8
-7
-5
-3
0
3
7
15
23
35
45
53
58
61
57
52
45
36
25
13
3
-7
-14
-19
-20
-22
-20
-19
-18
-17
-14
-8
5
30
68
127
202
288
371
427
437
392
302
186
76
-8
-60
-79
-79
-72
-64
-58
-54
-53
-52
-50
-49
-50
-52
-53
-52
-50
-48
-45
-44
-43
-43
-43
-43
-40
-39
-40
-40
-42
-43
-43
-42
-40
-40
-39
-40
-40
-42
-43
-40
-40
-38
-38
-37
-37
-37
-38
-39
-43
-45
-47
-48
-50
-53
-55
-58
-59
-62
-63
-64
-68
-73
-77
-79
-82
-84
-85
-85
-85
-85
-84
-83
-79
-77
-72
-67
-59
-53
-44
-37
-29
-20
-14
-8
-4
0
3
8
11
15
18
22
26
28
32
35
36
37
37
37
37
37
36
36
35
32
30
28
26
23
22
21
20
17
16
13
12
11
11
11
10
10
10
8
7
6
6
5
2
1
0
1
1
1
1
1
1
1
0
0
-2
-3
-3
-3
-3
-4
-4
-4
-5
-5
-5
-5
-4
-3
1
6
12
20
30
41
51
61
66
70
68
63
56
46
35
23
12
2
-4
-9
-13
-14
-14
-13
-12
-10
-8
-2
10
33
72
128
205
293
382
447
467
431
343
222
103
7
-50
-75
-77
-68
-58
-52
-48
-47
-45
-45
-45
-45
-44
-44
-43
-42
-42
-42
-42
-43
-42
-42
-42
-42
-42
-42
-42
-42
-43
-44
-44
-45
-47
-45
-45
-45
-45
-44
-44
-44
-43
-44
-43
-43
-44
-44
-45
-49
-50
-53
-55
-57
-58
-62
-64
-67
-69
-74
-77
-82
-84
-88
-90
-93
-94
-94
-95
-94
-94
-92
-90
-88
-84
-79
-74
-68
-62
-53
-47
-38
-30
-23
-15
-8
-2
3
10
15
20
25
28
33
37
41
42
46
46
47
47
46
45
45
45
42
40
38
36
33
32
31
30
27
27
26
25
22
21
20
17
17
17
16
15
13
12
11
11
10
8
8
8
8
8
7
6
6
6
6
5
5
5
3
3
3
6
8
13
20
27
37
47
56
65
71
72
71
65
57
46
35
22
11
2
-5
-12
-15
-18
-17
-17
-15
-14
-12
-7
3
25
58
111
182
267
352
417
438
407
326
211
95
1
-57
-82
-84
-74
-65
-58
-54
-53
-52
-52
-50
-50
-49
-48
-48
-48
-48
-48
-48
-47
-47
-47
-45
-45
-45
-45
-44
-45
-45
-47
-47
-47
-48
-47
-47
-48
-48
-47
-45
-45
-44
-45
-44
-45
-45
-47
-48
-50
-53
-54
-57
-59
-62
-64
-68
-70
-74
-77
-80
-84
-87
-89
-90
-93
-94
-94
-95
-94
-94
-93
-92
-89
-85
-80
-74
-69
-62
-54
-47
-38
-29
-22
-14
-8
-2
3
7
12
17
21
25
28
30
32
35
37
38
40
41
41
40
40
40
37
36
33
32
31
28
25
22
21
20
18
17
17
15
15
13
12
12
12
12
10
10
8
8
7
7
7
7
7
7
7
7
7
6
6
6
6
6
6
5
5
3
3
2
1
1
1
1
1
1
2
5
8
13
20
27
37
47
57
65
70
71
68
62
53
42
31
21
11
1
-7
-10
-13
-13
-12
-10
-9
-8
-5
3
17
45
86
147
222
307
382
427
425
368
271
155
50
-24
-67
-78
-72
-63
-55
-50
-48
-47
-47
-44
-44
-44
-44
-43
-43
-42
-42
-42
-42
-42
-43
-42
-42
-42
-42
-42
-43
-43
-43
-43
-43
-44
-44
-45
-45
-45
-47
-47
-47
-45
-45
-44
-45
-45
-47
-47
-48
-48
-49
-50
-53
-54
-57
-59
-62
-65
-68
-69
-72
-73
-75
-78
-80
-82
-83
-84
-85
-87
-85
-84
-83
-80
-77
-72
-67
-62
-54
-48
-42
-35
-28
-19
-13
-7
0
3
8
13
18
23
27
31
35
37
38
41
42
45
46
46
45
43
41
38
36
33
31
28
25
23
22
20
18
18
16
15
12
12
11
11
10
8
7
6
5
3
3
2
2
1
1
2
2
3
3
2
1
1
1
2
2
3
3
3
1
-2
-3
-4
-4
-5
-4
-3
1
6
11
18
26
35
45
55
62
67
68
66
60
52
42
31
20
10
-2
-9
-14
-18
-17
-17
-15
-14
-13
-9
-3
13
40
82
141
216
300
377
427
432
385
292
178
70
-12
-59
-74
-74
-64
-57
-52
-48
-47
-45
-44
-43
-42
-42
-42
-43
-42
-42
-42
-40
-40
-39
-39
-38
-37
-37
-37
-37
-38
-39
-42
-42
-40
-39
-38
-38
-38
-40
-42
-42
-40
-42
-40
-42
-40
-42
-43
-44
-47
-48
-50
-54
-57
-60
-64
-68
-72
-75
-79
-82
-85
-87
-88
-90
-94
-97
-98
-100
-100
-99
-98
-94
-92
-87
-82
-77
-70
-63
-55
-49
-40
-33
-25
-19
-13
-7
0
3
10
15
21
25
30
32
36
38
41
41
42
41
42
42
41
41
38
36
33
32
30
28
27
26
25
22
21
21
18
20
18
18
17
16
13
12
11
10
10
8
7
6
6
6
6
6
6
6
6
6
6
5
3
2
1
0
0
-2
-2
-2
0
1
3
6
11
18
25
35
46
56
65
70
70
66
60
51
41
30
18
7
-3
-9
-15
-17
-17
-17
-15
-14
-12
-8
-2
16
43
88
151
228
315
391
435
430
372
272
156
50
-25
-67
-79
-77
-68
-59
-53
-50
-48
-47
-45
-45
-44
-43
-43
-42
-42
-40
-40
-40
-40
-42
-42
-42
-42
-42
-42
-42
-42
-42
-42
-43
-43
-43
-43
-42
-42
-42
-40
-40
-40
-40
-40
-42
-42
-43
-45
-47
-49
-50
-53
-55
-58
-60
-64
-67
-70
-73
-78
-80
-84
-87
-89
-92
-94
-95
-97
-97
-95
-94
-92
-89
-87
-83
-78
-72
-65
-59
-53
-45
-38
-30
-24
-17
-10
-4
1
6
11
16
21
26
30
33
36
40
42
43
43
43
43
42
40
38
37
36
35
33
31
28
26
25
22
22
21
20
20
21
18
18
17
16
15
13
13
12
11
11
11
10
10
10
8
8
7
6
6
5
3
2
2
0
0
0
1
1
2
5
8
15
22
31
41
51
60
67
72
73
71
65
57
47
36
25
13
3
-4
-9
-12
-14
-13
-13
-12
-10
-7
0
15
40
81
138
215
298
377
426
430
378
282
166
57
-22
-67
-79
-74
-63
-54
-49
-45
-44
-43
-42
-42
-42
-42
-40
-40
-42
-42
-42
-40
-42
-42
-42
-42
-42
-42
-42
-42
-43
-43
-44
-44
-45
-44
-44
-45
-45
-45
-45
-44
-45
-44
-45
-44
-45
-47
-48
-49
-50
-53
-54
-57
-59
-62
-64
-67
-69
-73
-77
-79
-83
-85
-87
-89
-92
-94
-94
-95
-97
-97
-94
-92
-87
-83
-78
-72
-67
-60
-52
-44
-35
-28
-20
-13
-5
1
5
8
13
17
22
26
28
32
35
36
37
38
40
41
40
38
38
37
36
35
32
28
27
26
25
23
23
22
21
21
18
18
16
16
15
13
12
11
10
10
10
10
8
8
7
7
7
7
7
7
7
7
7
6
5
3
1
1
0
1
0
1
1
1
2
3
7
11
17
25
33
43
53
61
67
68
67
62
55
45
33
21
11
1
-5
-12
-14
-17
-17
-17
-15
-14
-10
-5
10
33
72
127
200
282
362
420
432
393
308
195
83
-4
-57
-79
-78
-70
-59
-53
-49
-48
-47
-45
-44
-44
-44
-44
-43
-44
-43
-43
-42
-42
-42
-43
-44
-44
-44
-44
-43
-43
-44
-44
-44
-44
-44
-44
-43
-43
-43
-42
-42
-42
-43
-43
-44
-44
-45
-47
-47
-47
-47
-48
-50
-53
-55
-59
-62
-65
-68
-72
-75
-79
-83
-84
-85
-89
-89
-92
-92
-93
-92
-90
-88
-85
-80
-75
-70
-64
-58
-50
-44
-35
-29
-23
-15
-9
-3
2
5
10
15
20
25
30
33
37
38
40
41
43
45
46
45
45
45
43
41
40
35
31
27
23
22
21
21
22
21
20
18
17
15
15
15
13
12
10
8
7
6
6
7
6
6
5
3
2
2
3
3
5
3
3
2
1
1
0
0
0
0
0
1
2
2
3
6
11
17
27
38
51
62
71
76
75
70
62
52
42
31
18
8
1
-5
-10
-13
-14
-14
-13
-12
-10
-5
3
22
55
101
167
247
333
408
448
440
380
276
158
52
-22
-63
-77
-73
-67
-58
-53
-50
-49
-48
-48
-47
-45
-45
-45
-45
-44
-44
-44
-43
-43
-42
-42
-43
-43
-43
-43
-43
-44
-44
-45
-47
-45
-45
-45
-45
-47
-47
-48
-48
-48
-48
-48
-49
-49
-50
-53
-54
-57
-59
-62
-64
-67
-69
-73
-75
-79
-83
-88
-93
-95
-99
-103
-105
-108
-110
-112
-112
-112
-109
-107
-104
-100
-95
-90
-84
-78
-70
-63
-55
-47
-38
-30
-23
-15
-8
-2
3
10
13
18
22
27
30
33
35
37
40
40
40
38
38
36
35
32
31
31
30
27
26
25
23
22
21
21
20
20
18
18
17
16
15
13
13
12
12
11
11
10
8
8
8
8
8
8
8
6
6
5
5
2
2
2
2
2
3
3
6
8
12
18
26
35
46
56
63
71
73
73
68
62
52
41
30
18
8
0
-5
-8
-10
-12
-10
-10
-8
-7
-3
8
28
61
110
177
260
343
412
441
418
343
232
116
18
-45
-74
-78
-70
-60
-53
-48
-45
-43
-42
-40
-40
-40
-39
-39
-39
-39
-38
-39
-39
-40
-40
-42
-42
-42
-42
-42
-42
-43
-43
-44
-44
-44
-45
-45
-45
-45
-45
-45
-44
-45
-44
-44
-44
-45
-45
-47
-48
-50
-52
-54
-57
-59
-62
-64
-67
-70
-72
-74
-77
-80
-83
-85
-88
-90
-93
-94
-94
-94
-92
-89
-87
-83
-78
-72
-65
-59
-53
-44
-37
-29
-23
-15
-9
-3
2
7
12
17
21
26
30
33
36
38
41
41
42
42
42
41
40
38
37
35
32
31
28
27
25
23
22
21
21
20
20
18
18
17
16
16
15
12
12
11
10
10
10
10
10
8
8
8
8
8
8
8
7
7
7
6
5
3
2
2
2
1
1
2
3
7
11
17
25
35
45
55
63
70
72
71
66
58
50
38
28
17
6
-3
-9
-12
-14
-14
-13
-13
-12
-9
-4
7
30
63
116
185
267
350
412
432
400
318
206
93
2
-53
-77
-77
-68
-59
-50
-47
-45
-44
-44
-43
-43
-43
-43
-42
-42
-40
-40
-39
-39
-39
-39
-39
-40
-40
-40
-42
-42
-43
-43
-43
-43
-43
-44
-44
-43
-44
-44
-44
-43
-44
-44
-44
-44
-45
-47
-48
-49
-52
-54
-55
-59
-62
-64
-67
-69
-72
-75
-78
-80
-84
-85
-89
-90
-92
-93
-93
-93
-94
-93
-90
-89
-85
-82
-77
-72
-64
-57
-49
-42
-33
-25
-18
-12
-7
1
6
11
17
22
26
30
33
36
37
38
40
40
41
41
42
42
41
41
41
38
35
32
28
25
22
21
20
20
18
18
17
17
15
15
13
13
11
10
8
8
7
7
8
7
7
6
6
5
3
5
5
5
5
5
5
6
6
3
1
0
-2
-2
-2
-2
0
0
1
3
7
12
21
30
41
51
61
67
70
67
62
55
46
36
26
16
5
-4
-10
-15
-18
-19
-19
-17
-14
-10
-5
6
28
62
112
180
260
343
408
435
410
336
228
115
20
-43
-74
-79
-75
-67
-60
-57
-53
-50
-48
-47
-45
-45
-44
-44
-44
-45
-45
-45
-44
-43
-42
-42
-42
-43
-42
-43
-43
-43
-43
-43
-44
-44
-44
-44
-43
-43
-42
-42
-40
-42
-42
-43
-43
-44
-45
-47
-49
-52
-54
-55
-55
-57
-58
-60
-64
-69
-73
-77
-80
-84
-87
-89
-92
-93
-94
-95
-97
-97
-95
-95
-93
-89
-85
-80
-75
-70
-63
-55
-47
-38
-29
-22
-14
-8
-2
3
7
12
17
23
30
35
38
41
42
43
45
47
47
48
48
47
45
42
40
36
33
32
30
27
26
25
22
21
20
18
18
17
18
18
17
16
13
11
10
10
8
10
10
8
8
10
10
10
11
11
11
11
11
10
7
6
3
3
2
2
2
2
3
3
5
7
11
16
23
33
45
56
65
71
73
72
68
60
50
38
26
16
5
-3
-8
-12
-14
-14
-14
-13
-10
-9
-2
11
33
70
123
193
277
361
428
456
430
353
242
126
28
-38
-70
-77
-72
-65
-60
-57
-55
-54
-52
-50
-50
-50
-50
-49
-49
-48
-47
-44
-44
-44
-45
-44
-45
-45
-45
-45
-43
-43
-43
-44
-44
-45
-45
-47
-48
-48
-48
-47
-45
-45
-45
-45
-47
-47
-48
-49
-52
-54
-58
-60
-65
-69
-73
-77
-79
-83
-85
-89
-94
-98
-102
-104
-107
-108
-110
-110
-112
-110
-108
-107
-103
-99
-94
-89
-84
-78
-70
-63
-54
-45
-38
-29
-22
-14
-8
-2
5
11
13
18
23
27
30
33
36
36
38
40
40
40
38
37
35
33
31
30
28
26
23
21
20
20
18
17
17
16
16
15
15
16
16
16
15
15
15
13
13
12
12
12
11
11
10
10
10
8
8
7
7
6
5
5
5
5
5
5
6
7
11
16
22
31
41
52
62
70
73
73
71
65
56
46
36
26
15
6
-2
-5
-9
-10
-9
-9
-8
-8
-4
3
20
46
87
150
230
320
403
457
461
408
308
183
70
-15
-64
-78
-75
-67
-58
-53
-50
-49
-49
-49
-48
-48
-47
-45
-45
-45
-45
-45
-45
-44
-44
-44
-43
-43
-42
-40
-40
-42
-42
-43
-44
-45
-45
-47
-45
-47
-47
-47
-47
-45
-45
-45
-45
-45
-45
-47
-47
-49
-50
-53
-57
-59
-63
-65
-69
-72
-75
-79
-82
-85
-89
-92
-95
-98
-99
-100
-100
-99
-98
-97
-94
-90
-87
-82
-75
-69
-60
-52
-44
-35
-28
-20
-12
-4
3
8
15
20
25
30
33
37
40
43
45
46
47
47
46
45
45
42
41
38
37
35
32
31
28
27
25
22
21
20
18
18
18
17
17
16
15
13
12
11
10
10
10
8
8
8
8
8
8
6
6
5
3
1
1
1
1
1
1
2
3
5
7
12
20
27
36
46
55
61
65
65
61
55
46
37
26
16
6
-4
-12
-15
-19
-20
-20
-19
-18
-15
-10
0
15
45
91
155
235
322
396
433
422
356
250
130
26
-44
-79
-87
-79
-69
-60
-54
-52
-50
-49
-48
-48
-48
-48
-47
-47
-47
-48
-48
-48
-47
-47
-47
-47
-47
-45
-45
-44
-44
-45
-45
-47
-47
-47
-48
-47
-48
-48
-48
-48
-48
-47
-47
-47
-48
-49
-50
-52
-53
-55
-57
-59
-63
-65
-68
-70
-74
-77
-79
-84
-87
-89
-90
-93
-95
-95
-97
-98
-98
-95
-94
-90
-87
-83
-79
-74
-67
-59
-52
-43
-35
-27
-19
-12
-4
3
11
15
21
26
31
35
38
42
43
46
47
46
46
46
45
43
42
40
38
36
33
31
30
27
26
25
22
21
21
18
18
17
17
16
15
13
12
12
10
10
10
10
11
11
11
10
8
7
7
7
7
7
7
7
6
6
5
5
3
3
2
2
2
2
3
5
8
13
21
30
40
48
57
65
68
68
65
58
48
37
26
15
3
-4
-9
-14
-18
-19
-19
-19
-17
-14
-9
0
17
47
93
156
235
318
387
422
408
343
240
126
26
-42
-77
-85
-79
-70
-62
-58
-55
-54
-53
-52
-50
-50
-49
-48
-48
-48
-48
-48
-48
-48
-48
-48
-48
-48
-48
-48
-47
-47
-47
-45
-45
-45
-45
-45
-45
-45
-45
-45
-45
-44
-45
-44
-45
-47
-48
-49
-50
-52
-53
-54
-57
-59
-60
-64
-67
-69
-72
-75
-78
-80
-83
-84
-87
-87
-89
-92
-94
-94
-93
-92
-88
-84
-80
-74
-69
-63
-55
-50
-44
-37
-29
-20
-13
-5
0
5
10
16
23
30
36
38
41
42
43
45
46
47
48
48
47
46
43
42
40
37
33
32
31
30
28
27
26
25
23
22
21
18
18
17
17
16
16
15
13
12
12
12
11
10
10
10
8
8
8
8
8
7
8
8
7
6
6
3
3
2
2
2
2
5
8
13
18
26
35
45
55
65
71
75
73
68
61
51
41
31
20
8
0
-5
-10
-14
-15
-15
-14
-13
-10
-4
7
27
61
111
178
260
345
413
446
427
357
251
132
32
-35
-69
-78
-73
-64
-58
-53
-50
-49
-49
-48
-48
-48
-48
-48
-48
-49
-49
-47
-45
-45
-44
-44
-44
-44
-44
-44
-43
-43
-43
-43
-43
-44
-45
-47
-47
-48
-47
-47
-45
-45
-47
-47
-48
-48
-49
-50
-53
-55
-58
-60
-64
-67
-70
-74
-78
-82
-85
-88
-92
-94
-98
-100
-103
-107
-108
-109
-109
-108
-107
-104
-100
-97
-93
-88
-82
-75
-68
-62
-54
-45
-38
-29
-20
-13
-5
2
6
11
17
22
27
31
35
37
38
41
41
42
42
41
41
38
37
36
35
35
33
31
30
28
27
26
26
25
22
22
22
21
20
18
17
17
16
16
15
13
12
11
11
11
10
10
10
10
8
8
7
7
5
3
3
3
3
3
6
7
10
12
16
22
31
41
51
61
70
73
73
71
65
56
46
36
23
13
3
-4
-9
-13
-14
-14
-13
-12
-9
-7
2
16
42
82
141
216
302
381
431
436
386
291
175
65
-17
-62
-77
-74
-65
-55
-49
-47
-45
-44
-43
-43
-40
-40
-40
-40
-40
-42
-42
-40
-40
-40
-40
-40
-40
-40
-40
-40
-39
-39
-40
-40
-42
-43
-43
-44
-44
-44
-44
-44
-44
-44
-43
-44
-45
-47
-48
-49
-50
-53
-55
-58
-60
-63
-64
-68
-72
-77
-79
-83
-87
-90
-92
-94
-95
-98
-98
-99
-99
-99
-97
-94
-90
-87
-80
-75
-68
-62
-54
-45
-38
-30
-20
-13
-7
-2
5
12
17
23
28
32
36
38
40
42
43
45
43
45
43
43
42
40
37
36
33
31
30
27
26
25
23
22
22
21
20
20
17
17
16
15
15
13
12
12
11
11
10
10
10
8
8
8
7
7
7
6
5
5
3
2
2
2
1
2
2
3
6
8
12
17
23
31
41
51
61
67
71
71
67
61
52
42
30
20
8
0
-8
-12
-14
-14
-14
-13
-12
-9
-5
3
21
50
95
157
237
321
393
432
421
356
253
136
35
-34
-69
-78
-70
-62
-53
-48
-45
-44
-43
-43
-42
-42
-40
-42
-42
-43
-43
-42
-42
-42
-40
-39
-39
-37
-38
-38
-39
-42
-43
-43
-43
-43
-43
-43
-43
-43
-43
-43
-43
-43
-43
-43
-44
-45
-45
-47
-49
-52
-53
-55
-58
-59
-63
-65
-68
-72
-74
-78
-80
-83
-85
-87
-89
-90
-93
-94
-95
-95
-97
-94
-93
-90
-85
-80
-73
-67
-59
-50
-43
-35
-28
-22
-15
-9
-4
1
7
13
20
26
30
35
37
41
42
43
42
42
41
41
38
37
36
35
32
30
28
26
25
22
21
18
17
17
16
16
15
13
13
13
12
11
10
8
6
5
5
6
6
8
8
8
8
8
7
7
6
5
2
2
1
1
1
0
0
0
0
0
0
1
2
6
11
17
27
37
50
60
67
71
71
67
60
51
41
30
18
8
0
-8
-10
-14
-15
-17
-17
-15
-13
-8
1
20
50
92
151
227
311
390
440
442
393
300
183
75
-8
-54
-72
-72
-64
-57
-52
-49
-48
-47
-47
-47
-45
-45
-44
-44
-44
-44
-44
-43
-42
-40
-39
-38
-38
-39
-39
-40
-42
-42
-42
-42
-43
-43
-40
-40
-39
-39
-39
-42
-42
-42
-42
-40
-40
-43
-45
-48
-50
-53
-54
-57
-58
-60
-63
-65
-69
-73
-78
-82
-85
-89
-92
-93
-94
-95
-95
-97
-97
-95
-94
-93
-90
-88
-83
-78
-73
-64
-58
-49
-43
-35
-28
-20
-13
-7
0
6
11
16
21
26
31
35
36
38
41
42
43
43
43
42
41
40
37
36
33
33
32
30
28
27
25
22
20
20
18
18
17
17
16
16
15
15
13
12
12
11
10
8
8
8
8
8
8
8
7
7
6
5
3
2
2
1
1
0
-2
-2
-2
1
3
6
11
17
25
35
45
55
62
67
68
66
60
51
42
32
20
8
-2
-9
-13
-15
-15
-15
-14
-13
-12
-8
0
16
43
88
151
231
320
401
452
453
398
297
176
63
-19
-65
-79
-77
-67
-58
-53
-49
-48
-47
-47
-47
-47
-47
-45
-45
-44
-44
-43
-43
-40
-40
-40
-40
-40
-40
-42
-42
-40
-42
-42
-43
-43
-44
-44
-44
-45
-44
-44
-44
-44
-44
-44
-45
-45
-47
-49
-50
-53
-55
-57
-59
-62
-64
-68
-70
-75
-79
-83
-87
-90
-94
-97
-99
-100
-102
-103
-103
-103
-102
-99
-98
-95
-92
-87
-82
-73
-65
-57
-49
-39
-32
-24
-15
-8
-2
5
11
15
20
25
30
35
38
41
43
45
46
46
46
45
43
43
42
41
37
36
33
32
31
30
28
27
25
25
23
23
22
22
22
21
20
18
17
16
16
15
13
13
12
12
11
10
10
10
7
7
6
5
3
3
3
3
5
6
8
12
18
25
33
42
52
61
68
71
71
67
61
52
42
31
18
7
-3
-10
-13
-15
-17
-17
-15
-14
-13
-9
-2
15
43
87
150
231
321
401
448
446
387
283
161
51
-28
-70
-82
-77
-67
-57
-52
-48
-45
-44
-43
-43
-43
-42
-42
-42
-40
-40
-40
-42
-42
-42
-40
-40
-40
-40
-42
-42
-40
-40
-42
-42
-42
-40
-42
-42
-42
-40
-40
-40
-40
-40
-40
-40
-42
-43
-45
-47
-49
-52
-54
-57
-59
-62
-64
-67
-70
-73
-75
-78
-80
-83
-84
-87
-88
-89
-90
-90
-90
-90
-89
-87
-83
-79
-74
-68
-62
-53
-45
-38
-29
-22
-14
-7
0
3
10
13
18
23
27
31
35
38
41
43
45
45
45
45
43
43
42
41
40
38
37
33
31
27
23
21
20
17
16
15
13
13
13
11
10
8
6
5
3
3
2
2
1
1
0
0
0
0
0
0
0
0
0
0
0
0
0
0
0
0
0
-2
-2
-3
-4
-4
-3
-3
-3
-3
0
2
8
16
25
33
45
53
62
67
66
62
56
47
36
26
15
5
-4
-12
-17
-19
-20
-20
-19
-18
-15
-10
0
16
47
92
157
236
321
393
431
418
353
248
132
30
-40
-75
-83
-77
-67
-59
-54
-52
-50
-49
-47
-47
-45
-45
-45
-44
-44
-44
-43
-43
-42
-43
-43
-43
-43
-43
-42
-42
-42
-42
-42
-42
-43
-43
-43
-43
-44
-43
-44
-43
-42
-43
-42
-43
-44
-45
-47
-48
-49
-52
-53
-57
-59
-62
-65
-68
-72
-74
-77
-79
-82
-84
-85
-87
-88
-90
-90
-90
-89
-88
-88
-85
-83
-80
-77
-72
-65
-59
-52
-44
-37
-29
-23
-15
-8
-2
6
10
15
20
25
28
32
36
40
41
43
46
46
47
46
46
45
43
41
40
37
36
33
32
30
27
23
22
20
18
17
16
16
15
15
13
12
12
11
11
8
7
7
6
5
5
3
3
3
2
2
3
3
2
2
2
2
2
2
3
5
5
5
5
2
2
1
1
-2
-2
-2
0
0
1
3
8
16
26
36
47
57
65
68
68
65
57
47
36
23
12
2
-4
-9
-13
-15
-15
-15
-15
-14
-13
-8
1
20
51
100
162
242
326
395
430
415
350
247
132
32
-35
-70
-79
-75
-67
-60
-57
-54
-53
-52
-50
-49
-49
-48
-48
-47
-45
-45
-44
-44
-45
-44
-45
-45
-44
-44
-44
-44
-43
-44
-44
-44
-43
-43
-43
-43
-43
-44
-43
-44
-44
-44
-45
-44
-45
-45
-45
-48
-49
-50
-54
-58
-62
-65
-69
-73
-78
-80
-83
-85
-88
-90
-92
-93
-94
-97
-97
-97
-97
-97
-94
-93
-90
-89
-87
-82
-75
-68
-60
-53
-44
-37
-28
-20
-13
-5
2
6
12
17
22
27
32
35
38
40
41
43
45
46
46
46
47
47
47
45
43
41
37
35
31
30
28
27
27
26
26
25
22
21
18
17
16
15
15
15
15
13
12
11
10
8
8
7
7
7
7
6
6
6
6
7
7
7
6
6
6
6
5
3
2
1
1
0
0
0
0
0
1
2
6
12
20
30
41
52
62
68
71
70
65
56
46
36
23
12
1
-5
-12
-15
-17
-18
-17
-17
-15
-12
-5
8
32
70
123
195
276
358
421
441
410
330
217
103
10
-49
-78
-82
-75
-64
-57
-52
-50
-50
-50
-50
-50
-47
-45
-45
-45
-47
-48
-48
-48
-48
-48
-45
-44
-43
-43
-43
-44
-45
-45
-47
-47
-47
-47
-45
-45
-45
-47
-47
-47
-47
-45
-44
-43
-44
-45
-47
-49
-52
-54
-58
-60
-62
-64
-67
-70
-74
-79
-83
-85
-87
-89
-90
-93
-94
-97
-99
-99
-99
-99
-97
-93
-92
-87
-82
-74
-68
-60
-53
-45
-37
-29
-20
-14
-7
0
5
11
16
22
27
32
36
40
43
47
51
53
53
53
51
50
46
43
43
41
38
35
32
31
30
28
27
26
26
23
23
22
23
22
22
22
21
20
17
16
15
13
12
11
10
8
7
6
6
6
6
5
5
3
3
2
1
0
0
-2
-2
-3
-3
-3
-2
0
1
3
8
15
22
31
42
52
62
68
71
70
65
56
46
35
23
11
1
-5
-9
-13
-14
-14
-13
-12
-10
-8
0
15
38
78
137
215
305
392
455
468
427
335
212
93
0
-55
-79
-79
-72
-62
-57
-53
-50
-49
-49
-48
-48
-48
-47
-47
-47
-47
-45
-47
-47
-45
-45
-45
-44
-44
-44
-45
-45
-47
-47
-47
-48
-49
-50
-50
-50
-50
-50
-48
-47
-47
-48
-48
-49
-49
-50
-52
-54
-55
-58
-62
-65
-69
-73
-77
-82
-87
-93
-95
-100
-103
-105
-108
-109
-110
-112
-113
-112
-110
-109
-105
-103
-99
-94
-87
-80
-73
-63
-55
-47
-38
-29
-20
-13
-7
0
6
12
18
23
30
35
38
42
45
47
47
47
48
47
47
47
47
46
43
42
41
40
38
36
35
32
31
30
28
28
27
26
26
25
23
22
22
21
21
20
18
17
17
15
15
13
13
12
10
8
8
6
6
7
8
11
13
18
25
31
41
51
61
70
76
77
76
70
62
51
40
28
16
5
-4
-9
-12
-14
-15
-15
-15
-14
-13
-8
2
23
58
111
185
272
363
436
466
438
358
240
117
15
-52
-80
-84
-75
-67
-59
-55
-53
-52
-50
-50
-49
-49
-49
-48
-48
-47
-47
-45
-44
-44
-44
-43
-43
-44
-44
-44
-44
-43
-43
-43
-44
-45
-45
-47
-47
-48
-48
-48
-47
-47
-47
-48
-48
-49
-50
-52
-53
-55
-58
-60
-64
-67
-70
-73
-75
-78
-82
-84
-87
-90
-93
-95
-98
-99
-99
-100
-102
-102
-100
-98
-94
-89
-84
-78
-72
-63
-55
-47
-38
-29
-20
-13
-8
-2
5
11
17
23
28
32
37
40
41
43
46
47
48
48
48
47
46
43
42
41
38
36
33
32
31
30
27
25
23
22
21
21
20
18
17
17
16
16
16
15
15
15
15
15
13
13
12
12
12
11
11
11
10
10
10
8
8
7
7
6
6
3
3
3
5
6
7
11
16
22
31
41
51
61
68
73
73
71
65
56
46
36
25
13
3
-4
-10
-14
-17
-17
-15
-14
-13
-9
-4
11
36
76
135
213
303
387
445
453
405
310
187
72
-13
-63
-80
-78
-68
-59
-53
-50
-49
-48
-47
-48
-48
-48
-47
-47
-48
-48
-48
-49
-50
-50
-50
-50
-50
-50
-52
-50
-50
-50
-49
-49
-48
-47
-47
-47
-48
-48
-48
-48
-48
-49
-50
-52
-52
-52
-50
-49
-50
-52
-55
-58
-60
-63
-65
-68
-73
-77
-80
-84
-87
-89
-92
-93
-95
-95
-97
-97
-97
-95
-95
-94
-93
-90
-88
-83
-78
-69
-62
-52
-44
-34
-27
-20
-14
-8
-2
5
10
16
22
27
31
35
37
40
41
41
42
43
42
41
40
36
36
35
35
32
30
27
23
21
18
17
16
15
16
17
17
16
13
11
10
10
10
8
8
7
6
6
6
7
8
10
8
7
6
5
3
3
5
5
6
6
5
3
1
0
-2
0
0
2
5
7
11
16
22
31
41
52
62
71
76
77
73
67
58
47
35
23
12
2
-4
-8
-10
-13
-13
-13
-12
-9
-3
6
25
55
101
165
245
332
411
458
456
401
300
180
70
-13
-58
-74
-70
-63
-55
-52
-49
-47
-47
-47
-47
-48
-48
-47
-45
-45
-43
-42
-40
-40
-40
-40
-40
-40
-40
-39
-39
-39
-39
-39
-40
-42
-40
-40
-40
-40
-38
-39
-38
-39
-39
-39
-40
-40
-43
-44
-45
-48
-50
-54
-59
-64
-67
-72
-77
-80
-87
-90
-95
-100
-103
-108
-112
-114
-115
-118
-117
-115
-113
-110
-108
-105
-102
-98
-93
-87
-79
-72
-63
-55
-45
-38
-29
-22
-15
-7
0
7
11
16
20
23
27
30
33
33
35
35
33
33
32
32
31
31
28
27
26
26
25
25
23
21
20
18
20
20
21
21
21
20
18
17
16
15
15
13
13
12
12
11
10
10
10
8
8
7
7
6
5
5
3
2
2
2
2
5
7
12
18
26
36
46
56
66
72
76
76
71
65
55
43
32
21
11
2
-4
-9
-13
-14
-14
-13
-12
-10
-5
3
22
51
97
163
246
337
418
466
462
400
292
168
55
-24
-69
-82
-78
-68
-60
-55
-52
-50
-49
-48
-48
-47
-47
-45
-45
-45
-44
-44
-43
-43
-43
-44
-44
-45
-45
-45
-47
-47
-47
-45
-45
-45
-47
-47
-48
-48
-49
-48
-48
-48
-48
-48
-49
-50
-50
-52
-53
-57
-59
-62
-65
-69
-73
-77
-80
-83
-88
-90
-95
-99
-104
-107
-109
-110
-113
-113
-113
-112
-110
-108
-105
-102
-98
-93
-87
-79
-72
-63
-54
-44
-34
-25
-17
-8
0
5
11
17
23
28
35
38
42
45
47
48
48
48
48
47
47
46
45
43
41
40
37
36
35
33
31
30
27
25
25
23
22
22
20
18
18
17
17
17
17
16
16
15
15
15
15
15
15
13
11
11
10
8
7
7
7
7
7
8
11
15
20
26
35
45
55
63
71
75
75
71
65
55
43
32
21
11
1
-5
-10
-13
-14
-14
-14
-13
-12
-8
0
13
42
85
148
230
322
405
458
458
401
298
173
60
-23
-68
-83
-78
-69
-60
-54
-52
-49
-49
-48
-49
-49
-49
-49
-47
-47
-47
-47
-47
-47
-47
-45
-44
-44
-44
-44
-45
-45
-47
-47
-47
-47
-47
-47
-48
-48
-48
-47
-48
-47
-47
-47
-47
-48
-48
-50
-52
-53
-55
-57
-59
-62
-65
-69
-74
-78
-82
-87
-89
-94
-98
-100
-103
-104
-104
-107
-105
-105
-103
-100
-98
-94
-90
-85
-80
-74
-68
-59
-50
-42
-33
-24
-17
-8
0
5
11
17
23
28
35
40
43
46
46
47
47
46
46
43
43
42
42
40
38
36
33
31
28
26
25
22
23
22
22
20
20
18
18
17
16
15
15
13
13
13
13
13
13
12
12
10
8
7
6
6
5
3
3
2
1
1
2
3
6
10
15
21
30
40
50
60
67
72
75
73
68
61
51
40
28
17
7
-3
-9
-13
-15
-15
-14
-13
-12
-10
-7
5
23
58
110
182
267
357
430
460
436
357
242
120
18
-49
-79
-82
-74
-64
-57
-52
-49
-48
-47
-47
-47
-44
-44
-44
-44
-44
-44
-44
-43
-42
-42
-42
-42
-42
-42
-42
-39
-40
-40
-40
-40
-42
-42
-42
-42
-42
-43
-42
-42
-42
-42
-43
-44
-45
-47
-48
-49
-52
-54
-57
-60
-63
-67
-69
-73
-75
-78
-82
-84
-87
-88
-92
-93
-95
-98
-99
-99
-100
-99
-97
-93
-89
-85
-79
-73
-65
-58
-49
-40
-32
-24
-17
-9
-3
3
10
16
22
27
32
36
40
42
45
46
47
46
46
45
45
43
41
38
37
35
33
31
28
26
23
21
20
18
17
17
16
17
17
16
16
15
15
13
12
12
11
11
10
8
8
8
7
7
7
7
7
7
6
6
5
2
2
1
0
0
1
2
3
6
11
17
26
35
45
55
63
70
72
72
67
60
50
40
27
15
3
-7
-13
-15
-18
-18
-18
-17
-15
-13
-8
1
21
53
103
171
255
341
411
442
421
346
235
115
16
-49
-79
-84
-75
-65
-58
-54
-52
-49
-49
-48
-48
-47
-47
-47
-44
-44
-43
-43
-43
-44
-43
-43
-43
-43
-42
-43
-43
-43
-42
-42
-43
-43
-43
-44
-44
-44
-44
-43
-43
-42
-43
-44
-45
-47
-48
-49
-50
-53
-54
-57
-59
-62
-65
-69
-72
-75
-78
-80
-82
-84
-85
-87
-88
-90
-90
-93
-93
-93
-93
-93
-90
-88
-83
-78
-72
-64
-57
-49
-40
-33
-25
-17
-9
-3
3
8
15
20
25
30
35
38
41
45
45
46
47
48
48
47
45
43
41
40
37
35
31
30
27
25
23
22
21
22
21
21
20
20
18
17
16
13
12
11
11
10
10
10
10
10
10
10
10
8
8
8
8
8
7
7
6
5
3
3
2
2
1
1
0
0
0
1
3
7
12
20
28
38
50
61
70
76
77
76
70
61
50
38
27
15
3
-4
-9
-13
-14
-14
-14
-14
-13
-9
-2
12
36
75
130
202
283
362
415
425
382
293
181
72
-13
-60
-78
-74
-64
-55
-48
-45
-42
-40
-39
-39
-39
-38
-38
-38
-38
-37
-37
-37
-38
-37
-37
-37
-37
-37
-37
-37
-38
-38
-39
-38
-39
-39
-40
-40
-42
-42
-42
-42
-43
-44
-44
-45
-45
-45
-47
-48
-50
-53
-55
-58
-62
-63
-67
-69
-73
-75
-78
-80
-84
-87
-90
-92
-94
-95
-95
-97
-97
-95
-94
-92
-89
-85
-80
-75
-70
-63
-57
-50
-44
-37
-27
-19
-13
-5
0
5
10
16
21
26
30
33
36
38
40
42
42
43
42
41
38
36
35
32
31
28
27
26
25
23
22
21
21
20
20
17
17
16
16
15
13
12
12
11
10
10
10
10
10
8
8
8
7
7
7
7
5
5
2
2
2
1
1
0
0
0
3
6
10
16
23
32
42
52
62
70
75
75
70
63
53
41
28
16
5
-3
-9
-14
-17
-17
-15
-12
-10
-8
-2
10
30
61
108
172
251
332
398
428
407
335
230
117
20
-43
-74
-80
-73
-64
-57
-53
-50
-48
-48
-48
-47
-47
-47
-45
-44
-42
-42
-42
-43
-43
-43
-42
-42
-42
-42
-43
-43
-44
-43
-44
-44
-45
-45
-45
-45
-47
-45
-47
-47
-47
-48
-47
-47
-47
-47
-48
-50
-53
-55
-59
-62
-65
-69
-72
-75
-78
-82
-84
-89
-93
-95
-98
-100
-99
-99
-99
-98
-98
-97
-95
-93
-90
-88
-82
-77
-70
-60
-52
-42
-34
-25
-18
-10
-4
3
10
16
22
27
32
36
38
42
45
47
46
46
43
42
41
40
38
37
36
33
31
30
28
27
26
25
23
22
21
20
17
17
15
15
15
13
13
15
13
13
12
11
10
8
10
10
8
10
10
10
8
7
6
5
3
3
3
5
6
7
12
16
22
28
36
45
56
66
73
77
77
73
66
56
45
33
22
12
2
-5
-12
-14
-14
-14
-13
-10
-8
-2
8
31
63
115
181
263
348
418
451
433
363
257
140
37
-33
-69
-78
-73
-65
-59
-57
-55
-55
-54
-54
-53
-50
-50
-50
-50
-50
-49
-49
-48
-48
-49
-49
-50
-49
-49
-49
-50
-50
-52
-53
-53
-53
-53
-53
-52
-53
-54
-54
-53
-53
-54
-54
-55
-55
-58
-60
-63
-65
-68
-70
-73
-77
-79
-84
-87
-92
-95
-98
-103
-105
-107
-109
-109
-109
-109
-109
-109
-109
-107
-104
-100
-97
-90
-85
-79
-72
-63
-55
-45
-38
-29
-20
-12
-7
0
6
12
16
20
25
30
33
37
38
40
40
40
40
38
40
38
38
37
36
35
32
31
30
28
27
26
25
23
22
21
21
20
20
18
20
18
18
16
16
16
15
15
15
15
12
12
10
10
8
8
8
10
10
10
10
11
12
16
21
28
37
47
57
66
73
78
80
76
71
62
52
41
30
18
7
-2
-7
-12
-14
-13
-13
-12
-12
-8
-2
12
35
72
130
205
295
382
446
465
427
337
217
96
2
-54
-75
-77
-68
-58
-52
-49
-47
-45
-45
-45
-44
-44
-44
-44
-44
-44
-44
-44
-43
-43
-42
-42
-42
-42
-43
-43
-43
-44
-45
-45
-47
-48
-49
-49
-49
-49
-49
-48
-47
-45
-47
-47
-48
-49
-50
-50
-54
-57
-58
-60
-63
-67
-70
-73
-78
-82
-85
-90
-95
-98
-100
-104
-107
-108
-108
-108
-107
-105
-104
-100
-97
-93
-88
-83
-77
-69
-62
-52
-43
-33
-24
-17
-9
-2
3
11
17
22
27
32
37
40
43
45
46
46
46
46
45
42
41
40
38
37
36
33
31
30
28
27
25
23
23
21
21
20
20
21
20
20
18
18
17
16
16
15
15
13
13
12
11
11
8
8
7
8
7
6
6
6
5
5
5
5
7
11
17
25
35
45
55
65
71
73
72
68
61
51
41
30
17
7
-2
-8
-12
-14
-15
-15
-14
-13
-10
-5
2
21
52
101
168
252
341
417
455
441
370
260
136
31
-39
-74
-82
-75
-65
-58
-54
-52
-50
-49
-49
-48
-48
-47
-48
-48
-48
-48
-47
-47
-47
-47
-45
-45
-45
-45
-44
-44
-44
-45
-47
-47
-48
-48
-48
-48
-49
-49
-48
-47
-47
-45
-45
-47
-48
-48
-49
-50
-53
-54
-55
-58
-60
-64
-67
-70
-73
-77
-79
-83
-85
-89
-92
-94
-95
-98
-98
-97
-95
-95
-93
-90
-87
-82
-78
-70
-64
-57
-48
-39
-32
-23
-15
-9
-2
5
11
17
23
28
33
37
41
43
46
48
48
50
48
47
46
45
43
42
40
38
36
35
32
31
30
27
26
23
23
22
21
21
20
18
17
16
15
13
13
12
11
10
10
10
8
8
8
7
6
6
5
3
2
1
1
0
0
0
0
0
0
2
5
10
17
25
35
45
55
62
67
68
65
58
50
38
26
13
2
-7
-14
-19
-22
-23
-23
-22
-22
-19
-15
-7
8
36
80
141
218
303
381
425
420
361
261
142
36
-39
-78
-88
-80
-70
-62
-55
-53
-50
-49
-48
-48
-47
-47
-45
-45
-45
-45
-47
-47
-47
-45
-45
-44
-44
-44
-43
-43
-43
-43
-42
-42
-43
-43
-44
-44
-44
-44
-44
-44
-44
-44
-45
-44
-45
-47
-49
-50
-53
-55
-58
-60
-63
-65
-68
-72
-74
-77
-80
-83
-85
-88
-90
-92
-93
-94
-95
-97
-95
-95
-94
-92
-89
-85
-80
-74
-67
-59
-52
-43
-35
-28
-20
-13
-5
2
6
12
18
23
28
33
36
38
41
43
45
46
46
45
45
45
42
41
40
38
36
33
32
30
28
27
25
23
23
21
21
20
18
17
17
16
16
15
13
13
13
13
12
12
12
12
12
12
12
12
12
12
11
11
10
10
8
8
7
7
6
6
6
6
7
7
10
12
16
21
28
37
48
58
67
75
76
76
72
65
55
43
31
18
8
0
-7
-12
-14
-14
-14
-13
-12
-8
-3
8
30
63
113
178
258
337
398
420
390
315
206
96
6
-52
-77
-79
-72
-63
-54
-50
-48
-45
-44
-44
-44
-43
-43
-43
-43
-43
-42
-42
-42
-42
-40
-40
-42
-42
-43
-43
-44
-45
-45
-45
-45
-45
-47
-48
-48
-48
-47
-47
-45
-44
-45
-45
-47
-48
-49
-50
-52
-52
-54
-57
-58
-62
-65
-69
-72
-75
-78
-80
-84
-85
-89
-90
-94
-97
-97
-97
-95
-94
-92
-89
-88
-85
-83
-79
-73
-67
-59
-50
-43
-34
-27
-19
-13
-5
1
7
13
20
25
30
35
38
41
41
42
43
45
43
45
43
42
41
38
36
33
32
30
28
26
26
25
23
22
20
20
18
17
17
16
15
13
12
11
11
10
8
8
7
6
6
7
7
7
6
6
5
5
3
3
2
2
2
0
0
0
0
2
3
7
11
17
25
35
46
55
65
70
71
68
63
53
43
31
20
7
0
-8
-13
-17
-18
-18
-17
-14
-13
-10
-2
13
38
80
137
212
296
373
423
428
382
290
177
70
-12
-62
-79
-78
-70
-62
-55
-52
-50
-50
-49
-49
-48
-47
-45
-44
-44
-43
-43
-43
-43
-43
-43
-42
-40
-40
-40
-42
-43
-43
-44
-44
-45
-45
-45
-47
-47
-48
-47
-47
-48
-47
-47
-48
-48
-49
-50
-52
-54
-55
-60
-63
-67
-70
-74
-79
-83
-87
-92
-94
-97
-99
-100
-102
-103
-104
-104
-104
-103
-102
-99
-95
-93
-88
-82
-77
-70
-63
-55
-47
-39
-29
-20
-13
-5
0
7
12
18
23
28
31
35
37
40
41
42
42
43
43
43
43
42
42
40
37
36
35
32
31
30
28
26
25
25
22
22
22
21
21
20
18
17
16
16
15
13
13
11
11
8
8
6
5
3
3
3
3
3
6
8
12
18
26
35
43
53
63
68
72
72
68
61
52
42
31
18
7
-2
-8
-13
-15
-17
-17
-17
-15
-13
-9
1
16
46
90
152
233
320
396
436
426
361
256
137
33
-38
-75
-84
-77
-67
-59
-54
-52
-49
-48
-48
-47
-45
-45
-45
-45
-45
-45
-44
-44
-44
-43
-42
-42
-42
-42
-42
-42
-43
-43
-43
-43
-43
-43
-44
-44
-44
-43
-44
-43
-43
-44
-45
-47
-47
-48
-48
-49
-52
-53
-55
-59
-62
-65
-70
-74
-79
-82
-87
-90
-93
-97
-98
-99
-100
-102
-102
-102
-100
-98
-94
-90
-87
-83
-75
-69
-63
-54
-47
-37
-29
-22
-14
-7
0
6
11
16
21
26
28
33
36
37
40
40
41
41
41
41
41
41
38
37
36
33
32
30
28
27
25
23
22
21
18
18
17
17
17
16
15
16
13
13
13
12
12
12
11
11
11
10
8
7
7
5
5
5
5
6
6
7
8
11
15
20
26
36
46
56
63
70
72
71
66
58
48
38
27
16
5
-2
-8
-13
-14
-14
-14
-13
-12
-8
-3
8
30
63
116
183
266
347
410
428
396
316
203
91
0
-57
-79
-79
-70
-60
-53
-49
-47
-45
-45
-44
-44
-45
-45
-44
-43
-43
-43
-43
-43
-43
-44
-44
-43
-43
-42
-42
-42
-42
-42
-42
-42
-43
-44
-44
-44
-44
-44
-43
-43
-43
-42
-43
-43
-44
-45
-48
-52
-55
-58
-62
-64
-67
-69
-70
-72
-73
-75
-79
-83
-87
-89
-92
-94
-97
-98
-98
-98
-98
-97
-94
-90
-85
-82
-78
-72
-64
-57
-48
-39
-30
-23
-15
-9
-3
3
7
11
15
20
23
27
31
33
35
36
35
35
33
32
33
35
33
31
28
26
23
22
22
21
20
18
17
16
17
16
16
15
15
15
13
12
12
12
12
13
13
13
12
11
10
10
10
10
11
11
10
11
10
10
10
7
7
6
5
6
6
8
12
16
23
31
41
51
61
68
72
73
71
65
57
47
35
22
11
2
-5
-9
-12
-13
-12
-10
-8
-5
-3
6
23
51
96
156
235
322
402
453
458
408
312
193
81
-4
-53
-70
-69
-63
-55
-49
-47
-45
-44
-44
-44
-44
-43
-42
-40
-39
-39
-38
-39
-40
-40
-40
-39
-39
-39
-40
-40
-43
-43
-44
-44
-43
-43
-44
-44
-45
-45
-47
-47
-48
-49
-49
-49
-49
-50
-53
-54
-58
-60
-64
-67
-70
-74
-78
-82
-85
-89
-94
-97
-102
-104
-108
-110
-112
-114
-114
-114
-114
-113
-110
-108
-104
-100
-95
-89
-83
-77
-68
-60
-50
-42
-33
-25
-18
-10
-3
3
10
15
18
23
27
31
33
35
37
37
36
37
36
37
36
36
35
33
32
31
30
27
26
25
23
23
22
21
21
21
20
21
20
20
18
17
17
17
17
17
16
16
16
15
15
15
13
12
12
10
8
8
7
7
7
7
7
8
11
16
21
28
37
47
56
65
72
75
75
71
63
55
43
32
21
11
2
-3
-7
-9
-9
-9
-9
-8
-7
-3
5
22
52
100
167
251
343
422
466
457
390
281
156
47
-29
-68
-78
-72
-62
-54
-49
-47
-45
-45
-45
-44
-44
-44
-44
-43
-43
-43
-43
-43
-44
-44
-44
-44
-44
-44
-44
-44
-44
-45
-45
-45
-44
-45
-45
-47
-47
-47
-47
-47
-47
-47
-47
-48
-49
-49
-52
-53
-55
-57
-59
-63
-65
-69
-73
-77
-79
-83
-87
-90
-93
-97
-100
-102
-103
-104
-105
-104
-103
-102
-99
-95
-92
-87
-82
-75
-68
-59
-52
-42
-33
-24
-17
-8
0
5
11
17
22
27
32
36
40
43
46
48
48
50
48
50
47
46
45
43
41
40
37
36
33
31
30
28
27
25
23
22
22
21
21
20
18
18
17
16
15
15
13
13
13
13
12
12
11
11
10
10
7
7
6
6
3
3
3
2
2
2
2
5
8
13
21
28
38
48
58
66
71
72
68
62
55
45
33
21
12
2
-5
-12
-15
-15
-17
-17
-15
-14
-10
-4
8
32
70
126
201
290
377
438
455
413
322
202
82
-8
-63
-82
-82
-70
-60
-55
-52
-50
-50
-50
-49
-49
-49
-48
-48
-48
-45
-47
-47
-47
-47
-47
-47
-45
-45
-45
-45
-44
-44
-45
-44
-44
-43
-43
-44
-44
-44
-44
-44
-43
-44
-43
-44
-44
-45
-48
-49
-52
-53
-54
-57
-59
-63
-65
-69
-73
-75
-79
-82
-84
-87
-89
-92
-94
-95
-97
-98
-99
-99
-97
-95
-92
-89
-84
-78
-72
-65
-57
-49
-39
-32
-24
-17
-9
-2
5
8
15
20
23
27
31
35
37
40
42
43
45
45
43
43
43
41
40
37
33
32
28
26
25
22
21
18
17
16
15
15
15
15
13
13
12
11
10
8
8
7
7
6
6
5
5
5
3
3
3
3
5
5
3
3
3
2
2
2
2
1
1
1
1
1
1
1
3
7
12
20
27
37
47
57
63
67
67
63
57
47
37
27
15
5
-4
-10
-15
-17
-18
-18
-17
-15
-13
-8
1
20
50
96
162
241
326
396
428
408
338
231
116
16
-48
-78
-83
-75
-65
-57
-53
-50
-49
-48
-47
-47
-45
-44
-43
-43
-42
-42
-42
-40
-42
-42
-42
-42
-42
-42
-40
-40
-42
-42
-42
-40
-40
-40
-42
-40
-42
-42
-40
-40
-40
-39
-40
-39
-40
-42
-43
-44
-48
-49
-52
-54
-57
-59
-62
-64
-69
-72
-75
-78
-82
-84
-85
-88
-88
-90
-90
-92
-90
-89
-87
-84
-82
-78
-73
-68
-63
-57
-49
-42
-35
-27
-19
-12
-4
1
7
13
20
25
27
31
35
37
40
42
43
45
46
46
46
46
45
43
42
41
38
37
36
33
31
27
26
25
22
21
18
17
17
16
15
13
12
11
10
7
7
7
7
7
7
7
6
6
6
6
5
5
3
3
2
2
2
3
3
5
5
5
5
3
3
3
2
1
0
-2
-3
-3
-3
-2
-2
0
2
5
8
15
21
30
41
51
60
66
67
66
61
52
43
33
22
11
1
-5
-10
-13
-14
-15
-15
-14
-13
-10
-3
12
36
73
131
202
286
366
421
432
390
303
191
80
-5
-55
-75
-75
-69
-59
-53
-49
-48
-47
-47
-48
-48
-48
-48
-45
-47
-47
-47
-48
-47
-45
-45
-44
-44
-43
-43
-42
-42
-42
-42
-43
-44
-44
-44
-44
-44
-43
-43
-42
-40
-42
-42
-43
-44
-45
-47
-48
-49
-50
-53
-54
-58
-62
-64
-67
-69
-72
-74
-78
-82
-85
-88
-92
-94
-95
-95
-95
-95
-94
-93
-92
-92
-88
-84
-79
-74
-68
-60
-55
-48
-39
-33
-25
-19
-12
-4
5
11
16
21
25
30
33
37
40
43
47
48
51
52
51
48
47
46
45
45
45
41
38
36
33
32
30
28
27
26
25
22
21
18
17
16
16
15
13
12
11
11
11
12
11
11
10
10
8
8
8
8
8
8
7
7
6
6
5
5
5
5
6
6
3
3
2
2
0
0
0
0
0
0
1
3
6
10
15
25
33
45
56
65
68
68
65
57
47
36
25
13
5
-4
-12
-15
-19
-20
-22
-20
-19
-17
-10
1
17
50
96
161
240
325
398
437
427
365
262
145
41
-33
-72
-83
-80
-72
-64
-59
-57
-55
-54
-53
-53
-52
-52
-49
-49
-49
-48
-48
-48
-48
-45
-45
-45
-47
-47
-48
-48
-47
-48
-47
-47
-47
-48
-49
-48
-49
-50
-50
-49
-49
-48
-48
-48
-49
-50
-52
-54
-57
-59
-62
-64
-68
-70
-74
-78
-80
-84
-88
-92
-94
-98
-99
-100
-102
-103
-103
-104
-104
-104
-103
-102
-100
-97
-93
-87
-80
-74
-65
-58
-49
-40
-33
-24
-17
-9
-3
5
11
17
23
28
33
37
40
42
42
43
45
46
45
45
45
43
41
41
38
36
33
31
28
27
26
25
25
25
23
22
21
20
18
18
18
17
16
13
11
10
8
10
11
11
11
11
10
7
6
6
5
5
5
5
6
6
6
5
3
1
0
0
-2
0
2
5
7
10
13
18
26
36
46
56
63
70
71
68
63
53
43
33
22
11
2
-7
-12
-14
-15
-14
-12
-10
-9
-7
2
18
47
91
151
231
317
400
452
457
407
310
191
77
-8
-54
-70
-68
-60
-52
-45
-43
-42
-42
-42
-43
-43
-42
-39
-37
-34
-33
-32
-30
-32
-32
-32
-32
-32
-32
-32
-32
-33
-33
-33
-34
-34
-34
-34
-35
-37
-38
-39
-39
-39
-38
-38
-39
-42
-44
-47
-49
-52
-54
-57
-60
-64
-69
-74
-80
-85
-90
-94
-98
-100
-104
-107
-109
-112
-113
-114
-113
-113
-112
-110
-108
-104
-99
-94
-88
-83
-74
-68
-59
-50
-43
-34
-25
-18
-10
-4
0
6
11
16
21
27
32
37
41
43
43
45
45
46
45
43
42
41
38
38
36
33
31
30
27
26
27
26
26
23
23
21
21
20
17
16
13
13
12
12
12
12
12
12
11
11
11
10
10
8
8
8
8
8
8
8
7
6
6
5
3
2
2
2
2
2
5
7
11
16
23
33
43
55
63
68
71
70
65
57
48
38
27
17
7
0
-8
-12
-13
-14
-13
-12
-12
-10
-4
6
27
61
113
186
272
362
435
465
440
360
245
122
18
-47
-78
-82
-75
-67
-59
-55
-54
-53
-50
-50
-50
-49
-49
-48
-48
-45
-45
-45
-45
-45
-44
-44
-43
-44
-44
-44
-45
-45
-47
-48
-48
-49
-49
-48
-48
-48
-49
-48
-48
-48
-47
-47
-45
-45
-47
-48
-50
-52
-54
-55
-58
-62
-64
-68
-72
-75
-80
-84
-88
-92
-95
-98
-102
-102
-104
-103
-104
-103
-100
-98
-95
-92
-87
-82
-75
-68
-60
-53
-43
-35
-27
-18
-10
-7
1
7
13
20
26
31
36
41
43
46
50
50
51
51
50
48
47
46
43
42
41
40
38
37
33
32
31
30
28
26
26
25
25
23
22
21
20
18
18
17
16
16
15
15
13
13
12
12
12
12
12
10
10
8
7
7
7
6
6
6
6
7
11
15
22
30
38
48
57
65
70
72
70
65
58
48
38
26
15
3
-5
-12
-15
-17
-18
-17
-15
-14
-13
-7
5
26
62
116
190
277
367
436
461
430
345
227
105
7
-53
-79
-82
-73
-63
-57
-54
-52
-52
-52
-49
-49
-49
-49
-49
-50
-49
-49
-49
-48
-48
-47
-47
-47
-47
-48
-48
-48
-48
-48
-48
-48
-48
-48
-47
-47
-48
-47
-47
-45
-44
-44
-44
-45
-47
-47
-48
-50
-53
-55
-59
-62
-65
-69
-73
-75
-79
-82
-84
-87
-89
-93
-94
-95
-98
-99
-99
-99
-99
-97
-94
-90
-85
-80
-75
-69
-62
-54
-45
-37
-28
-19
-12
-5
1
7
13
18
25
28
33
37
40
43
46
47
48
50
50
48
48
46
43
41
38
37
35
33
32
31
28
26
25
23
22
22
21
21
18
18
17
17
16
15
13
12
12
10
10
8
7
7
7
8
8
8
6
5
5
2
2
2
2
1
0
0
1
1
2
5
8
13
20
28
38
48
58
66
71
71
68
62
55
46
35
22
11
1
-7
-12
-17
-18
-18
-15
-14
-13
-10
-5
8
33
73
132
210
297
381
437
445
398
303
183
70
-15
-67
-84
-82
-73
-63
-57
-53
-50
-49
-49
-49
-48
-48
-48
-47
-47
-47
-47
-47
-47
-47
-47
-47
-47
-47
-47
-48
-48
-49
-49
-48
-48
-49
-49
-49
-49
-49
-49
-48
-47
-48
-47
-47
-47
-48
-48
-49
-52
-54
-55
-57
-58
-62
-64
-68
-72
-74
-77
-79
-82
-85
-88
-89
-89
-92
-93
-93
-93
-93
-92
-89
-87
-83
-79
-73
-67
-60
-50
-43
-33
-25
-18
-10
-4
2
6
11
16
21
26
30
33
36
38
40
41
41
41
41
41
40
38
37
37
35
32
30
28
26
25
23
21
20
18
17
17
16
16
15
13
12
11
10
8
8
7
7
7
7
7
8
7
6
5
5
5
5
5
5
5
2
2
1
1
0
0
0
0
1
1
2
3
6
10
15
21
30
40
51
61
68
72
72
68
62
52
41
30
17
7
-2
-7
-10
-13
-14
-13
-12
-12
-9
-7
3
22
52
100
166
247
335
406
440
421
350
241
123
23
-42
-74
-79
-73
-62
-54
-49
-47
-44
-43
-42
-40
-39
-38
-38
-38
-39
-39
-40
-40
-40
-40
-39
-38
-38
-38
-38
-39
-40
-39
-40
-42
-43
-43
-43
-43
-43
-43
-42
-43
-43
-43
-43
-43
-43
-43
-45
-49
-52
-55
-59
-63
-67
-68
-69
-72
-73
-74
-75
-79
-83
-87
-89
-90
-93
-94
-97
-98
-98
-99
-98
-94
-90
-85
-80
-73
-67
-59
-50
-42
-34
-27
-20
-14
-8
-3
2
8
15
20
25
28
32
36
38
40
41
42
42
41
40
38
37
36
36
36
35
32
30
27
25
22
21
20
20
18
17
16
16
15
15
13
12
12
11
11
10
8
7
7
7
8
8
10
8
8
8
8
7
7
6
5
5
2
3
3
3
3
3
3
2
3
5
7
12
17
25
35
45
55
65
72
76
76
71
62
51
40
26
16
5
-3
-9
-12
-14
-14
-14
-13
-12
-9
0
12
36
75
130
200
283
366
428
447
415
333
220
105
12
-48
-75
-79
-74
-64
-58
-54
-53
-52
-52
-53
-52
-52
-52
-50
-50
-48
-48
-48
-48
-47
-48
-48
-48
-48
-48
-48
-47
-48
-48
-48
-49
-49
-50
-50
-50
-50
-49
-48
-49
-49
-49
-50
-50
-52
-53
-54
-57
-59
-60
-64
-67
-70
-74
-77
-82
-85
-89
-93
-95
-99
-102
-104
-105
-107
-107
-107
-105
-104
-102
-100
-98
-94
-89
-84
-77
-69
-60
-52
-43
-34
-27
-18
-10
-3
5
10
16
21
27
32
36
40
41
43
43
43
43
45
45
43
43
43
42
40
37
36
33
32
32
31
31
30
28
26
25
22
21
21
21
20
18
18
17
17
16
16
15
15
15
15
12
12
12
10
8
7
6
6
5
5
6
8
11
15
20
25
33
42
52
62
71
76
77
75
68
60
50
38
27
16
6
-2
-8
-12
-14
-14
-14
-13
-12
-9
-2
11
35
71
127
201
288
371
432
448
408
318
201
86
-4
-60
-82
-80
-72
-63
-57
-53
-50
-49
-48
-48
-48
-48
-48
-48
-48
-48
-48
-48
-48
-47
-47
-45
-45
-47
-47
-47
-47
-47
-47
-48
-48
-49
-49
-50
-50
-50
-52
-50
-50
-50
-50
-52
-53
-53
-54
-55
-59
-60
-63
-64
-68
-69
-72
-75
-78
-80
-85
-88
-90
-93
-95
-97
-99
-102
-102
-102
-102
-102
-98
-97
-92
-87
-82
-74
-68
-60
-53
-45
-37
-29
-22
-14
-7
-2
3
8
13
18
22
27
30
32
36
38
41
42
43
43
43
43
42
40
40
38
36
33
31
28
27
26
23
22
21
21
20
20
18
18
17
16
16
16
15
15
13
12
11
8
8
7
7
7
7
7
7
7
7
7
7
6
6
5
3
3
2
2
1
2
2
3
6
10
15
21
30
38
48
58
66
72
73
72
67
58
48
37
25
15
5
-4
-9
-12
-14
-14
-13
-12
-10
-8
0
12
36
75
132
205
290
370
422
430
385
292
177
66
-15
-63
-78
-75
-64
-55
-49
-45
-44
-43
-43
-42
-42
-42
-42
-40
-42
-42
-42
-40
-39
-39
-39
-39
-40
-40
-42
-42
-43
-43
-43
-43
-43
-43
-44
-43
-44
-44
-45
-47
-45
-47
-45
-47
-45
-45
-45
-48
-50
-52
-53
-55
-57
-58
-60
-63
-65
-68
-70
-75
-78
-80
-83
-85
-88
-89
-89
-89
-89
-87
-85
-84
-83
-80
-78
-73
-65
-58
-50
-42
-35
-28
-22
-15
-9
-4
1
6
12
18
23
28
33
36
38
41
41
42
43
43
43
42
41
40
37
36
32
30
26
23
22
21
21
20
20
17
15
11
10
8
8
8
8
8
8
8
8
7
6
5
3
3
3
5
5
7
7
7
7
5
3
2
1
0
0
1
1
3
3
6
6
8
10
15
20
27
38
51
62
72
78
78
75
67
58
48
36
23
12
3
-4
-7
-10
-9
-9
-7
-5
-4
1
11
28
60
105
167
246
331
408
453
451
396
298
181
73
-5
-49
-64
-64
-58
-50
-47
-44
-43
-42
-43
-43
-43
-43
-42
-42
-42
-42
-40
-40
-40
-40
-40
-42
-43
-44
-43
-44
-44
-44
-45
-45
-47
-45
-47
-47
-48
-48
-49
-49
-49
-50
-52
-53
-54
-55
-58
-60
-63
-67
-70
-74
-78
-83
-87
-92
-95
-100
-104
-108
-112
-115
-117
-119
-120
-120
-120
-120
-119
-118
-115
-113
-108
-103
-98
-90
-83
-75
-67
-58
-49
-40
-30
-22
-13
-5
1
8
13
20
25
30
35
38
41
43
45
45
45
43
43
42
42
41
38
37
36
35
33
32
31
30
28
26
26
23
23
21
21
21
20
18
17
17
16
15
15
13
13
12
12
13
12
12
11
10
7
7
5
5
5
5
5
6
8
12
18
25
33
41
51
60
67
72
73
72
67
60
50
38
27
16
6
-2
-8
-12
-14
-14
-14
-13
-12
-9
-4
6
27
61
115
188
276
366
437
465
437
355
236
112
11
-52
-82
-84
-77
-65
-59
-55
-53
-52
-52
-50
-50
-49
-49
-49
-48
-48
-48
-48
-47
-47
-47
-45
-45
-45
-45
-45
-45
-45
-45
-45
-47
-47
-48
-48
-49
-48
-49
-48
-48
-48
-47
-47
-47
-48
-49
-52
-53
-54
-57
-59
-62
-65
-69
-73
-75
-79
-83
-85
-89
-92
-95
-98
-100
-102
-103
-102
-103
-102
-99
-97
-93
-89
-83
-77
-70
-62
-54
-45
-38
-29
-20
-12
-5
2
7
11
16
22
26
31
35
38
41
42
45
45
45
45
43
42
42
41
38
37
36
33
31
30
27
26
25
23
23
21
21
20
18
18
17
16
15
13
13
12
11
11
11
11
11
11
11
11
10
10
10
10
7
6
6
5
5
5
3
3
3
3
6
10
15
22
30
40
50
58
65
68
68
65
58
50
40
28
17
7
-2
-8
-14
-18
-20
-20
-19
-18
-15
-12
-3
12
38
82
145
226
316
396
445
442
385
281
160
47
-32
-74
-87
-82
-70
-62
-55
-53
-52
-50
-49
-48
-48
-48
-47
-47
-45
-47
-47
-47
-48
-48
-47
-47
-45
-47
-47
-47
-47
-48
-49
-49
-50
-52
-52
-52
-52
-52
-50
-50
-49
-49
-49
-49
-50
-52
-53
-55
-57
-59
-60
-63
-65
-68
-70
-73
-75
-78
-82
-85
-88
-92
-95
-98
-100
-100
-100
-100
-98
-95
-93
-90
-87
-82
-77
-72
-63
-57
-49
-40
-33
-23
-15
-9
-3
3
10
15
21
26
30
32
35
37
40
42
42
43
43
42
42
40
37
35
33
32
31
30
28
27
26
23
22
21
20
18
17
17
16
16
15
15
13
13
13
12
11
11
10
10
10
10
10
8
7
7
5
5
5
5
5
5
5
3
3
3
5
6
10
16
22
31
41
50
58
66
71
72
68
63
55
45
33
22
11
3
-4
-10
-14
-15
-17
-15
-14
-13
-10
-3
10
36
76
133
211
297
378
431
437
390
293
176
62
-20
-67
-82
-78
-68
-58
-52
-50
-49
-48
-47
-45
-43
-43
-43
-42
-42
-42
-42
-42
-42
-42
-42
-43
-43
-43
-43
-42
-42
-42
-42
-42
-42
-43
-43
-44
-43
-43
-43
-42
-43
-42
-42
-43
-44
-44
-45
-47
-48
-50
-53
-55
-58
-60
-64
-67
-70
-74
-77
-79
-82
-85
-88
-90
-93
-95
-95
-95
-94
-93
-90
-88
-84
-80
-75
-69
-64
-58
-52
-44
-34
-27
-19
-12
-4
1
6
12
16
20
25
28
31
33
36
37
38
40
41
41
40
38
36
36
33
31
30
26
25
23
21
20
18
16
16
15
15
13
13
12
11
11
11
10
10
10
10
8
8
7
7
7
6
6
6
6
6
5
5
3
3
2
2
1
1
1
1
1
2
3
7
12
18
26
36
45
55
63
70
72
70
65
57
47
36
23
13
3
-5
-9
-13
-13
-13
-10
-9
-9
-7
1
16
38
78
133
205
288
366
418
426
381
292
177
68
-14
-62
-79
-75
-65
-55
-49
-45
-44
-43
-43
-42
-42
-40
-39
-39
-39
-39
-40
-39
-39
-39
-39
-39
-39
-39
-39
-38
-38
-38
-38
-39
-40
-40
-42
-42
-40
-42
-42
-42
-42
-43
-43
-43
-44
-45
-45
-47
-49
-50
-53
-55
-57
-60
-63
-65
-69
-72
-75
-78
-82
-85
-88
-89
-90
-92
-93
-92
-93
-92
-89
-87
-84
-80
-77
-72
-67
-62
-54
-48
-40
-32
-23
-15
-7
-2
5
11
16
21
25
28
32
35
36
37
38
38
37
37
37
37
38
37
36
33
32
28
26
23
20
17
15
12
12
12
12
11
10
8
7
5
5
3
3
5
5
6
6
6
6
5
2
2
1
1
1
1
1
0
0
-3
-4
-5
-7
-5
-4
0
3
7
11
15
20
26
35
46
56
65
71
72
70
65
56
45
31
18
7
-3
-10
-14
-15
-15
-13
-12
-9
-8
-3
7
25
56
102
165
242
328
403
448
447
392
293
178
71
-8
-53
-68
-65
-58
-49
-44
-42
-40
-40
-42
-43
-43
-40
-38
-37
-35
-35
-35
-35
-35
-35
-34
-33
-33
-33
-33
-33
-34
-34
-33
-33
-34
-34
-35
-35
-37
-35
-35
-38
-38
-38
-40
-40
-43
-43
-45
-48
-50
-53
-57
-62
-65
-68
-73
-77
-79
-84
-89
-94
-98
-102
-104
-108
-109
-109
-109
-108
-107
-105
-103
-100
-97
-92
-87
-82
-75
-68
-60
-52
-40
-32
-23
-15
-9
-4
2
8
15
20
26
30
35
38
40
41
42
41
41
40
40
40
40
38
36
35
33
31
30
28
27
25
23
21
21
20
20
20
20
17
16
16
15
13
13
12
12
11
11
11
10
10
10
8
6
6
3
3
5
5
5
6
7
8
12
17
23
33
43
55
65
71
75
75
70
62
52
41
28
17
6
-3
-9
-12
-15
-17
-17
-15
-14
-13
-9
0
17
47
93
158
240
331
412
458
452
390
282
158
47
-33
-73
-84
-78
-67
-58
-52
-49
-48
-49
-48
-47
-47
-47
-47
-48
-48
-48
-48
-48
-47
-47
-45
-44
-44
-44
-44
-44
-44
-44
-44
-44
-44
-44
-44
-44
-45
-44
-45
-45
-44
-44
-45
-45
-48
-49
-50
-52
-53
-55
-58
-60
-64
-68
-72
-75
-78
-82
-87
-89
-93
-95
-98
-100
-102
-102
-103
-103
-100
-99
-97
-93
-89
-83
-78
-69
-63
-53
-45
-37
-28
-19
-12
-5
1
7
15
21
26
32
36
38
41
42
43
46
46
48
47
46
43
40
36
33
33
35
36
36
36
35
32
31
31
30
30
28
28
28
28
27
27
26
26
25
23
22
22
21
21
20
20
18
17
15
15
13
13
12
13
13
16
21
26
33
41
51
61
70
77
82
85
82
76
67
56
46
33
21
8
1
-5
-12
-14
-14
-14
-14
-13
-9
-4
7
27
60
108
177
258
342
408
433
405
327
216
100
3
-55
-80
-83
-74
-64
-58
-55
-54
-54
-54
-53
-52
-52
-52
-52
-52
-52
-53
-53
-53
-53
-53
-53
-52
-50
-50
-50
-50
-49
-49
-50
-50
-52
-53
-53
-52
-53
-52
-52
-50
-48
-47
-47
-47
-48
-49
-52
-54
-57
-58
-59
-60
-60
-63
-67
-73
-78
-80
-84
-85
-88
-89
-90
-93
-94
-95
-97
-97
-95
-93
-89
-85
-80
-75
-69
-63
-55
-48
-39
-32
-25
-18
-10
-3
3
8
12
15
17
20
22
23
26
28
32
35
36
36
35
32
30
26
23
21
21
21
23
22
22
20
17
13
12
10
8
8
10
8
11
11
11
11
10
10
8
8
7
6
5
3
3
3
5
3
5
3
5
3
3
2
1
1
1
2
3
7
11
15
23
32
43
56
66
72
75
72
66
57
47
35
23
11
2
-7
-12
-14
-15
-14
-14
-13
-10
-7
2
16
42
82
140
213
298
378
435
450
411
323
210
97
8
-48
-70
-73
-68
-62
-55
-53
-50
-48
-47
-44
-44
-44
-45
-45
-47
-45
-45
-45
-44
-43
-43
-40
-39
-39
-40
-42
-44
-45
-47
-48
-48
-48
-47
-45
-44
-44
-44
-44
-44
-43
-43
-44
-44
-47
-49
-53
-55
-58
-60
-63
-65
-68
-72
-75
-79
-84
-88
-92
-95
-98
-102
-103
-104
-104
-105
-107
-105
-104
-102
-99
-95
-90
-85
-79
-72
-64
-55
-48
-40
-34
-27
-18
-12
-4
3
11
16
21
26
30
32
35
37
38
40
41
42
42
41
40
38
38
38
37
36
35
32
30
28
27
26
25
22
22
22
21
20
21
20
20
21
21
20
20
20
18
17
16
15
15
12
12
11
11
10
10
7
7
6
6
6
7
11
15
20
27
37
47
57
66
72
73
72
67
58
50
38
28
17
7
-2
-8
-10
-13
-13
-13
-12
-10
-8
0
12
33
72
126
198
282
366
430
451
420
337
225
107
15
-47
-75
-79
-74
-65
-59
-55
-54
-53
-53
-50
-50
-49
-49
-48
-48
-49
-49
-48
-48
-48
-49
-49
-49
-50
-50
-50
-50
-52
-52
-53
-53
-54
-55
-55
-55
-54
-54
-53
-53
-53
-53
-53
-55
-57
-58
-59
-62
-64
-67
-69
-73
-75
-80
-84
-89
-93
-98
-103
-107
-109
-112
-113
-115
-115
-115
-115
-114
-113
-110
-107
-102
-98
-92
-85
-79
-73
-64
-57
-47
-38
-29
-22
-14
-7
-2
6
12
18
22
26
28
32
35
36
37
38
40
40
40
38
38
38
37
35
33
31
28
26
25
23
22
21
20
18
18
18
18
18
18
17
16
15
15
15
15
15
13
13
13
12
11
11
10
8
7
7
7
7
7
8
10
13
18
26
33
42
52
61
68
72
73
71
66
57
48
37
26
15
5
-3
-9
-12
-13
-13
-12
-10
-8
-4
1
16
38
78
135
211
296
378
432
440
393
301
182
71
-14
-63
-79
-75
-65
-55
-48
-44
-42
-42
-40
-40
-40
-39
-39
-39
-39
-39
-39
-39
-40
-40
-40
-40
-42
-42
-43
-43
-44
-44
-44
-44
-44
-44
-44
-44
-45
-45
-44
-44
-43
-43
-43
-44
-43
-44
-47
-48
-49
-52
-53
-57
-59
-62
-64
-67
-70
-73
-77
-80
-83
-87
-89
-90
-92
-93
-93
-94
-93
-90
-89
-85
-83
-78
-73
-67
-59
-52
-44
-35
-28
-20
-13
-5
-2
5
10
16
22
27
31
33
37
40
41
42
42
42
42
41
40
38
37
35
33
32
31
31
30
27
25
23
22
22
21
20
18
17
16
15
15
15
13
13
12
12
11
11
11
11
11
10
10
10
10
8
8
8
7
5
5
2
2
1
1
1
1
3
6
11
18
27
36
47
56
65
70
72
71
66
60
51
40
27
16
6
-3
-8
-10
-12
-12
-12
-10
-10
-8
-3
10
28
62
111
177
258
342
407
432
406
328
218
103
7
-52
-78
-80
-70
-60
-53
-50
-49
-48
-48
-47
-47
-44
-44
-44
-44
-44
-44
-43
-42
-42
-42
-42
-42
-42
-42
-43
-44
-44
-45
-45
-47
-47
-48
-48
-48
-48
-47
-48
-47
-47
-45
-45
-44
-45
-47
-49
-50
-53
-55
-58
-60
-63
-65
-67
-69
-70
-73
-74
-78
-80
-85
-87
-88
-89
-90
-90
-92
-90
-90
-88
-85
-82
-77
-72
-64
-58
-50
-43
-35
-28
-22
-14
-8
-2
3
10
15
21
25
28
32
35
37
40
41
43
43
43
43
43
42
41
40
36
33
30
28
27
26
25
23
22
21
20
18
18
18
17
17
16
16
15
12
10
8
6
6
6
7
8
8
8
8
7
7
7
7
8
8
8
6
5
3
1
1
1
1
1
1
2
5
8
12
17
25
33
45
55
63
70
72
71
65
56
43
31
18
6
-4
-12
-15
-15
-17
-15
-14
-14
-12
-9
0
15
42
82
142
218
305
387
441
447
400
307
190
78
-7
-57
-75
-77
-69
-62
-57
-53
-52
-50
-49
-45
-44
-44
-44
-44
-43
-44
-44
-44
-44
-43
-43
-43
-43
-43
-42
-42
-42
-42
-42
-42
-42
-42
-42
-40
-40
-40
-42
-43
-45
-45
-45
-47
-45
-45
-45
-47
-49
-50
-53
-57
-59
-63
-67
-69
-72
-74
-78
-80
-83
-85
-89
-92
-94
-97
-98
-98
-97
-95
-93
-90
-87
-83
-79
-74
-68
-62
-55
-47
-39
-32
-25
-19
-12
-5
2
7
13
18
23
27
31
35
38
42
45
46
47
47
46
45
43
40
36
35
32
31
30
28
26
25
22
21
20
18
20
20
20
18
18
17
16
16
15
15
13
12
10
11
10
10
10
10
10
8
7
6
6
5
5
5
5
3
2
2
2
2
3
5
7
11
16
23
32
42
53
63
70
73
72
67
58
48
37
25
13
3
-4
-9
-14
-17
-18
-18
-18
-17
-14
-8
5
27
63
118
190
272
356
421
445
417
336
222
105
7
-54
-82
-87
-79
-70
-64
-60
-58
-57
-55
-54
-53
-52
-52
-50
-50
-50
-49
-50
-50
-50
-50
-52
-50
-50
-50
-50
-50
-50
-50
-50
-52
-53
-54
-53
-53
-53
-53
-52
-50
-52
-50
-50
-50
-52
-53
-54
-55
-58
-60
-64
-67
-70
-74
-77
-82
-84
-88
-92
-97
-99
-103
-107
-109
-110
-110
-110
-109
-107
-104
-102
-99
-94
-89
-83
-75
-68
-59
-50
-42
-34
-25
-18
-12
-4
2
7
13
18
25
30
35
38
42
45
47
47
47
47
47
47
47
45
45
43
41
38
37
35
33
32
31
30
28
27
27
27
27
26
25
25
23
22
22
21
20
20
18
18
17
17
17
16
16
15
13
12
11
10
8
7
7
8
8
10
12
15
20
26
33
42
52
61
68
72
72
68
62
53
43
33
21
11
1
-7
-12
-15
-17
-17
-15
-14
-12
-7
0
15
42
83
145
222
308
387
435
432
376
277
158
50
-27
-70
-82
-77
-65
-57
-50
-48
-47
-47
-45
-45
-45
-45
-44
-44
-44
-44
-43
-43
-43
-44
-44
-44
-44
-44
-44
-44
-44
-44
-44
-44
-44
-45
-44
-44
-44
-45
-45
-47
-45
-45
-47
-45
-47
-48
-49
-50
-53
-54
-57
-59
-60
-63
-65
-69
-72
-75
-78
-82
-84
-88
-90
-92
-93
-94
-95
-95
-95
-93
-92
-90
-85
-80
-75
-69
-62
-54
-48
-39
-30
-23
-15
-9
-3
2
8
12
18
23
28
32
36
38
41
42
43
45
43
45
45
43
42
40
38
36
32
30
27
25
23
21
20
20
18
20
18
18
17
16
16
16
13
13
12
11
10
8
8
8
10
8
8
7
7
7
7
6
3
2
1
-2
0
-2
0
-2
-2
-4
-4
-3
-2
1
3
6
10
15
21
30
41
51
60
65
67
66
61
52
42
31
18
7
-2
-10
-14
-18
-19
-18
-15
-13
-13
-9
-2
12
37
76
135
208
295
378
436
448
407
317
202
88
1
-53
-73
-73
-65
-58
-52
-48
-47
-45
-44
-44
-43
-43
-42
-40
-40
-40
-42
-40
-39
-38
-37
-37
-37
-37
-38
-38
-38
-38
-37
-38
-39
-40
-42
-42
-39
-38
-37
-35
-34
-35
-37
-38
-39
-42
-43
-44
-45
-47
-49
-52
-57
-60
-63
-64
-64
-67
-68
-72
-77
-82
-85
-89
-93
-94
-95
-94
-94
-93
-92
-89
-85
-82
-77
-73
-67
-60
-53
-47
-39
-32
-25
-18
-10
-3
2
8
13
17
22
27
32
37
41
45
46
47
47
47
47
45
43
41
37
35
33
32
31
28
27
23
20
18
16
16
15
15
13
15
13
12
11
11
10
11
10
10
8
7
7
7
7
7
7
6
6
5
5
5
5
5
3
2
0
0
-2
-2
-2
0
2
3
7
12
20
27
37
47
57
65
68
70
65
58
48
38
28
17
7
-2
-9
-14
-17
-18
-19
-18
-18
-17
-12
0
18
48
95
160
240
326
401
442
435
372
268
150
45
-30
-69
-80
-78
-68
-62
-57
-54
-53
-53
-53
-53
-52
-50
-50
-49
-48
-47
-47
-47
-47
-47
-45
-45
-45
-44
-44
-44
-44
-45
-47
-48
-48
-49
-49
-50
-49
-49
-48
-48
-48
-47
-47
-45
-45
-47
-48
-50
-53
-57
-59
-62
-65
-68
-72
-74
-78
-82
-87
-90
-94
-98
-100
-103
-104
-105
-107
-107
-105
-103
-100
-98
-93
-89
-83
-78
-70
-63
-55
-47
-39
-32
-24
-18
-10
-3
3
10
15
20
25
28
33
36
37
40
40
41
40
38
37
37
36
36
33
33
32
31
30
28
25
23
21
21
20
18
18
18
17
16
16
16
15
13
12
11
11
10
8
8
8
8
7
6
6
5
5
2
1
1
2
2
2
2
5
7
10
15
21
28
38
48
58
66
71
71
68
62
55
45
35
23
12
2
-5
-10
-13
-15
-15
-14
-13
-10
-8
0
15
40
78
137
212
298
378
433
441
393
300
182
70
-14
-63
-79
-77
-67
-58
-52
-48
-45
-44
-43
-43
-42
-42
-42
-42
-42
-42
-42
-42
-42
-42
-42
-42
-42
-43
-43
-43
-43
-44
-44
-44
-44
-44
-45
-45
-45
-45
-45
-44
-44
-44
-43
-44
-45
-45
-47
-49
-50
-54
-55
-58
-60
-63
-65
-68
-73
-75
-80
-85
-90
-93
-95
-97
-98
-98
-98
-98
-95
-94
-92
-88
-85
-82
-77
-70
-63
-55
-48
-40
-33
-25
-18
-10
-4
1
7
13
20
25
30
33
37
38
41
41
41
42
42
41
41
40
40
38
37
36
32
31
28
27
25
23
22
21
20
20
20
18
18
17
18
18
17
17
17
16
16
16
13
13
13
13
13
12
11
10
8
6
6
5
5
5
6
6
8
12
18
25
35
45
53
62
68
72
71
67
61
52
42
30
20
8
-2
-9
-13
-15
-17
-15
-15
-13
-10
-5
5
22
53
101
166
246
332
401
433
415
345
236
120
21
-43
-75
-79
-72
-60
-53
-48
-44
-43
-42
-42
-40
-40
-40
-40
-40
-40
-39
-40
-40
-40
-40
-42
-42
-42
-42
-42
-43
-43
-44
-44
-43
-43
-43
-43
-44
-43
-44
-44
-44
-45
-45
-45
-45
-47
-47
-48
-50
-52
-54
-57
-59
-62
-65
-68
-70
-74
-78
-82
-85
-87
-89
-92
-93
-95
-95
-95
-94
-93
-92
-90
-87
-84
-80
-74
-67
-60
-53
-44
-37
-29
-22
-15
-8
-2
5
11
16
21
26
30
32
35
37
38
38
40
40
40
40
40
38
37
36
35
31
30
28
26
25
22
20
17
16
15
13
13
13
13
12
13
12
12
11
11
10
10
10
10
10
8
8
8
7
6
6
5
3
3
3
3
3
3
3
6
8
13
20
28
37
47
57
66
72
73
72
66
58
48
36
23
13
3
-5
-9
-12
-13
-13
-13
-12
-10
-9
-3
11
32
68
122
192
275
356
415
428
391
306
193
82
-4
-57
-78
-78
-68
-59
-52
-48
-45
-44
-43
-43
-44
-44
-45
-45
-45
-44
-44
-43
-43
-43
-43
-43
-43
-43
-43
-43
-44
-45
-45
-44
-44
-44
-44
-44
-44
-45
-45
-45
-44
-42
-42
-42
-42
-43
-45
-48
-49
-50
-52
-53
-54
-58
-62
-67
-69
-72
-74
-78
-80
-84
-87
-89
-90
-89
-89
-89
-89
-89
-89
-89
-88
-84
-78
-70
-62
-54
-44
-37
-28
-20
-14
-8
-3
2
7
11
16
20
25
30
35
37
41
42
43
43
42
40
40
37
37
36
36
36
35
35
32
30
27
26
23
23
21
20
20
20
18
18
17
18
17
17
17
16
16
15
13
13
12
11
11
10
8
7
6
3
3
1
1
1
2
3
5
7
11
16
23
32
43
55
66
72
76
75
68
60
48
36
23
12
1
-8
-13
-17
-17
-17
-15
-14
-12
-9
-3
8
31
67
120
190
275
360
422
445
413
331
217
101
7
-52
-77
-78
-72
-63
-55
-50
-48
-47
-45
-44
-43
-42
-42
-42
-40
-40
-40
-40
-40
-40
-40
-42
-42
-42
-42
-42
-42
-42
-43
-43
-42
-43
-43
-44
-45
-44
-44
-44
-44
-43
-43
-43
-43
-44
-45
-48
-50
-53
-55
-59
-63
-68
-72
-78
-80
-85
-88
-92
-94
-98
-100
-103
-104
-105
-105
-105
-104
-104
-102
-98
-95
-90
-87
-79
-73
-67
-58
-49
-42
-33
-24
-17
-9
-2
5
8
13
18
23
27
32
35
37
38
41
41
42
42
42
41
41
41
40
38
36
35
32
30
28
26
25
22
20
18
17
17
17
16
16
15
13
13
12
11
10
8
7
7
6
5
3
2
2
2
2
2
2
3
5
7
12
20
27
37
48
58
66
71
72
71
65
56
46
35
22
11
1
-5
-12
-15
-17
-15
-14
-13
-13
-9
-3
11
35
75
130
205
291
373
428
437
391
297
178
67
-19
-68
-84
-80
-70
-60
-54
-50
-49
-48
-48
-47
-47
-45
-45
-44
-44
-44
-44
-44
-44
-44
-43
-43
-44
-44
-44
-44
-44
-44
-44
-45
-45
-45
-47
-47
-45
-45
-45
-44
-44
-44
-45
-45
-45
-47
-49
-50
-52
-54
-55
-57
-59
-62
-64
-67
-72
-74
-79
-84
-88
-92
-94
-97
-97
-98
-98
-98
-97
-95
-93
-89
-85
-80
-75
-69
-63
-54
-47
-38
-30
-20
-14
-7
0
6
8
13
18
23
27
31
32
36
37
38
38
38
40
40
38
38
37
36
36
33
32
30
27
25
23
22
21
18
18
17
17
16
15
13
13
12
12
11
11
11
11
10
10
8
7
7
7
7
6
6
5
3
3
3
3
3
5
7
11
16
22
31
40
51
60
67
72
73
70
65
56
46
35
22
11
1
-4
-9
-13
-14
-14
-13
-12
-9
-5
1
16
41
82
140
215
298
376
425
425
372
275
160
52
-27
-69
-80
-77
-65
-57
-52
-49
-48
-48
-47
-44
-44
-44
-43
-43
-43
-43
-43
-43
-43
-43
-43
-43
-43
-43
-43
-43
-44
-44
-44
-44
-44
-45
-45
-45
-44
-44
-45
-44
-44
-44
-44
-44
-45
-47
-48
-49
-50
-52
-53
-55
-58
-62
-64
-67
-72
-74
-78
-80
-84
-87
-89
-92
-93
-93
-93
-93
-92
-90
-88
-84
-80
-77
-72
-65
-59
-52
-44
-35
-28
-19
-13
-7
0
5
8
15
20
25
30
33
37
40
41
43
45
43
42
42
41
41
38
37
36
33
32
31
28
27
25
23
22
20
18
17
17
16
16
15
15
15
13
13
12
12
11
11
11
10
10
8
8
8
7
7
6
6
5
3
2
2
2
2
5
7
12
18
26
35
45
55
63
68
71
70
66
57
47
36
23
12
3
-4
-10
-14
-15
-17
-15
-14
-12
-8
-3
10
31
66
117
187
268
348
407
423
387
303
191
80
-7
-59
-79
-78
-68
-59
-53
-49
-48
-47
-45
-45
-44
-44
-43
-44
-44
-44
-44
-44
-43
-43
-43
-40
-42
-42
-43
-44
-45
-45
-47
-45
-45
-45
-45
-45
-44
-45
-45
-44
-44
-43
-44
-44
-44
-45
-47
-48
-49
-52
-54
-55
-58
-62
-64
-67
-72
-74
-77
-80
-83
-85
-88
-90
-93
-93
-94
-94
-93
-92
-90
-87
-84
-80
-75
-69
-63
-57
-49
-42
-33
-25
-18
-9
-4
2
7
13
18
22
26
30
32
36
37
40
41
42
41
41
40
38
36
35
33
33
32
30
27
25
23
22
20
18
18
17
17
17
16
15
13
12
11
8
8
7
7
7
7
7
6
5
5
5
3
3
2
1
1
0
2
2
5
8
13
20
26
33
42
50
58
66
71
71
68
62
53
43
32
21
10
0
-7
-13
-17
-17
-17
-14
-13
-10
-7
2
20
48
93
153
231
313
386
428
422
366
267
152
50
-23
-64
-75
-72
-64
-58
-54
-52
-52
-49
-47
-45
-44
-43
-43
-43
-43
-43
-43
-43
-44
-44
-45
-44
-44
-43
-43
-42
-42
-42
-43
-43
-44
-45
-45
-45
-44
-44
-43
-43
-42
-42
-42
-42
-43
-44
-47
-48
-50
-52
-54
-58
-62
-67
-70
-74
-79
-83
-84
-88
-89
-92
-93
-94
-94
-95
-94
-94
-93
-92
-89
-87
-83
-79
-73
-67
-59
-52
-43
-35
-28
-20
-13
-7
-2
5
8
