-6.9694649e-03
-3.4983028e-04
5.0570605e-03
7.0251328e-03
3.7546142e-03
-5.1745397e-03
-2.0417558e-02
-3.9654762e-02
-5.7973458e-02
-7.0668395e-02
-7.4071819e-02
-6.5920348e-02
-4.5381221e-02
-1.6665046e-02
1.0744371e-02
2.7284108e-02
2.9366616e-02
2.0338504e-02
5.1768499e-03
-1.1971946e-02
-2.7610530e-02
-3.8959311e-02
-4.3829559e-02
-4.0140782e-02
-2.2218303e-02
6.5632827e-03
2.9540983e-02
4.1138258e-02
4.7989593e-02
5.4634784e-02
5.9913807e-02
6.2407347e-02
6.3818068e-02
6.1756266e-02
5.2343786e-02
3.7082886e-02
1.9068483e-02
1.9626388e-03
-1.0203702e-02
-1.7745425e-02
-2.1771550e-02
-2.0520976e-02
-1.5134659e-02
-9.1042678e-03
-3.1103228e-03
1.1711370e-03
1.3987213e-03
5.6396719e-04
2.0793339e-03
8.7293261e-04
-6.2780450e-03
-1.3705577e-02
-1.9008118e-02
-2.3140166e-02
-2.4812634e-02
-2.2841137e-02
-1.9199545e-02
-1.4328190e-02
-6.5331552e-03
1.4046642e-03
7.4697950e-03
1.3901273e-02
2.1492497e-02
2.6769155e-02
2.7689965e-02
2.7312362e-02
2.6667642e-02
2.3257840e-02
1.6016046e-02
7.2521264e-03
6.0988236e-04
-2.9421878e-03
-4.4595643e-03
-3.8852981e-03
-6.1301521e-04
2.9190119e-03
5.2101312e-03
8.7651215e-03
1.4997702e-02
2.2800051e-02
3.0824908e-02
3.8911483e-02
4.5030778e-02
4.3894005e-02
3.1718395e-02
1.2586333e-02
-4.9257792e-03
-1.7531673e-02
-2.6542537e-02
-3.3160076e-02
-3.7303976e-02
-4.0354952e-02
-4.3591635e-02
-4.3380487e-02
-3.5828264e-02
-2.0685382e-02
-1.2697515e-03
1.6788611e-02
2.9670067e-02
3.6991129e-02
3.7994443e-02
3.1214847e-02
1.8387994e-02
2.8709888e-03
-1.2540531e-02
-2.4519866e-02
-2.9513014e-02
-2.7658274e-02
-2.2195903e-02
-1.4749800e-02
-7.2377761e-03
-1.2759808e-03
5.0770981e-03
1.1896638e-02
1.5848080e-02
1.1930873e-02
-3.4206395e-03
-2.5549013e-02
-4.6358351e-02
-6.2286310e-02
-7.1243736e-02
-6.8806427e-02
-5.3836477e-02
-3.2054224e-02
-9.2658399e-03
1.3154377e-02
3.4864014e-02
5.3266634e-02
6.6606953e-02
7.4634490e-02
7.7654039e-02
7.5588747e-02
6.5887617e-02
4.8596903e-02
2.6423383e-02
1.5643536e-03
-2.2203346e-02
-3.9794265e-02
-4.7752773e-02
-4.8227777e-02
-4.4464320e-02
-3.6769056e-02
-2.8272322e-02
-2.1667946e-02
-1.4524847e-02
-5.6122461e-03
3.2113461e-03
7.9136441e-03
3.9407595e-03
-6.4185152e-03
-1.6000764e-02
-2.1452696e-02
-2.3513379e-02
-2.2486711e-02
-1.9322169e-02
-1.5783152e-02
-1.1409474e-02
-3.6772419e-03
8.0146329e-03
1.8479226e-02
2.3926341e-02
2.7078757e-02
2.8017494e-02
2.3810468e-02
1.6893185e-02
1.0649340e-02
7.3248313e-03
9.4113956e-03
1.6049637e-02
2.4459785e-02
3.2695340e-02
4.0524926e-02
4.6262162e-02
4.5296093e-02
2.9835040e-02
2.8249689e-03
-1.6839749e-02
-2.2121240e-02
-2.0198953e-02
-1.8008475e-02
-2.1163415e-02
-2.9768675e-02
-3.7617526e-02
-3.9883121e-02
-3.8010586e-02
-3.6063936e-02
-3.4252205e-02
-3.0624004e-02
-2.6126204e-02
-2.0513799e-02
-1.3462417e-02
-8.6421165e-03
-7.2357794e-03
-6.4159312e-03
-7.2703116e-03
-1.2069826e-02
-1.8850394e-02
-2.4996710e-02
-2.6387086e-02
-1.5667067e-02
3.2901708e-03
1.5205804e-02
1.8541119e-02
2.0739381e-02
2.2607818e-02
2.4522959e-02
2.9395658e-02
3.5271637e-02
3.7109806e-02
3.4110591e-02
2.6066891e-02
1.4071450e-02
1.3292943e-03
-8.9336946e-03
-1.4885824e-02
-1.8405280e-02
-1.9845101e-02
-1.8846659e-02
-1.6045903e-02
-9.6682004e-03
-1.5862215e-03
4.4341974e-03
9.9744439e-03
1.4911027e-02
1.7796380e-02
1.8811696e-02
1.6128770e-02
1.0165832e-02
3.0025433e-03
-4.4847679e-03
-1.0966639e-02
-1.4000456e-02
-1.3090751e-02
-1.0466285e-02
-7.4627651e-03
-4.7355545e-03
-1.9883677e-03
1.1802949e-03
5.4049638e-03
1.1954481e-02
1.9597083e-02
2.4687394e-02
2.4972867e-02
1.9927122e-02
9.1688717e-03
-4.8742408e-03
-1.7463143e-02
-2.5555719e-02
-2.7785395e-02
-2.2477097e-02
-1.2178674e-02
-3.0614461e-03
2.9251039e-03
6.4594811e-03
8.6968933e-03
1.0631080e-02
1.2234869e-02
1.4477962e-02
1.5500060e-02
1.2202953e-02
6.1279110e-03
-1.1794191e-03
-9.0354055e-03
-1.4242055e-02
-1.4220683e-02
-9.9368847e-03
-3.5523820e-03
3.2303979e-03
9.1223898e-03
1.4631189e-02
2.1408619e-02
2.9817133e-02
3.8659403e-02
4.4951588e-02
4.3227919e-02
3.2313686e-02
1.7109742e-02
1.6831389e-03
-1.1806272e-02
-2.2515932e-02
-2.9698562e-02
-3.3080731e-02
-3.3344613e-02
-3.1043893e-02
-2.8394117e-02
-2.5291608e-02
-1.8932304e-02
-1.1997641e-02
-8.3766691e-03
-6.0782889e-03
-2.4573332e-03
1.0833423e-03
5.0842824e-04
-6.2660603e-03
-1.6442003e-02
-2.5539584e-02
-3.1266669e-02
-3.3331943e-02
-3.0249392e-02
-1.9066993e-02
-2.9601742e-03
1.0801348e-02
2.1112190e-02
2.7932334e-02
3.1160216e-02
3.4224697e-02
3.6780526e-02
3.4826331e-02
2.7750542e-02
1.8273630e-02
8.5289562e-03
-1.1095345e-03
-9.9379898e-03
-1.6304407e-02
-1.9066447e-02
-1.6687657e-02
-9.8001427e-03
-1.0763784e-03
7.5684784e-03
1.4493830e-02
2.0224537e-02
2.4406197e-02
2.4553713e-02
2.0931913e-02
1.4182122e-02
5.5362556e-03
-2.9267561e-03
-1.1867103e-02
-2.0609161e-02
-2.5338286e-02
-2.5018370e-02
-2.2376467e-02
-1.7827153e-02
-1.0272154e-02
-1.2564208e-03
6.6828238e-03
1.1913032e-02
1.3716359e-02
1.3785013e-02
1.3022113e-02
9.6407843e-03
3.9778622e-03
-1.9335171e-03
-6.5206468e-03
-8.6922958e-03
-9.2244957e-03
-8.4091329e-03
-4.9785901e-03
-6.1544851e-04
1.4481030e-03
2.5226715e-03
6.1875653e-03
1.1905011e-02
1.7200799e-02
2.0170800e-02
1.8926697e-02
1.3701039e-02
5.3455762e-03
-4.3886938e-03
-1.2408717e-02
-1.7298147e-02
-1.8459955e-02
-1.8238470e-02
-1.8365173e-02
-1.6583103e-02
-1.1612557e-02
-3.2856864e-03
7.4869276e-03
1.7451100e-02
2.3567811e-02
2.7632456e-02
3.1396964e-02
3.1869702e-02
2.5375624e-02
9.5292568e-03
-1.0376110e-02
-2.4572568e-02
-3.1834762e-02
-3.4761085e-02
-3.4181279e-02
-3.0995151e-02
-2.3695890e-02
-1.2984876e-02
-3.0349777e-03
5.5447320e-03
1.1811022e-02
1.3812201e-02
1.3379865e-02
1.2422047e-02
1.0226435e-02
5.5845984e-03
8.8333642e-04
-1.6577368e-03
-3.8267508e-03
-5.8179258e-03
-5.4824317e-03
-1.1461271e-03
5.4865115e-03
1.0255303e-02
1.1432107e-02
1.1728218e-02
1.4016698e-02
1.7047620e-02
1.9231449e-02
1.8086378e-02
1.0488180e-02
-4.5195191e-04
-8.6758810e-03
-1.3267492e-02
-1.6316947e-02
-1.9902561e-02
-2.2747386e-02
-2.1990749e-02
-1.8487671e-02
-1.3885709e-02
-7.7048777e-03
1.3667148e-03
1.0880361e-02
1.7492994e-02
2.0783510e-02
2.0424527e-02
1.7195971e-02
1.4194320e-02
9.9308694e-03
9.0109549e-04
-9.5554985e-03
-1.7045704e-02
-2.0939414e-02
-2.1939935e-02
-2.1460996e-02
-1.9973379e-02
-1.7361743e-02
-1.3659568e-02
-8.0027096e-03
-1.1412987e-03
4.8438144e-03
9.5999126e-03
1.4926842e-02
2.2108098e-02
2.9026297e-02
3.0962294e-02
2.6647719e-02
1.9202334e-02
9.1174098e-03
-3.7764141e-03
-1.5510419e-02
-2.2940965e-02
-2.5379048e-02
-2.4167578e-02
-2.2386294e-02
-1.9736115e-02
-1.4773448e-02
-7.4641109e-03
9.0183688e-04
7.3028977e-03
1.1478803e-02
1.5322518e-02
1.8419951e-02
1.8472241e-02
1.3316551e-02
4.5095068e-03
-4.5994278e-03
-1.2573679e-02
-1.7253507e-02
-1.7442800e-02
-1.4540316e-02
-9.9751924e-03
-3.4429316e-03
4.9815369e-03
1.3785098e-02
2.1469993e-02
2.7619676e-02
3.2833020e-02
3.4630575e-02
2.8747168e-02
1.8637985e-02
1.1001884e-02
3.7736617e-03
-6.1167358e-03
-1.6252706e-02
-2.3771031e-02
-2.7788433e-02
-2.8706904e-02
-2.6902295e-02
-2.3630236e-02
-2.0662844e-02
-1.7681601e-02
-1.2435312e-02
-4.0652364e-03
5.0851569e-03
1.1919766e-02
1.5263684e-02
1.5053486e-02
1.2623000e-02
9.7556339e-03
4.5205924e-03
-5.1627440e-03
-1.6041957e-02
-2.2331671e-02
-1.9793450e-02
-1.0869838e-02
-3.2928029e-03
-2.6365876e-04
1.0947475e-04
1.3863658e-03
6.1341086e-03
1.2378746e-02
1.7151589e-02
2.0731782e-02
2.2896842e-02
2.0606073e-02
1.3215220e-02
4.1482826e-03
-3.7231254e-03
-9.3121390e-03
-1.2333743e-02
-1.4286858e-02
-1.5751453e-02
-1.4599900e-02
-8.9745986e-03
-8.8795565e-04
6.0834135e-03
1.1677672e-02
1.8041798e-02
2.5012009e-02
2.9202988e-02
2.9408676e-02
2.5220651e-02
1.5803180e-02
3.2541218e-03
-8.8289302e-03
-1.6984862e-02
-2.1078844e-02
-2.3144555e-02
-2.3201354e-02
-2.0987123e-02
-1.6403385e-02
-9.9146576e-03
-3.1713421e-03
2.7868448e-03
6.5770031e-03
6.9147731e-03
4.9346054e-03
2.8926529e-03
1.9477971e-03
1.3347665e-03
-1.1833744e-04
-3.2399687e-03
-7.4377929e-03
-8.9101041e-03
-5.5251253e-03
-5.2118410e-04
3.2582379e-03
6.5135954e-03
1.0081546e-02
1.5496610e-02
2.1740135e-02
2.3729358e-02
2.1140640e-02
1.6958349e-02
1.0607493e-02
-5.2990771e-05
-1.2550569e-02
-2.1285778e-02
-2.3590316e-02
-2.0437821e-02
-1.5272822e-02
-1.1064870e-02
-7.5243827e-03
-3.3183286e-03
1.7118357e-03
7.7436478e-03
1.2366582e-02
1.1862405e-02
7.4510725e-03
3.1000340e-03
-6.6491911e-04
-4.8898182e-03
-8.8143959e-03
-1.1479568e-02
-1.1848276e-02
-1.0875486e-02
-9.5603999e-03
-6.4424816e-03
-1.0436865e-03
5.5561132e-03
1.0978574e-02
1.3864845e-02
1.5458678e-02
1.7581499e-02
1.8701275e-02
1.5256486e-02
7.6568645e-03
-2.0508906e-03
-1.2659957e-02
-2.1677492e-02
-2.6127993e-02
-2.5325201e-02
-2.0598098e-02
-1.2508456e-02
-2.8109541e-03
5.1712786e-03
1.0315570e-02
1.3315340e-02
1.4655325e-02
1.5150105e-02
1.4791072e-02
1.1813152e-02
5.3822387e-03
-2.8584500e-03
-9.7927928e-03
-1.4830231e-02
-1.8133592e-02
-1.8722585e-02
-1.6749710e-02
-1.2041549e-02
-3.9799105e-03
5.1894750e-03
1.1428539e-02
1.5796060e-02
2.2862136e-02
3.2936990e-02
3.9309112e-02
3.4937414e-02
2.0009874e-02
1.6158871e-03
-1.2864452e-02
-2.1811661e-02
-2.6783349e-02
-2.9093098e-02
-2.8503596e-02
-2.4744539e-02
-1.9340420e-02
-1.2181521e-02
-3.3442886e-03
3.8699133e-03
8.2760172e-03
9.2370080e-03
6.4466817e-03
2.8290667e-03
-9.5216654e-04
-5.8885947e-03
-1.2981663e-02
-2.3422342e-02
-3.4780407e-02
-4.2467761e-02
-4.4361760e-02
-3.9281750e-02
-2.7520510e-02
-9.2757913e-03
1.2759762e-02
2.8658584e-02
3.5400648e-02
3.7977871e-02
3.7753575e-02
3.4366584e-02
2.8433160e-02
2.1367650e-02
1.3710391e-02
5.0966909e-03
-2.9777456e-03
-8.5397222e-03
-1.1032907e-02
-1.1360854e-02
-9.5982615e-03
-5.0608681e-03
9.1961858e-04
7.2271723e-03
1.5217130e-02
2.4645620e-02
3.2580316e-02
3.7386560e-02
3.6761308e-02
2.7052308e-02
7.4492626e-03
-1.3846237e-02
-2.6078881e-02
-2.9543004e-02
-2.9076385e-02
-2.6464360e-02
-2.2627852e-02
-1.7623723e-02
-1.0753165e-02
-2.8341884e-03
4.2026782e-03
1.0179405e-02
1.5284506e-02
1.6939572e-02
1.3168707e-02
6.1853719e-03
-7.7784639e-04
-4.4611156e-03
-4.0515911e-03
-1.3793417e-03
2.2197706e-03
5.7342765e-03
8.5400425e-03
1.0958618e-02
1.3931356e-02
1.4185964e-02
9.0303999e-03
3.1691834e-03
-2.9826351e-05
-1.9571043e-03
-4.1993630e-03
-8.7918952e-03
-1.5551153e-02
-2.0928348e-02
-2.2691410e-02
-2.0734729e-02
-1.5846652e-02
-1.0030675e-02
-5.3943208e-03
-2.1419779e-03
3.1182863e-04
3.1599795e-03
7.4831722e-03
1.0664088e-02
9.3672529e-03
2.8815338e-03
-8.0663726e-03
-2.0476134e-02
-2.9566716e-02
-3.1760018e-02
-2.4002636e-02
-9.4883585e-03
1.9599620e-03
8.2265361e-03
1.1618777e-02
1.2614242e-02
1.3315815e-02
1.5094154e-02
1.9308067e-02
2.6178220e-02
3.1747001e-02
3.3237230e-02
3.0134982e-02
2.2525995e-02
1.1665132e-02
-5.6846192e-04
-9.8616421e-03
-1.3357378e-02
-1.2692751e-02
-1.0186502e-02
-7.0799770e-03
-3.4085169e-03
1.0155520e-03
4.5994686e-03
4.8406212e-03
9.4435766e-04
-4.9745676e-03
-1.0809825e-02
-1.5566275e-02
-1.8115858e-02
-1.8466435e-02
-1.8360605e-02
-1.9053249e-02
-1.6873500e-02
-8.8602220e-03
7.4651737e-04
7.5248986e-03
1.0774892e-02
1.2314911e-02
1.6431733e-02
2.3784642e-02
3.0333043e-02
3.3522682e-02
3.3217659e-02
3.0390515e-02
2.4242622e-02
1.4513077e-02
4.8082625e-03
-2.9422297e-03
-9.3152671e-03
-1.6300295e-02
-2.5208712e-02
-3.1745196e-02
-3.2040037e-02
-2.7053253e-02
-1.9548843e-02
-1.2050701e-02
-5.4188532e-03
5.3961203e-04
6.0810853e-03
9.3375275e-03
7.8488900e-03
2.7930728e-03
-3.7123749e-03
-1.0207113e-02
-1.4210461e-02
-1.3934120e-02
-1.0850170e-02
-7.3721395e-03
-3.8303764e-03
2.8847740e-05
4.9205983e-03
1.0587602e-02
1.6301366e-02
2.0788773e-02
2.2542134e-02
2.3267838e-02
2.2492111e-02
1.6723885e-02
6.6151193e-03
-3.6261541e-03
-1.0980574e-02
-1.5658138e-02
-1.8931982e-02
-1.9090117e-02
-1.6075694e-02
-1.2868108e-02
-9.4897787e-03
-5.0542555e-03
1.0231846e-03
9.0781990e-03
1.7484220e-02
2.4026951e-02
2.6108036e-02
2.3046718e-02
1.7671593e-02
1.1428435e-02
5.6115423e-03
2.2425240e-03
1.4169601e-03
4.0747518e-03
9.9172348e-03
1.6355609e-02
2.1975651e-02
2.5102638e-02
2.1377054e-02
4.9001058e-03
-2.7001486e-02
-6.3055585e-02
-8.0619600e-02
-7.2189846e-02
-5.2671050e-02
-3.7478799e-02
-2.9748478e-02
-2.4369785e-02
-1.6251675e-02
-5.0444310e-03
7.4411145e-03
2.0377125e-02
3.1762652e-02
3.9024327e-02
4.2828549e-02
4.3950586e-02
4.0384479e-02
3.1111433e-02
1.7328200e-02
1.3424207e-03
-1.3923883e-02
-2.5967273e-02
-3.4066949e-02
-3.7748357e-02
-3.3292485e-02
-2.1220791e-02
-7.8636114e-03
6.0593855e-03
2.0483597e-02
3.1421281e-02
3.8374224e-02
4.2599769e-02
4.3809783e-02
4.1369773e-02
3.4461391e-02
2.2205306e-02
2.7998328e-03
-2.7145928e-02
-6.8602058e-02
-1.1828271e-01
-1.7004678e-01
-2.0791493e-01
-2.0091664e-01
-1.2359043e-01
-6.5449600e-03
7.9630890e-02
1.0916814e-01
1.0521769e-01
9.2417536e-02
8.1240144e-02
6.9924972e-02
5.5059990e-02
3.7447492e-02
1.8632004e-02
3.0316170e-03
-6.1741394e-03
-1.2213673e-02
-1.6620727e-02
-1.8452863e-02
-1.9287341e-02
-2.0621512e-02
-2.1098348e-02
-1.9053511e-02
-1.4662134e-02
-9.2370938e-03
-3.5762226e-03
2.2032382e-03
8.2599533e-03
1.7189178e-02
2.8895820e-02
3.4303522e-02
2.7781373e-02
1.4261842e-02
-1.5151396e-05
-1.0191923e-02
-1.4442917e-02
-1.4542990e-02
-1.1428039e-02
-5.5500046e-03
3.6311132e-03
1.6289149e-02
2.8806488e-02
3.7383984e-02
4.1904698e-02
4.3517409e-02
4.4774320e-02
4.8802434e-02
5.5155201e-02
6.3185814e-02
7.3655537e-02
8.4593200e-02
8.9178951e-02
7.7861183e-02
3.7267958e-02
-2.2849195e-02
-6.3912935e-02
-7.4072419e-02
-6.8350008e-02
-5.7187883e-02
-4.5346010e-02
-3.4612586e-02
-2.7281680e-02
-2.5192670e-02
-2.7446297e-02
-3.0553559e-02
-3.1300269e-02
-2.9614045e-02
-2.7373907e-02
-2.4215675e-02
-1.9178138e-02
-1.2396892e-02
-4.6783293e-03
3.2138376e-03
1.1453763e-02
1.9110489e-02
2.5745970e-02
2.9475582e-02
2.7284503e-02
1.9405415e-02
7.9293971e-03
-3.1500652e-03
-1.1559464e-02
-1.8187861e-02
-2.3003820e-02
-2.5710987e-02
-2.6183383e-02
-2.4047541e-02
-2.0173770e-02
-1.5769744e-02
-1.0942141e-02
-5.7105743e-03
1.9639910e-04
6.0766310e-03
1.0636062e-02
1.4086959e-02
1.7918277e-02
2.3854545e-02
2.8565848e-02
2.7094455e-02
2.1328701e-02
1.3498492e-02
2.4672054e-03
-9.2714708e-03
-1.7463863e-02
-2.2383507e-02
-2.5118325e-02
-2.3903979e-02
-1.9362690e-02
-1.4483682e-02
-1.0162144e-02
-4.8020641e-03
2.9322635e-03
1.0006018e-02
1.3707627e-02
1.5010703e-02
1.4408615e-02
1.2235841e-02
9.0291074e-03
4.0644425e-03
-3.3578468e-03
-1.1158238e-02
-1.5628787e-02
-1.5974342e-02
-1.3754886e-02
-1.0677601e-02
-6.2381295e-03
2.7624252e-04
6.4770845e-03
1.1079898e-02
1.6013507e-02
2.1874703e-02
2.5341649e-02
2.3393419e-02
1.4692133e-02
1.4675340e-03
-9.8287574e-03
-1.5524366e-02
-1.7233849e-02
-1.7374146e-02
-1.6995608e-02
-1.5429969e-02
-1.2110346e-02
-8.2146748e-03
-3.6304898e-03
1.6342928e-03
5.6876489e-03
7.4728751e-03
8.3034849e-03
9.1133626e-03
9.5863412e-03
1.1093943e-02
1.2349850e-02
9.7520946e-03
5.0424223e-03
1.2070856e-03
-2.1880906e-03
-6.2441406e-03
-1.0845650e-02
-1.3306873e-02
-1.2079734e-02
-9.1966680e-03
-4.9260069e-03
9.0122271e-04
6.0446819e-03
9.5802058e-03
1.1781635e-02
1.2617596e-02
1.1934443e-02
9.5908701e-03
5.9002988e-03
2.4228514e-03
7.0149718e-04
2.7496355e-05
-9.7472251e-04
-1.4036862e-03
8.3254826e-04
7.0745011e-03
1.4428604e-02
1.5760460e-02
1.1977518e-02
1.0310484e-02
1.1222137e-02
1.2809959e-02
1.4457460e-02
1.3140232e-02
6.8103336e-03
-2.1265770e-03
-1.0057097e-02
-1.5755225e-02
-2.0466405e-02
-2.4529266e-02
-2.5843583e-02
-2.4139300e-02
-2.2027165e-02
-2.0590002e-02
-1.7769479e-02
-1.1795599e-02
-3.2287018e-03
5.9466122e-03
1.2889878e-02
1.4879331e-02
1.2954135e-02
1.0205156e-02
6.9716412e-03
2.4067481e-03
-2.5778114e-03
-5.6532840e-03
-6.7390532e-03
-7.5294501e-03
-7.7347129e-03
-6.2565472e-03
-3.7141573e-03
-8.9618596e-04
2.8489927e-03
8.0093776e-03
1.3093491e-02
1.6110041e-02
1.6856765e-02
1.5169803e-02
9.5089676e-03
-2.2950197e-03
-2.0470145e-02
-4.2629659e-02
-6.5706313e-02
-8.6359056e-02
-1.0198093e-01
-1.0913441e-01
-1.0068705e-01
-6.6522046e-02
-1.5232984e-02
2.4784934e-02
4.4680567e-02
5.3978953e-02
5.8173534e-02
5.9420751e-02
5.8115200e-02
5.3285651e-02
4.5509596e-02
3.6558555e-02
2.6870352e-02
1.7611421e-02
1.0527520e-02
5.5793360e-03
2.5350461e-03
1.0323819e-03
1.2180171e-03
5.2866668e-03
1.3951276e-02
2.4847558e-02
3.5291182e-02
4.4078727e-02
4.9994860e-02
4.9535171e-02
3.8411692e-02
1.9807332e-02
2.7991066e-03
-1.0281073e-02
-2.0160557e-02
-2.6457516e-02
-3.0146323e-02
-3.1439290e-02
-3.1765704e-02
-3.1181634e-02
-2.9080866e-02
-2.7809413e-02
-2.7566740e-02
-2.6659093e-02
-2.1723265e-02
-1.0368853e-02
2.7013843e-03
9.7818344e-03
7.8357179e-03
5.9392176e-04
-9.2826262e-03
-2.2389455e-02
-3.5995592e-02
-4.5499724e-02
-4.5860018e-02
-2.9221087e-02
-1.6255195e-04
2.3197045e-02
3.5469552e-02
4.0669580e-02
4.0454819e-02
3.6443472e-02
2.9786682e-02
2.3642224e-02
2.0778178e-02
1.9612933e-02
1.7954027e-02
1.5857960e-02
1.2510010e-02
6.1901715e-03
-2.8603824e-03
-1.2601943e-02
-2.0019396e-02
-2.3571193e-02
-2.6295521e-02
-3.1535616e-02
-3.7222747e-02
-4.0151472e-02
-3.9318245e-02
-3.3840432e-02
-1.9866072e-02
1.4035954e-03
1.8354057e-02
2.5682855e-02
2.7438893e-02
2.5459948e-02
1.9625486e-02
1.0545985e-02
-1.5490532e-03
-1.3737937e-02
-2.1276599e-02
-2.2010806e-02
-1.6217869e-02
-5.8936752e-03
6.8011225e-03
1.8883698e-02
2.7287680e-02
3.2830289e-02
3.9078439e-02
4.7396769e-02
5.6894027e-02
6.8113192e-02
7.8141744e-02
8.0094086e-02
6.9646212e-02
4.0074174e-02
-2.6237598e-03
-3.5280255e-02
-5.0196764e-02
-5.4372421e-02
-5.3042389e-02
-4.9496630e-02
-4.4110703e-02
-3.6941524e-02
-2.9232932e-02
-2.1442262e-02
-1.3914226e-02
-7.3506638e-03
-1.8796459e-03
2.3394065e-03
6.0050785e-03
1.0001499e-02
1.1442472e-02
7.4081330e-03
-6.3631795e-04
-9.9037479e-03
-1.7326334e-02
-2.1289375e-02
-2.2245766e-02
-2.0962050e-02
-1.7197874e-02
-1.1068695e-02
-4.8619976e-03
1.2311519e-04
3.3630218e-03
5.7812054e-03
9.2825236e-03
1.4074590e-02
1.9580124e-02
2.4964647e-02
3.0294831e-02
3.3232338e-02
3.0836580e-02
2.4327331e-02
1.2331962e-02
-6.1463226e-03
-2.5781355e-02
-4.3690520e-02
-6.2237469e-02
-8.0736835e-02
-9.5023912e-02
-1.0461411e-01
-1.0984033e-01
-1.0782311e-01
-9.1459126e-02
-4.3982689e-02
2.5254405e-02
7.4784913e-02
9.3244020e-02
9.3874372e-02
8.3238708e-02
6.6356180e-02
4.9030877e-02
3.5398953e-02
2.5221468e-02
1.7400730e-02
1.1799180e-02
8.8728091e-03
7.9454062e-03
6.8397972e-03
6.9581858e-03
9.9081534e-03
1.3408337e-02
1.5555327e-02
1.5547180e-02
1.2430569e-02
4.9534478e-03
-5.0563296e-03
-1.2848239e-02
-1.5674989e-02
-1.2930071e-02
-8.1858051e-03
-6.3919163e-03
-5.9797703e-03
-4.2805605e-03
-2.2386922e-03
9.6290308e-04
6.7891240e-03
1.2637338e-02
1.4213309e-02
1.0798158e-02
5.4036572e-03
-3.4801160e-04
-6.2217211e-03
-1.0191797e-02
-1.1624983e-02
-1.1746393e-02
-9.7800995e-03
-5.6062981e-03
-1.8422928e-03
6.9709231e-04
3.3334713e-03
6.6702019e-03
1.0041320e-02
1.2118602e-02
1.2842080e-02
1.1981346e-02
6.5021297e-03
-4.3312923e-03
-1.7086411e-02
-2.8683274e-02
-3.5663264e-02
-3.5061875e-02
-2.7451328e-02
-1.6118920e-02
-4.5114650e-03
6.5144860e-03
1.6887770e-02
2.7484359e-02
4.0647567e-02
5.5557444e-02
7.0200707e-02
8.3699001e-02
9.5415866e-02
1.0696373e-01
1.1917247e-01
1.3026392e-01
1.3861941e-01
1.3809034e-01
1.1480801e-01
4.4890134e-02
-5.6721844e-02
-1.2600496e-01
-1.4342981e-01
-1.3336121e-01
-1.1306772e-01
-9.1287891e-02
-6.9541226e-02
-5.0273940e-02
-3.7570621e-02
-3.2017816e-02
-3.2002115e-02
-3.4060343e-02
-3.3170231e-02
-2.8188622e-02
-2.1687839e-02
-1.6284272e-02
-1.2163652e-02
-7.3277509e-03
-8.4270113e-04
6.9877307e-03
1.4326701e-02
1.8957863e-02
2.0251030e-02
1.8142756e-02
1.1943821e-02
2.1211754e-03
-8.3308383e-03
-1.5811215e-02
-1.8460601e-02
-1.8315196e-02
-1.8899406e-02
-2.0435712e-02
-2.0060421e-02
-1.5974981e-02
-8.6941502e-03
4.4160403e-04
8.4941664e-03
1.4050970e-02
1.8335461e-02
2.0822721e-02
2.0618831e-02
1.7516724e-02
1.1356069e-02
3.0664432e-03
-4.8406274e-03
-9.2924727e-03
-1.0919088e-02
-1.0674476e-02
-7.8991639e-03
-5.7810927e-03
-5.9984974e-03
-5.8460372e-03
-2.5737933e-03
3.4917132e-03
8.1008096e-03
1.0044376e-02
1.0613648e-02
8.8485895e-03
4.8758048e-03
-2.7085782e-04
-6.0381831e-03
-1.0939060e-02
-1.4795126e-02
-1.8238830e-02
-1.9178726e-02
-1.5821604e-02
-1.0059049e-02
-3.8542825e-03
3.5266054e-03
1.1880574e-02
1.8400103e-02
2.0143265e-02
1.6505624e-02
1.0359443e-02
4.9524179e-03
-2.7512283e-04
-6.6005739e-03
-1.1572008e-02
-1.3385268e-02
-1.3453615e-02
-1.2830301e-02
-1.1202518e-02
-8.3241591e-03
-2.9601093e-03
5.1420496e-03
1.2995081e-02
1.7402070e-02
1.7360534e-02
1.5345271e-02
1.2181845e-02
5.8932830e-03
-2.0795614e-03
-7.6267820e-03
-8.5740675e-03
-6.5011713e-03
-4.5498944e-03
-4.2487746e-03
-4.4082493e-03
-3.8633339e-03
-2.7243309e-03
3.9033122e-04
6.6470196e-03
1.3382528e-02
1.7270502e-02
1.6768227e-02
1.0785318e-02
5.9275206e-04
-1.0815802e-02
-1.9178902e-02
-2.1121456e-02
-1.8509776e-02
-1.4490232e-02
-1.1803327e-02
-1.0411782e-02
-7.9959371e-03
-4.6015059e-03
-3.1259982e-06
4.6799034e-03
8.7951521e-03
1.4363591e-02
1.9378608e-02
2.0618776e-02
1.8560967e-02
1.4719516e-02
1.0098224e-02
4.3901901e-03
-2.9511967e-03
-1.0586482e-02
-1.5692937e-02
-1.7305149e-02
-1.6665125e-02
-1.4570594e-02
-1.1436130e-02
-8.0019085e-03
-3.9861462e-03
2.2740950e-03
9.1779385e-03
1.3110623e-02
1.3783791e-02
1.1548409e-02
7.0923735e-03
2.9847640e-03
1.7206986e-04
-1.9896759e-03
-3.5170740e-03
-3.5123625e-03
-6.8086249e-04
3.4439191e-03
6.5357583e-03
8.6375551e-03
1.1608490e-02
1.5999239e-02
1.8275907e-02
1.6160179e-02
1.0276898e-02
2.8656681e-03
-3.8988781e-03
-1.0660988e-02
-1.7633695e-02
-2.2308943e-02
-2.3303709e-02
-2.1251810e-02
-1.5805436e-02
-7.5688288e-03
4.4675815e-04
7.0390465e-03
1.2163856e-02
1.5244198e-02
1.5973391e-02
1.3414221e-02
8.8397956e-03
3.8189636e-03
-3.2622341e-03
-1.1563032e-02
-1.6937359e-02
-1.8157560e-02
-1.6325073e-02
-1.2793849e-02
-9.7582657e-03
-7.7656913e-03
-4.8024351e-03
9.0331131e-04
8.3999873e-03
1.4766514e-02
1.8790620e-02
2.0836988e-02
1.9075723e-02
1.2584258e-02
4.2154070e-03
-3.9833929e-03
-9.9166336e-03
-1.1690829e-02
-1.1857371e-02
-1.2070415e-02
-1.1425730e-02
-9.3563900e-03
-3.6496261e-03
4.7623982e-03
1.2066586e-02
1.6469859e-02
1.7314214e-02
1.5885721e-02
1.2071555e-02
5.3132128e-03
-2.4019594e-03
-8.7809206e-03
-1.2534829e-02
-1.4971010e-02
-1.6683355e-02
-1.6526526e-02
-1.4558391e-02
-1.0905731e-02
-5.7652711e-03
-3.5402880e-05
5.9874723e-03
1.2256372e-02
1.8261433e-02
2.1653220e-02
1.9945134e-02
1.3678881e-02
4.5043721e-03
-5.5875585e-03
-1.4484034e-02
-1.9630225e-02
-2.0292837e-02
-1.8365974e-02
-1.4213662e-02
-9.0252258e-03
-5.7116447e-03
-3.6283081e-03
5.7709965e-04
7.4468876e-03
1.3849651e-02
1.6887200e-02
1.6156389e-02
1.2466358e-02
8.0799365e-03
4.1304953e-03
-6.4182219e-04
-5.2201525e-03
-8.0528823e-03
-8.1786991e-03
-5.0541808e-03
-5.1022802e-04
3.8778483e-03
7.8064795e-03
1.2609926e-02
1.9103863e-02
2.3287242e-02
2.0099466e-02
1.1500139e-02
4.0187907e-03
-1.8774514e-03
-9.7070215e-03
-1.7407298e-02
-2.2204717e-02
-2.4455246e-02
-2.2839553e-02
-1.8634489e-02
-1.5415021e-02
-1.2606777e-02
-7.2786878e-03
9.2576227e-04
8.3089030e-03
1.1819102e-02
1.2060926e-02
1.0691320e-02
8.3208084e-03
3.8015015e-03
-2.4218873e-03
-7.7414424e-03
-1.1416181e-02
-1.2162420e-02
-9.4320999e-03
-6.1323758e-03
-3.0179994e-03
1.1212165e-03
6.3910408e-03
1.2930794e-02
1.8949387e-02
2.2047075e-02
2.1829165e-02
1.8270849e-02
1.2334057e-02
4.7406108e-03
-4.1075876e-03
-1.1965858e-02
-1.5959469e-02
-1.6188184e-02
-1.5662319e-02
-1.5743479e-02
-1.5427683e-02
-1.2151926e-02
-5.8945087e-03
-3.2869367e-05
4.2438504e-03
7.4324605e-03
9.0643165e-03
8.9910347e-03
9.5146112e-03
1.0337284e-02
6.5445430e-03
-4.2396745e-04
-5.0178839e-03
-6.8368607e-03
-5.8645136e-03
-2.4373989e-03
-2.8147296e-04
-2.9326335e-05
1.1064616e-03
3.8362168e-03
8.4732652e-03
1.2589231e-02
1.2911879e-02
1.0983402e-02
8.1714155e-03
3.3936458e-03
-3.3645424e-03
-9.1721936e-03
-1.1474900e-02
-1.0697887e-02
-8.3049234e-03
-5.4256429e-03
-2.6970110e-03
-1.1213555e-04
2.8139804e-03
6.3049380e-03
1.0920341e-02
1.5961320e-02
1.9344540e-02
1.9948165e-02
1.6293719e-02
8.3031258e-03
-1.4679160e-03
-9.6793929e-03
-1.5183129e-02
-1.9258223e-02
-2.1215143e-02
-1.9435768e-02
-1.4639722e-02
-9.2552661e-03
-4.6546195e-03
3.8995200e-04
7.2506446e-03
1.5384363e-02
2.2035284e-02
2.4898555e-02
2.3435919e-02
1.7173252e-02
6.2146841e-03
-6.8839381e-03
-1.7920190e-02
-2.5447612e-02
-2.8449838e-02
-2.6592605e-02
-2.2132824e-02
-1.6008644e-02
-8.5861743e-03
-4.5290688e-04
7.5554590e-03
1.4854173e-02
2.0855014e-02
2.4853039e-02
2.6182642e-02
2.2945623e-02
1.5716026e-02
5.1781502e-03
-7.5137426e-03
-1.7044037e-02
-2.0952523e-02
-2.1966206e-02
-2.3439949e-02
-2.4301292e-02
-2.1094646e-02
-1.4596340e-02
-7.3973865e-03
-5.5845224e-04
5.8767955e-03
1.1480102e-02
1.5588689e-02
1.8019674e-02
1.7762792e-02
1.3911693e-02
7.2671838e-03
5.4694003e-04
-5.2643163e-03
-1.0164235e-02
-1.3001951e-02
-1.3526318e-02
-1.1468287e-02
-7.0000867e-03
-1.5456269e-03
4.2560942e-03
9.6388764e-03
1.2881491e-02
1.3325080e-02
1.0788428e-02
5.5072809e-03
-1.1940443e-03
-5.2715054e-03
-5.4270011e-03
-7.0045123e-03
-1.0637554e-02
-1.1938148e-02
-9.7712582e-03
-6.7733463e-03
-4.6235875e-03
-1.4433903e-03
2.5852664e-03
5.0186771e-03
6.3864136e-03
7.9847632e-03
8.5338988e-03
7.9698959e-03
6.3861190e-03
2.6211923e-03
-1.3671893e-03
-1.6148393e-03
2.1253490e-03
7.1006981e-03
1.2831096e-02
2.0157763e-02
2.7163089e-02
2.8471944e-02
1.9928300e-02
6.9656422e-03
-9.1230534e-04
-3.2357665e-03
-3.0145143e-03
-1.7277765e-03
-1.8798389e-03
-3.8617819e-03
-5.9661747e-03
-8.1343603e-03
-9.6248986e-03
-7.6873164e-03
-2.3882107e-03
1.8996272e-03
3.8149026e-04
-6.3399234e-03
-1.0723331e-02
-7.7351872e-03
-1.6370032e-03
1.9477045e-03
1.3261163e-03
-3.2240998e-03
-9.7570819e-03
-1.6202742e-02
-2.0454089e-02
-1.9040702e-02
-1.3406318e-02
-9.4367590e-03
-9.1852768e-03
-1.1116108e-02
-1.1411136e-02
-7.9369017e-03
-1.7973542e-03
5.8274048e-03
1.3642485e-02
2.1724760e-02
2.9429279e-02
3.4453012e-02
3.5545183e-02
3.2545809e-02
2.6109961e-02
1.6918084e-02
6.3233144e-03
-4.5514809e-03
-1.4443046e-02
-2.0740995e-02
-2.3281709e-02
-2.3538800e-02
-2.1313656e-02
-1.6261462e-02
-9.9793395e-03
-3.5717321e-03
2.5004903e-03
7.3436585e-03
1.1320417e-02
1.4316607e-02
1.4231202e-02
1.0179592e-02
3.4522219e-03
-5.2863469e-03
-1.3582059e-02
-1.7981694e-02
-1.8217963e-02
-1.6825324e-02
-1.5658756e-02
-1.3772902e-02
-1.2390119e-02
-1.3535752e-02
-1.7163491e-02
-2.2545996e-02
-2.9106702e-02
-3.8029491e-02
-4.7189496e-02
-5.3951110e-02
-5.3317167e-02
-3.0851405e-02
8.0673941e-03
3.6090313e-02
4.5503069e-02
4.4976045e-02
4.0257720e-02
3.4192075e-02
2.7929343e-02
2.3483113e-02
2.1851264e-02
2.1476548e-02
2.0738429e-02
1.7618049e-02
1.1347134e-02
2.6447465e-03
-8.3539154e-03
-1.9341841e-02
-2.7846234e-02
-3.3816533e-02
-3.8166242e-02
-4.1654781e-02
-4.4894426e-02
-4.9145782e-02
-5.1754447e-02
-4.5085726e-02
-1.9352543e-02
1.9708257e-02
4.9327933e-02
6.2523271e-02
6.4589489e-02
5.8799827e-02
4.9221291e-02
3.7774881e-02
2.4745880e-02
1.1188207e-02
1.0545160e-03
-4.1504163e-03
-7.1489817e-03
-8.1259271e-03
-6.3107969e-03
-2.0123414e-03
2.7849390e-03
7.5161529e-03
1.5426070e-02
2.6348681e-02
3.7335355e-02
4.5088393e-02
4.7407180e-02
4.4478089e-02
3.4789758e-02
1.4637850e-02
-1.2408719e-02
-3.3712793e-02
-4.2082922e-02
-4.0319111e-02
-3.5023897e-02
-2.9561778e-02
-2.3395031e-02
-1.6220812e-02
-9.0934474e-03
-2.1599550e-03
4.9128922e-03
1.0043929e-02
1.2584195e-02
1.3048834e-02
9.7368341e-03
3.4466295e-03
-2.2153414e-03
-5.5314600e-03
-6.6839103e-03
-7.7156480e-03
-8.4628949e-03
-5.9420435e-03
-7.6230373e-04
3.6458339e-03
4.2473675e-03
2.1737914e-03
2.2562503e-03
5.3426190e-03
8.8498772e-03
1.0055939e-02
7.3851208e-03
1.6314583e-03
-6.0241165e-03
-1.3065874e-02
-1.6772037e-02
-1.7120530e-02
-1.5224637e-02
-1.2742176e-02
-1.0146358e-02
-7.5349115e-03
-4.7122995e-03
3.3285179e-04
6.3687715e-03
9.6595727e-03
8.6603563e-03
4.0321567e-03
-2.5336510e-03
-9.9935980e-03
-1.5527655e-02
-1.4857417e-02
-9.5923402e-03
-4.2410582e-03
-2.5562035e-04
2.5486436e-03
4.9204445e-03
7.1404837e-03
9.3140158e-03
1.1770003e-02
1.4767299e-02
1.7312312e-02
1.7272447e-02
1.3732242e-02
6.7031929e-03
-1.6672420e-03
-7.7850840e-03
-1.1127313e-02
-1.2218068e-02
-1.1920331e-02
-1.1455895e-02
-9.8738929e-03
-5.7863392e-03
7.1172752e-04
7.5095984e-03
1.3864665e-02
2.0390145e-02
2.4556276e-02
2.3492900e-02
1.6618934e-02
4.5182517e-03
-9.9459446e-03
-2.3087556e-02
-3.3520084e-02
-3.9805763e-02
-3.9465621e-02
-3.3180544e-02
-2.3302672e-02
-1.1475664e-02
-7.8404606e-04
7.4078471e-03
1.5738272e-02
2.4576795e-02
3.1309479e-02
3.4842368e-02
3.5494132e-02
3.3649517e-02
2.9306600e-02
2.2212100e-02
1.2683029e-02
2.7841133e-03
-8.3834617e-03
-1.9289332e-02
-2.4271988e-02
-2.4175413e-02
-2.0535191e-02
-1.3110096e-02
-3.6847560e-03
3.9347188e-03
7.4742639e-03
8.4190379e-03
6.8738712e-03
2.2199609e-03
-2.6292816e-03
-4.8862371e-03
-6.5991315e-03
-9.7160977e-03
-1.1614454e-02
-9.2350385e-03
-2.6512955e-03
6.8275889e-03
1.7633771e-02
2.8664929e-02
3.7715009e-02
4.2029109e-02
4.0229791e-02
2.7842917e-02
7.2446882e-03
-9.8341055e-03
-2.0896141e-02
-2.8358080e-02
-3.0415195e-02
-2.7677940e-02
-2.4093010e-02
-2.0830176e-02
-1.5455939e-02
-8.7446416e-03
-3.0556144e-03
1.7262104e-03
6.2454422e-03
1.1790437e-02
1.8056768e-02
2.1571184e-02
2.0999145e-02
1.7997059e-02
1.3780254e-02
9.5090932e-03
5.4856500e-03
1.5451752e-03
-1.5136544e-03
-3.7209210e-03
-8.2859726e-03
-1.5578444e-02
-1.9496486e-02
-1.7110871e-02
-1.0388637e-02
-1.4298491e-03
6.4560050e-03
9.0543046e-03
6.3743466e-03
1.5066812e-03
-3.6333543e-03
-8.7547433e-03
-1.4047624e-02
-1.7741149e-02
-1.9732260e-02
-2.0981142e-02
-2.0718369e-02
-1.9490528e-02
-1.8641213e-02
-1.8333561e-02
-1.7218217e-02
-1.3662886e-02
-9.3608736e-03
-6.8093669e-03
-4.2534718e-03
8.7470328e-04
9.2060921e-03
1.9886392e-02
3.0672603e-02
3.8995043e-02
4.2712199e-02
4.1628634e-02
3.7483031e-02
3.0456504e-02
1.9442046e-02
5.5803159e-03
-7.0242878e-03
-1.5620238e-02
-2.0563248e-02
-2.2334236e-02
-2.2058935e-02
-2.1320783e-02
-1.8757330e-02
-1.3369275e-02
-7.7319095e-03
-1.9671615e-03
4.6376245e-03
1.0906022e-02
1.6928448e-02
2.1269931e-02
2.0667985e-02
1.4718885e-02
5.5601299e-03
-4.3094844e-03
-1.2223091e-02
-1.6915666e-02
-1.8444329e-02
-1.7161613e-02
-1.4142696e-02
-1.0665397e-02
-7.0120853e-03
-3.5552586e-03
-1.8073088e-03
-5.6260749e-05
5.4650495e-03
1.3683713e-02
1.9950879e-02
2.1874122e-02
2.1072264e-02
1.9293115e-02
1.5459291e-02
8.3823759e-03
-1.8267575e-04
-7.3866569e-03
-1.2211058e-02
-1.5048993e-02
-1.5986093e-02
-1.4893051e-02
-1.2805217e-02
-9.8284909e-03
-4.4760243e-03
2.1023669e-03
7.6673647e-03
1.1006751e-02
1.1512109e-02
9.7411931e-03
5.3240180e-03
-1.9892348e-03
-9.6956499e-03
-1.5327047e-02
-1.7903452e-02
-1.8292154e-02
-1.9023761e-02
-1.8306540e-02
-1.3112875e-02
-5.7197164e-03
8.6211894e-04
5.9606746e-03
9.8498187e-03
1.3764801e-02
1.9407292e-02
2.4071693e-02
2.1739852e-02
1.2557578e-02
2.1464076e-03
-5.3308085e-03
-9.2490965e-03
-1.2296652e-02
-1.4813374e-02
-1.4576971e-02
-1.1085849e-02
-5.6630577e-03
-2.2981042e-04
5.3268363e-03
1.1172893e-02
1.6695101e-02
2.0563777e-02
2.0810111e-02
1.6197983e-02
8.0977284e-03
-9.3061907e-05
-6.9939855e-03
-1.3309662e-02
-1.9042795e-02
-2.1413420e-02
-1.9482626e-02
-1.5144762e-02
-8.9367453e-03
-2.5164371e-03
2.6995617e-03
6.6043950e-03
9.1848167e-03
1.0408509e-02
8.8082707e-03
5.4269539e-03
2.5133688e-03
1.9374632e-05
-3.0505141e-03
-6.6066775e-03
-8.0953348e-03
-5.8894243e-03
-1.1377659e-03
4.0451887e-03
8.9397004e-03
1.5269339e-02
2.4054927e-02
3.2969173e-02
3.8276105e-02
3.7315425e-02
2.9740258e-02
1.5615865e-02
-3.5519430e-03
-2.0441572e-02
-2.9406296e-02
-3.2247965e-02
-3.2198046e-02
-3.0377964e-02
-2.6990126e-02
-2.2048671e-02
-1.5269735e-02
-8.4498005e-03
-2.6510866e-03
3.7641727e-03
1.0573256e-02
1.6840633e-02
2.0884288e-02
1.8883999e-02
1.0677347e-02
2.6108063e-04
-9.8793260e-03
-1.8974216e-02
-2.6633179e-02
-3.1985396e-02
-3.3993597e-02
-3.1027764e-02
-2.0814169e-02
-6.7387653e-03
3.5912425e-03
7.8218213e-03
9.7470515e-03
1.2521534e-02
1.5823526e-02
1.9765736e-02
2.3698686e-02
2.5957155e-02
2.8167970e-02
3.1243541e-02
3.3292284e-02
3.2872665e-02
2.9362737e-02
2.2504099e-02
1.0895065e-02
-6.2301237e-03
-2.7441359e-02
-5.0697578e-02
-7.2147433e-02
-8.8726645e-02
-9.8478782e-02
-9.7238716e-02
-8.1602832e-02
-4.6513782e-02
9.5658037e-04
3.8120416e-02
5.6928200e-02
6.3736614e-02
6.3677937e-02
5.7802896e-02
4.5216892e-02
2.8086644e-02
1.1310207e-02
-5.8832924e-04
-6.6689121e-03
-9.4056623e-03
-1.1548377e-02
-1.3256865e-02
-1.2834499e-02
-1.0385842e-02
-6.1447523e-03
1.4556882e-03
1.1758342e-02
2.3310081e-02
3.4303709e-02
4.0631992e-02
4.0566869e-02
3.4426432e-02
2.0721343e-02
4.4073375e-03
-4.0212444e-03
-4.4785586e-03
-2.2689553e-03
7.9663190e-04
2.2724545e-03
-8.4192467e-04
-7.7936251e-03
-1.4036157e-02
-1.7377481e-02
-1.8283441e-02
-1.7483536e-02
-1.6733305e-02
-1.6941506e-02
-1.7428670e-02
-1.8576049e-02
-2.0842987e-02
-2.4349053e-02
-2.8890207e-02
-3.2333229e-02
-3.4078370e-02
-3.5125556e-02
-3.3715548e-02
-2.5095575e-02
-3.3706003e-03
2.6807483e-02
4.9589470e-02
5.9912747e-02
6.1001435e-02
5.4201374e-02
4.3462213e-02
3.1703168e-02
1.8864030e-02
6.2927675e-03
-3.4557283e-03
-1.0620426e-02
-1.7300464e-02
-2.3396611e-02
-2.6899038e-02
-2.6039568e-02
-2.2270493e-02
-2.0707067e-02
-2.2164562e-02
-2.4143653e-02
-2.5516723e-02
-2.5381393e-02
-2.4593211e-02
-2.3309266e-02
-1.8549298e-02
-2.8460798e-03
2.0404589e-02
3.3772549e-02
3.4275557e-02
2.9751854e-02
2.3047950e-02
1.6212334e-02
1.1362899e-02
8.5998237e-03
7.7877180e-03
1.0274545e-02
1.4182069e-02
1.6249693e-02
1.6481560e-02
1.3573099e-02
6.5208419e-03
-2.1130463e-03
-9.9114222e-03
-1.5558685e-02
-1.9778656e-02
-2.4761772e-02
-2.9876445e-02
-3.2538090e-02
-3.1948124e-02
-2.7028530e-02
-1.2069057e-02
1.1451651e-02
3.0457752e-02
3.9981394e-02
4.3141723e-02
4.0942445e-02
3.4596491e-02
2.6080642e-02
1.6623716e-02
6.6796060e-03
-1.8685303e-03
-6.7654137e-03
-9.0253957e-03
-9.8536154e-03
-9.1255244e-03
-6.8986905e-03
-2.7098422e-03
3.0039518e-03
1.0444588e-02
1.8350227e-02
2.2578280e-02
2.2858073e-02
2.1976663e-02
2.0265923e-02
1.4426460e-02
9.5002928e-04
-1.5785790e-02
-2.6326857e-02
-2.9395374e-02
-2.9149321e-02
-2.6592252e-02
-2.0084932e-02
-9.2982468e-03
1.9626735e-03
9.4570665e-03
1.2754444e-02
1.3850534e-02
1.2520743e-02
7.6040889e-03
2.7053383e-04
-8.0207066e-03
-1.5800549e-02
-2.0159517e-02
-1.9662494e-02
-1.6999976e-02
-1.3076603e-02
-5.8423674e-03
3.6752134e-03
1.3677320e-02
2.3451569e-02
2.8386911e-02
2.6066668e-02
2.2702692e-02
2.0846742e-02
1.7567830e-02
1.1599004e-02
2.5641735e-03
-7.3120579e-03
-1.4077864e-02
-1.6758535e-02
-1.7892321e-02
-2.0177324e-02
-2.2789133e-02
-2.2262904e-02
-1.7081435e-02
-7.1505183e-03
6.8798601e-03
2.0978986e-02
3.0896049e-02
3.7178964e-02
4.0414466e-02
3.9450358e-02
3.6029044e-02
3.1706447e-02
2.3019041e-02
2.9551869e-03
-2.4065524e-02
-4.1062980e-02
-4.2347582e-02
-3.6231745e-02
-2.9447092e-02
-2.1735957e-02
-1.1736398e-02
-2.6600041e-03
2.5252201e-03
4.8812426e-03
4.2215386e-03
-5.4467886e-04
-7.1994495e-03
-1.3434712e-02
-1.8467951e-02
-2.0011424e-02
-1.7066431e-02
-1.2013887e-02
-6.9925221e-03
-2.7706355e-03
1.1595735e-03
5.6075618e-03
1.1167087e-02
1.7083584e-02
2.0780755e-02
2.0110939e-02
1.4824133e-02
6.7878473e-03
-2.3102388e-03
-1.1029259e-02
-1.6900454e-02
-1.9238640e-02
-1.8452354e-02
-1.4322083e-02
-8.0969371e-03
-2.0356293e-03
2.0946468e-03
4.1876954e-03
7.0429504e-03
1.1598702e-02
1.5494036e-02
1.8073921e-02
1.7800043e-02
1.4240862e-02
1.0533577e-02
6.7871969e-03
2.6324243e-03
-6.2228852e-04
-3.4010873e-03
-7.6402497e-03
-1.3281301e-02
-1.6165133e-02
-1.3966212e-02
-7.6311320e-03
1.2332646e-03
9.6672143e-03
1.5426344e-02
1.7537577e-02
1.5926782e-02
1.0568135e-02
1.5633815e-03
-7.8855237e-03
-1.4224040e-02
-1.6739191e-02
-1.6897429e-02
-1.5555477e-02
-1.2502703e-02
-7.6004183e-03
-6.9189461e-04
5.0683035e-03
8.3485243e-03
1.1234106e-02
1.2855029e-02
1.3391834e-02
1.2288972e-02
6.4328550e-03
-1.9399701e-03
-9.0757795e-03
-1.4425745e-02
-1.7688796e-02
-1.8351976e-02
-1.5383208e-02
-9.8796574e-03
-4.3640561e-03
9.1534423e-04
6.0676665e-03
1.0834765e-02
1.4572269e-02
1.6249220e-02
1.6837440e-02
1.6656902e-02
1.3905657e-02
8.8874545e-03
4.1842737e-03
6.0194531e-04
-2.3887935e-03
-3.7533401e-03
-2.1929536e-03
1.7777257e-03
3.5071032e-03
1.0931055e-03
-5.0231458e-04
1.5861488e-03
5.1487182e-03
6.9151575e-03
7.0064736e-03
5.5890636e-03
7.3825256e-04
-6.1098810e-03
-1.1618047e-02
-1.5124533e-02
-1.6617490e-02
-1.5221933e-02
-1.0511656e-02
-2.6614327e-03
6.2722074e-03
1.4543492e-02
2.4144683e-02
3.6608408e-02
4.9745535e-02
5.9319199e-02
6.1720087e-02
5.4657504e-02
3.6919085e-02
9.0549211e-03
-2.1905214e-02
-4.3794326e-02
-5.3917010e-02
-5.6166627e-02
-5.2082860e-02
-4.4449958e-02
-3.6357343e-02
-2.7152784e-02
-1.6342676e-02
-6.9636066e-03
-3.5453996e-04
4.3755296e-03
7.9938453e-03
1.0177779e-02
8.8889599e-03
4.0217967e-03
-2.5738806e-03
-9.7958636e-03
-1.4710529e-02
-1.5462275e-02
-1.4674724e-02
-1.3643383e-02
-1.1125010e-02
-7.0576042e-03
-1.3134794e-03
6.3290381e-03
1.2785966e-02
1.6235546e-02
1.8321755e-02
1.8741632e-02
1.6668173e-02
1.1360638e-02
3.5567237e-03
-3.1010220e-03
-7.5685512e-03
-1.0818810e-02
-1.2901603e-02
-1.3196226e-02
-1.0624429e-02
-7.0082279e-03
-6.3635288e-03
-9.3302435e-03
-1.4461958e-02
-2.3545334e-02
-3.9651271e-02
-6.1979486e-02
-8.6604040e-02
-1.0564279e-01
-1.0437107e-01
-6.1252590e-02
1.1003387e-02
6.0804617e-02
7.4136949e-02
7.0918989e-02
6.2115625e-02
5.2493125e-02
4.3943435e-02
3.7791864e-02
3.4414721e-02
3.2397504e-02
2.8943608e-02
2.1928874e-02
1.1739693e-02
1.4557906e-04
-1.1459643e-02
-2.3308811e-02
-3.5887717e-02
-4.6694887e-02
-5.2867504e-02
-5.5594368e-02
-5.6319750e-02
-5.4008687e-02
-4.6682982e-02
-2.9960221e-02
3.7664550e-03
4.7825134e-02
7.8798400e-02
8.9545808e-02
8.9146115e-02
8.3484022e-02
7.4433918e-02
6.1131605e-02
4.5661764e-02
3.2265323e-02
2.1306836e-02
1.0459670e-02
-8.1126101e-04
-8.9300320e-03
-1.0717152e-02
-7.1871738e-03
2.1223271e-04
9.8995189e-03
1.7701937e-02
1.9894884e-02
1.6643897e-02
9.2477192e-03
-9.0117116e-04
-1.1062465e-02
-2.0755811e-02
-3.1347354e-02
-4.0095366e-02
-4.3009345e-02
-4.2597271e-02
-4.2777818e-02
-4.0832777e-02
-3.1652885e-02
-1.6422848e-02
-5.2824784e-04
1.2556639e-02
2.3000660e-02
3.2170389e-02
3.8215805e-02
4.0451868e-02
4.2382535e-02
4.4550336e-02
4.3749542e-02
3.7476507e-02
2.4807456e-02
7.5686942e-03
-1.1754695e-02
-2.9817620e-02
-4.2128926e-02
-4.6017106e-02
-4.1948164e-02
-3.5694148e-02
-2.7971284e-02
-1.3961528e-02
-2.4629242e-03
-3.1114902e-03
-1.1009983e-02
-1.9230101e-02
-2.4132723e-02
-2.7066083e-02
-3.0010330e-02
-3.0234424e-02
-2.7879977e-02
-2.4709342e-02
-1.9580952e-02
-1.2407725e-02
-3.3480618e-03
5.9102856e-03
1.0546231e-02
7.8666836e-03
-1.1877960e-03
-1.4519622e-02
-2.9749486e-02
-4.2372647e-02
-4.7644381e-02
-4.1974991e-02
-2.0048511e-02
1.1881762e-02
3.5123843e-02
4.4271030e-02
4.5937103e-02
4.4658622e-02
4.3103175e-02
4.2302471e-02
4.1020260e-02
3.7793785e-02
3.1115610e-02
1.8477966e-02
5.4330284e-04
-1.9112538e-02
-3.6224352e-02
-4.6901106e-02
-5.1592070e-02
-5.1816991e-02
-4.7367079e-02
-4.1710999e-02
-3.8864904e-02
-3.7101696e-02
-3.3019595e-02
-2.5740078e-02
-1.3428235e-02
1.1451451e-02
4.3963257e-02
6.2162374e-02
6.0064133e-02
4.7737929e-02
3.3301389e-02
2.3005789e-02
1.7535821e-02
1.3068741e-02
9.6969795e-03
1.0058074e-02
1.3913607e-02
1.9683689e-02
2.5731239e-02
3.0088496e-02
3.1908899e-02
3.0933478e-02
2.5683737e-02
1.6813007e-02
6.9918290e-03
-2.3080700e-03
-7.9838683e-03
-8.2663832e-03
-7.5285726e-03
-9.3760975e-03
-1.3984922e-02
-1.9476110e-02
-2.1580566e-02
-2.0240598e-02
-1.7321523e-02
-1.1643303e-02
-2.5022769e-03
8.1402373e-03
1.5553631e-02
1.6396565e-02
1.2000078e-02
5.2813056e-03
-2.8057036e-03
-1.1121575e-02
-1.6986529e-02
-1.9265628e-02
-1.9344553e-02
-1.9296849e-02
-1.9317399e-02
-1.7910704e-02
-1.4934154e-02
-1.2466744e-02
-1.0145693e-02
-5.7635552e-03
4.1939980e-04
8.7831545e-03
1.6937480e-02
1.9547829e-02
1.6174315e-02
1.0115765e-02
4.5784391e-03
2.5949029e-04
-3.1068329e-03
-4.9700279e-03
-5.4304325e-03
-4.0479203e-03
-2.1500455e-04
4.7787573e-03
1.0719406e-02
1.7256101e-02
2.1146024e-02
2.1653228e-02
1.9017074e-02
1.2082989e-02
2.3172156e-03
-8.4282326e-03
-1.8216321e-02
-2.5173307e-02
-2.9658558e-02
-3.0350517e-02
-2.4737105e-02
-1.5253077e-02
-6.8295068e-03
4.4957674e-04
8.7934866e-03
1.6693420e-02
2.0983888e-02
2.0551497e-02
1.6015333e-02
9.5569950e-03
3.1534355e-03
-3.0059908e-03
-7.9300297e-03
-1.0366589e-02
-1.1677209e-02
-1.2338210e-02
-1.0309190e-02
-6.4852009e-03
-3.2896108e-03
-7.6063936e-04
1.8221088e-03
4.5932087e-03
7.4477552e-03
9.3060198e-03
8.5926258e-03
7.7486981e-03
8.4744989e-03
7.7605513e-03
4.1475604e-03
-1.5459396e-03
-6.7354561e-03
-8.6628095e-03
-8.0435799e-03
-6.5758537e-03
-3.5022464e-03
2.6795128e-03
1.1213095e-02
1.9106092e-02
2.4258938e-02
2.6050148e-02
2.2663355e-02
1.3738683e-02
3.2845551e-03
-6.8678969e-03
-1.7673558e-02
-2.6617532e-02
-3.1446837e-02
-3.1752837e-02
-2.7880711e-02
-2.1325691e-02
-1.1315313e-02
1.7912200e-03
1.3897182e-02
2.2136420e-02
2.6414688e-02
2.7943738e-02
2.5925117e-02
1.9619269e-02
1.1493127e-02
2.4670772e-03
-6.7912807e-03
-1.2870512e-02
-1.4193202e-02
-1.3024819e-02
-1.2305932e-02
-1.1259264e-02
-7.0946996e-03
1.5769397e-04
8.5739091e-03
1.5225232e-02
1.7713912e-02
1.6946780e-02
1.4331904e-02
9.0588967e-03
1.5641623e-03
-5.9042469e-03
-1.2256243e-02
-1.6417408e-02
-1.7083617e-02
-1.5503993e-02
-1.3719051e-02
-1.0800115e-02
-5.8258544e-03
2.3658073e-05
5.8560838e-03
9.1883729e-03
7.6953045e-03
3.7395088e-03
-1.5223727e-03
-9.7384492e-03
-1.9103882e-02
-2.5825988e-02
-2.8371634e-02
-2.7975510e-02
-2.6447373e-02
-2.3724336e-02
-1.8299587e-02
-9.7439547e-03
8.4284503e-04
1.2532553e-02
2.2022982e-02
2.6595805e-02
2.9836040e-02
3.3414728e-02
3.3112194e-02
2.7141473e-02
1.9238724e-02
1.2079574e-02
6.3334468e-03
3.1883884e-03
3.0718418e-03
6.0470828e-03
