-1.2432148e-03
-1.3603248e-02
-2.6809535e-02
-3.7155903e-02
-4.0384669e-02
-3.5644116e-02
-2.2598685e-02
-6.3332442e-03
5.3191698e-03
8.2166754e-03
1.6659422e-03
-1.2533323e-02
-3.2625605e-02
-5.2983455e-02
-6.3436423e-02
-5.4767823e-02
-2.6426136e-02
1.2156334e-02
5.2820164e-02
9.2151806e-02
1.2647306e-01
1.4937176e-01
1.5555912e-01
1.4489145e-01
1.1418530e-01
6.9414681e-02
3.0974713e-02
5.3503724e-03
-1.5942507e-02
-3.9026187e-02
-6.0175721e-02
-7.6259988e-02
-9.0583055e-02
-9.7627508e-02
-8.8610227e-02
-6.5494193e-02
-3.4651677e-02
-4.7143525e-03
1.5608789e-02
2.7706183e-02
3.4623186e-02
3.2097709e-02
2.1791439e-02
1.1850247e-02
4.2930457e-03
1.4723986e-03
6.4431805e-03
1.1503284e-02
8.8962418e-03
7.4881259e-03
1.4839949e-02
2.4468262e-02
3.2981652e-02
4.0528915e-02
4.3494447e-02
3.9054291e-02
3.1594339e-02
2.1985774e-02
5.8468277e-03
-1.2003192e-02
-2.7630263e-02
-4.5265071e-02
-6.6802943e-02
-8.4773799e-02
-9.1838300e-02
-9.0886048e-02
-8.3778105e-02
-6.8414972e-02
-4.5944735e-02
-2.2134340e-02
-4.3796746e-03
5.5054933e-03
9.8147289e-03
8.4493810e-03
7.3996283e-04
-7.1691495e-03
-1.1202357e-02
-1.6077584e-02
-2.4507461e-02
-3.3761342e-02
-4.0873406e-02
-4.6890909e-02
-4.9913832e-02
-4.1403695e-02
-1.5631313e-02
1.8049029e-02
4.1960119e-02
5.0942204e-02
5.0384229e-02
4.5398792e-02
3.8978500e-02
3.6710817e-02
4.2163982e-02
4.6353223e-02
3.9053595e-02
1.9492966e-02
-5.4985594e-03
-2.6477853e-02
-3.9006747e-02
-4.4573850e-02
-4.2803605e-02
-3.1202825e-02
-1.2032493e-02
1.0066835e-02
3.1294728e-02
4.7280984e-02
5.2741878e-02
4.7541028e-02
3.7053524e-02
2.3610572e-02
1.0950605e-02
2.3087668e-03
-6.9484865e-03
-1.7618052e-02
-2.4108850e-02
-1.7151139e-02
1.0290306e-02
4.8091916e-02
7.9822873e-02
1.0080383e-01
1.1054119e-01
1.0282913e-01
7.6531115e-02
4.1676787e-02
5.8104555e-03
-3.1093761e-02
-6.7924939e-02
-9.8765675e-02
-1.2038688e-01
-1.3239023e-01
-1.3543729e-01
-1.2899903e-01
-1.0795030e-01
-7.4290248e-02
-3.4136196e-02
9.6513338e-03
5.1261517e-02
8.2046965e-02
9.5477378e-02
9.5660871e-02
8.9135790e-02
7.6001676e-02
6.1760089e-02
5.0829144e-02
3.7408742e-02
1.9462738e-02
1.8275545e-03
-7.3242594e-03
8.9587568e-05
1.7808623e-02
3.1790727e-02
3.8745363e-02
4.2194149e-02
4.1233857e-02
3.6120616e-02
3.0510795e-02
2.3162313e-02
8.2498561e-03
-1.4838893e-02
-3.5041108e-02
-4.5103087e-02
-5.0594625e-02
-5.1519030e-02
-4.2186817e-02
-2.7607753e-02
-1.3961330e-02
-4.7270863e-03
-4.5026131e-03
-1.1647535e-02
-2.1280853e-02
-3.0934117e-02
-4.1441503e-02
-5.0642131e-02
-5.2645762e-02
-3.9431526e-02
-1.3312229e-02
6.1419111e-03
1.0624899e-02
7.3878954e-03
5.8230180e-03
1.5062082e-02
3.4294186e-02
5.1557067e-02
5.7847080e-02
5.5870626e-02
5.3625465e-02
5.1980777e-02
4.7501057e-02
4.1376939e-02
3.1891527e-02
1.7941506e-02
7.4774674e-03
3.5462596e-03
1.6457371e-04
-8.4263431e-04
5.0282701e-03
1.4488313e-02
2.4600656e-02
3.0427604e-02
2.1096275e-02
6.2687565e-04
-1.1404838e-02
-1.4528176e-02
-1.9314095e-02
-2.4375533e-02
-2.9395633e-02
-4.0952900e-02
-5.5460775e-02
-6.2117442e-02
-5.8746197e-02
-4.4979039e-02
-2.3485489e-02
-4.4610102e-04
1.8518389e-02
2.9212451e-02
3.4710595e-02
3.6296719e-02
3.3409195e-02
2.6811547e-02
1.2946279e-02
-4.1102616e-03
-1.6669994e-02
-2.7305986e-02
-3.4403892e-02
-3.4190198e-02
-2.9756314e-02
-2.1887025e-02
-1.1684760e-02
-9.2190917e-04
1.0332742e-02
2.0600286e-02
2.5878878e-02
2.5123123e-02
2.1707472e-02
1.7364291e-02
1.2796065e-02
6.7009872e-03
-1.5287757e-03
-1.1707764e-02
-2.5423502e-02
-4.0178448e-02
-4.9319083e-02
-4.9536495e-02
-4.0449676e-02
-2.1508245e-02
2.8260602e-03
2.4080669e-02
3.7446112e-02
4.2224968e-02
3.7560832e-02
2.6599337e-02
1.5346681e-02
5.9481587e-03
-8.0638712e-04
-5.9320963e-03
-1.0694648e-02
-1.5141367e-02
-2.1634129e-02
-2.5797059e-02
-2.0216515e-02
-7.9481603e-03
7.1349964e-03
2.3159697e-02
3.3231675e-02
3.2337084e-02
2.3638637e-02
1.1729048e-02
-5.1290264e-04
-1.0054342e-02
-1.7825993e-02
-2.8073809e-02
-4.2347332e-02
-5.9126993e-02
-7.3786885e-02
-7.7536006e-02
-6.6121164e-02
-4.3416755e-02
-1.6552021e-02
8.2324403e-03
2.9127886e-02
4.4370105e-02
5.2399617e-02
5.3680893e-02
4.9077364e-02
4.3517552e-02
3.7496321e-02
2.5490771e-02
1.2471043e-02
6.3406101e-03
3.4830613e-03
-2.0023909e-03
-8.0158915e-03
-6.2226865e-03
8.0644320e-03
2.9173346e-02
4.7985758e-02
6.0046519e-02
6.5012342e-02
6.0852617e-02
4.3603306e-02
1.8527065e-02
-5.1885500e-03
-2.7269563e-02
-4.4567979e-02
-5.3806840e-02
-6.0981766e-02
-6.6468327e-02
-6.3384045e-02
-5.0568102e-02
-3.2776385e-02
-1.3849262e-02
4.7979459e-03
2.0783432e-02
3.0897271e-02
3.4132554e-02
2.8984197e-02
1.7043573e-02
1.9932345e-03
-1.4437666e-02
-2.8808872e-02
-4.0740498e-02
-4.8974640e-02
-4.8795471e-02
-4.1057658e-02
-2.6652635e-02
-8.3391302e-03
8.5292703e-03
2.4999537e-02
4.0459178e-02
4.8210951e-02
4.6811287e-02
4.1847932e-02
3.3771847e-02
1.9651795e-02
2.1641425e-03
-1.3310796e-02
-2.2875170e-02
-2.5023467e-02
-2.4241191e-02
-2.3043034e-02
-1.6632905e-02
-4.6914298e-03
7.9765974e-03
1.7275677e-02
2.1259957e-02
2.2682845e-02
2.2225907e-02
1.5930658e-02
5.8742054e-03
-1.9770577e-03
-8.4684610e-03
-1.7681803e-02
-2.8479306e-02
-3.7666327e-02
-4.2042118e-02
-3.8139856e-02
-2.6977935e-02
-1.0505122e-02
7.7007689e-03
2.2074628e-02
3.1116568e-02
3.3725784e-02
3.3722111e-02
3.4295379e-02
3.1493144e-02
2.3316500e-02
9.3873616e-03
-8.6287538e-03
-2.5013177e-02
-3.4721953e-02
-4.1215199e-02
-4.7457869e-02
-4.7962879e-02
-3.7214548e-02
-1.3195120e-02
1.5196417e-02
3.5358210e-02
4.7248904e-02
5.3171462e-02
5.3023230e-02
4.8559101e-02
3.6720641e-02
1.8654270e-02
2.1829542e-03
-1.2336382e-02
-2.3510054e-02
-2.6715403e-02
-2.4834668e-02
-2.2325827e-02
-1.8209047e-02
-9.5864675e-03
-7.4144723e-04
4.2715512e-03
9.2150801e-03
1.3913481e-02
1.3704126e-02
5.7506347e-03
-6.6107991e-03
-1.5915977e-02
-1.9997061e-02
-2.3914770e-02
-3.0684904e-02
-3.6307555e-02
-3.8972360e-02
-3.6197665e-02
-2.2265984e-02
-2.1739420e-03
1.2777811e-02
2.1250218e-02
2.7306465e-02
3.4776373e-02
4.1230802e-02
4.0715400e-02
3.4499870e-02
2.5862382e-02
1.4058455e-02
-3.1443956e-03
-2.0276086e-02
-3.1304368e-02
-3.6778670e-02
-3.6188107e-02
-3.0334983e-02
-2.5040648e-02
-1.7671612e-02
-1.5372054e-03
1.6725106e-02
2.9361924e-02
3.6294434e-02
3.8622882e-02
3.8543092e-02
3.6648483e-02
3.2514143e-02
2.6283290e-02
1.6030799e-02
2.8836064e-03
-8.9122186e-03
-1.8151249e-02
-2.8161892e-02
-4.1547019e-02
-5.4786197e-02
-5.9187313e-02
-5.2076546e-02
-3.9471250e-02
-2.1887727e-02
1.4179266e-03
2.2324061e-02
3.5125493e-02
3.9284565e-02
3.8057575e-02
3.8790738e-02
3.9530595e-02
3.3825678e-02
2.1233691e-02
5.5064907e-03
-7.4994618e-03
-1.7143064e-02
-2.6339938e-02
-3.3401023e-02
-3.3360137e-02
-2.2435964e-02
-4.8130248e-03
1.2380227e-02
2.7261911e-02
3.6766101e-02
3.8113486e-02
3.3130726e-02
2.4498640e-02
1.2031850e-02
-3.2969292e-03
-1.8474021e-02
-3.1501866e-02
-4.2226280e-02
-5.1787793e-02
-5.6047810e-02
-4.9443445e-02
-3.8122649e-02
-2.9623439e-02
-1.7973285e-02
8.3306774e-04
2.0968790e-02
3.6472147e-02
4.4950333e-02
4.7100111e-02
4.4778719e-02
4.0314154e-02
3.5753179e-02
3.0451139e-02
2.0967223e-02
5.8756740e-03
-1.0463934e-02
-2.2761513e-02
-2.9219297e-02
-2.9169366e-02
-2.4969871e-02
-2.0194085e-02
-1.1083174e-02
6.3427921e-03
2.5989004e-02
3.7697046e-02
3.4603728e-02
2.0814770e-02
9.0553608e-03
4.3597334e-03
3.4650891e-03
4.7314598e-04
-8.8048303e-03
-2.0362199e-02
-2.9296397e-02
-3.6578139e-02
-4.1026350e-02
-3.6653155e-02
-2.2750039e-02
-6.0649200e-03
8.4865193e-03
1.9223886e-02
2.5011481e-02
2.8550301e-02
3.1683508e-02
3.0533918e-02
2.0637814e-02
5.2305500e-03
-8.2850955e-03
-1.9067937e-02
-3.1392331e-02
-4.5027669e-02
-5.3621594e-02
-5.4778916e-02
-4.7586840e-02
-3.0156589e-02
-6.6129757e-03
1.5299956e-02
2.8925267e-02
3.5288743e-02
3.9390350e-02
4.0507034e-02
3.6627983e-02
2.7488299e-02
1.4824452e-02
2.4940835e-03
-7.4559245e-03
-1.2666958e-02
-1.1094511e-02
-5.8662289e-03
-1.5105331e-03
8.6067111e-04
3.5572104e-03
8.4721530e-03
1.5910249e-02
2.3849375e-02
2.4197912e-02
1.3181197e-02
-3.7574421e-04
-9.9764318e-03
-1.7455247e-02
-2.4295994e-02
-3.3607245e-02
-4.4196068e-02
-4.7603539e-02
-4.3441864e-02
-3.5890846e-02
-2.2960025e-02
-1.5631498e-03
2.2539921e-02
3.8736592e-02
4.1820403e-02
3.3819761e-02
2.2361156e-02
1.3806455e-02
7.6680938e-03
1.2483999e-03
-6.3204850e-03
-1.6660750e-02
-2.5387144e-02
-2.4281926e-02
-1.4942545e-02
-5.0265744e-03
3.6397812e-03
1.2347268e-02
1.9502571e-02
2.3770446e-02
2.3723840e-02
2.1293183e-02
1.8460450e-02
1.2635670e-02
3.0645652e-03
-8.6331759e-03
-1.8037393e-02
-2.2673572e-02
-2.5501306e-02
-3.0093548e-02
-3.3138508e-02
-2.7215885e-02
-1.3511255e-02
3.3642014e-03
2.2136758e-02
3.9326218e-02
4.8356487e-02
4.6376946e-02
3.6211388e-02
2.0270256e-02
2.5991272e-03
-1.1239893e-02
-2.0102037e-02
-2.5108537e-02
-2.6969815e-02
-2.7468996e-02
-2.6690255e-02
-2.1554921e-02
-1.0347006e-02
4.1264291e-03
1.6019256e-02
2.4923403e-02
3.1476670e-02
3.3340630e-02
3.0764838e-02
2.3593939e-02
1.0434160e-02
-4.5890440e-03
-1.3490153e-02
-1.8057693e-02
-2.7637927e-02
-4.3680391e-02
-5.3892839e-02
-4.6494796e-02
-2.5098521e-02
-1.6508239e-03
1.6692590e-02
2.9146076e-02
3.6916566e-02
4.1583220e-02
4.2676168e-02
3.9568120e-02
3.4428795e-02
2.5591137e-02
1.1006778e-02
-3.8884898e-03
-1.6009442e-02
-2.2440314e-02
-2.1139684e-02
-1.7127731e-02
-1.2153530e-02
-5.4845905e-03
4.1222493e-03
1.8746295e-02
3.4082017e-02
4.2353051e-02
4.1074737e-02
2.9463842e-02
1.0953257e-02
-7.8280726e-03
-2.5914310e-02
-3.9620224e-02
-4.6488066e-02
-5.0266350e-02
-5.0380577e-02
-4.4261065e-02
-3.2300709e-02
-1.7704331e-02
-2.8843951e-03
1.2389411e-02
2.5725343e-02
3.3995511e-02
3.6664479e-02
3.5385541e-02
3.0362630e-02
2.1113886e-02
1.0928146e-02
2.0088441e-03
-8.6851426e-03
-2.1370666e-02
-3.0982078e-02
-3.5277762e-02
-3.1896676e-02
-1.7878180e-02
1.9281958e-03
1.6075733e-02
2.0171614e-02
2.0036404e-02
1.9572586e-02
1.8559830e-02
1.7073867e-02
1.4252966e-02
7.4858564e-03
-2.8481590e-03
-1.3409815e-02
-2.3394493e-02
-3.2152886e-02
-3.3569100e-02
-2.3450661e-02
-7.2890634e-03
7.5668419e-03
1.5635595e-02
1.6737014e-02
1.4374270e-02
1.0467409e-02
6.7549861e-03
3.9456864e-03
5.6578250e-04
-7.0989833e-03
-1.6070754e-02
-1.9018018e-02
-1.7018278e-02
-1.4511639e-02
-1.1470885e-02
-6.2007542e-03
4.4585594e-03
1.9769053e-02
3.2331215e-02
3.7149610e-02
3.3560462e-02
2.3529350e-02
1.1907615e-02
3.1673712e-03
-2.7014654e-03
-7.5653807e-03
-1.4298832e-02
-2.5380060e-02
-3.5040764e-02
-3.5217217e-02
-2.4421714e-02
-5.0313891e-03
1.7094362e-02
3.3761696e-02
4.0835925e-02
3.6832612e-02
2.5238849e-02
1.5160706e-02
7.6590195e-03
1.1797019e-03
-3.0826312e-03
-7.6435201e-03
-1.4162249e-02
-2.4941190e-02
-4.0849443e-02
-5.3914270e-02
-5.8361336e-02
-5.3501658e-02
-3.9403979e-02
-1.8646018e-02
4.8071922e-03
2.2521999e-02
2.9540277e-02
2.9730333e-02
2.7291008e-02
2.3946359e-02
1.9294271e-02
1.2647505e-02
6.5953109e-03
4.6838969e-03
5.2738284e-03
5.3333431e-03
8.0218913e-03
1.4368232e-02
2.0160248e-02
2.3029832e-02
2.4746101e-02
2.7697074e-02
2.4611971e-02
9.8981800e-03
-7.4531001e-03
-1.9043196e-02
-2.3759681e-02
-2.4775820e-02
-3.0745267e-02
-4.3346146e-02
-5.4412642e-02
-5.8913981e-02
-5.7131816e-02
-5.1367920e-02
-4.0320900e-02
-2.3962472e-02
-9.4025217e-03
1.2745865e-03
1.1552978e-02
2.5106742e-02
4.2916319e-02
5.5657215e-02
5.5720044e-02
4.5799470e-02
3.1837174e-02
1.8630029e-02
7.1536735e-03
-3.3325710e-03
-1.2838339e-02
-1.7519558e-02
-1.3443137e-02
-3.2664933e-03
9.1493249e-03
2.0893106e-02
2.7917600e-02
2.7645967e-02
2.2316114e-02
1.5999961e-02
9.9419170e-03
3.9059222e-03
-3.8802695e-03
-1.3618261e-02
-2.4392551e-02
-3.3342570e-02
-3.8578585e-02
-4.3862123e-02
-4.5914569e-02
-3.6621540e-02
-1.7265452e-02
3.4157981e-03
1.8543717e-02
2.8222240e-02
3.5214357e-02
3.6394077e-02
3.2056105e-02
2.8030815e-02
2.3616987e-02
1.7256284e-02
8.7494511e-03
-1.8956266e-03
-1.2087326e-02
-1.9231872e-02
-1.8754489e-02
-7.9351298e-03
8.7484646e-03
2.8068138e-02
4.7231614e-02
6.3016076e-02
7.6304033e-02
8.6340274e-02
9.1430729e-02
9.0760364e-02
8.4785160e-02
7.7289569e-02
7.4126973e-02
7.9176570e-02
8.8460245e-02
8.5828803e-02
5.1514834e-02
-9.8535770e-03
-6.6998737e-02
-9.6514717e-02
-9.9767174e-02
-9.2481945e-02
-8.8152901e-02
-8.9869547e-02
-9.6032027e-02
-1.0566627e-01
-1.1522112e-01
-1.2020206e-01
-1.2202123e-01
-1.2148352e-01
-1.1272598e-01
-9.0034037e-02
-4.9937950e-02
-5.4167454e-04
3.8942326e-02
6.1190509e-02
7.2052129e-02
7.6690950e-02
7.1880948e-02
5.8328696e-02
4.4409956e-02
2.6311145e-02
4.2477044e-04
-2.6005488e-02
-5.0848206e-02
-7.5322931e-02
-9.7275523e-02
-1.1357563e-01
-1.2172422e-01
-1.2104177e-01
-1.0953243e-01
-8.0033313e-02
-2.8281858e-02
4.2823169e-02
1.2956066e-01
2.1911917e-01
2.7390606e-01
2.4797605e-01
1.5544515e-01
6.6636328e-02
1.3192085e-02
-2.2122112e-02
-5.6477694e-02
-9.1203128e-02
-1.1231909e-01
-1.0760324e-01
-8.0095354e-02
-3.8407356e-02
2.9621773e-03
3.3077962e-02
5.5071678e-02
6.9808481e-02
7.4900034e-02
7.4268951e-02
7.1615459e-02
6.4267062e-02
4.9083043e-02
2.7577268e-02
4.2678623e-03
-1.8021174e-02
-3.8195214e-02
-5.3727394e-02
-6.4895771e-02
-7.5263648e-02
-7.9226472e-02
-6.8800335e-02
-4.8436347e-02
-2.5504108e-02
-7.2743536e-03
2.5109498e-03
8.9069895e-03
1.5976267e-02
2.3862302e-02
2.7928488e-02
2.3281340e-02
1.2517102e-02
1.0852960e-03
-8.3612748e-03
-1.3963468e-02
-1.7940311e-02
-2.4575515e-02
-3.2110843e-02
-4.0056596e-02
-5.1543976e-02
-6.5578461e-02
-7.4443453e-02
-6.9121596e-02
-3.9398236e-02
7.8372438e-03
4.0622450e-02
4.6618232e-02
3.8556825e-02
2.7499733e-02
1.7984857e-02
1.1053726e-02
9.4824279e-03
1.5517987e-02
2.7280649e-02
3.8909696e-02
4.4768312e-02
4.5224591e-02
4.4028090e-02
4.0175011e-02
3.2167208e-02
2.1017035e-02
8.4855398e-03
-4.4475023e-03
-1.8532928e-02
-3.1828848e-02
-4.3396813e-02
-4.9984880e-02
-4.6575150e-02
-3.4763541e-02
-1.7415324e-02
6.1850401e-04
1.5558469e-02
2.8337849e-02
3.7823581e-02
4.3241545e-02
4.5083850e-02
4.1990524e-02
3.4952046e-02
2.6753434e-02
1.8026556e-02
8.8436253e-03
-1.6720618e-03
-1.2409132e-02
-2.0672659e-02
-2.6572699e-02
-3.2846876e-02
-4.3350733e-02
-5.1990474e-02
-4.8990724e-02
-3.8314858e-02
-2.4055308e-02
-3.1893372e-03
1.9289367e-02
3.4368304e-02
4.2505629e-02
4.6573511e-02
4.3799826e-02
3.5053160e-02
2.5686601e-02
1.7666897e-02
8.1409230e-03
-5.7143781e-03
-1.8759220e-02
-2.6286486e-02
-2.9746211e-02
-2.8983612e-02
-2.4390896e-02
-1.7977620e-02
-9.0635146e-03
4.3970138e-03
1.9325355e-02
2.8104783e-02
2.8648763e-02
2.3847683e-02
1.7015785e-02
7.9795058e-03
-3.8749500e-03
-1.4145765e-02
-2.0635415e-02
-2.7590353e-02
-3.7546022e-02
-4.4312981e-02
-4.1224691e-02
-2.5536487e-02
-1.7507539e-03
1.8171571e-02
2.7858680e-02
3.0375275e-02
3.0365262e-02
3.0288506e-02
2.8875189e-02
2.4218843e-02
1.7644359e-02
9.0023030e-03
-8.9139537e-04
-8.2335226e-03
-1.1326486e-02
-1.2806606e-02
-1.4370580e-02
-1.5411495e-02
-1.8876912e-02
-2.1940578e-02
-1.6924211e-02
-7.8498578e-03
-1.5261246e-03
3.3651460e-03
1.0189293e-02
1.9247904e-02
2.4858316e-02
2.3477495e-02
1.8885173e-02
1.1336673e-02
3.3989761e-04
-9.5567387e-03
-1.6524566e-02
-2.1274070e-02
-2.3051980e-02
-2.1144671e-02
-1.6187383e-02
-9.2401657e-03
-2.8634439e-03
5.1962957e-04
2.6476279e-03
6.0350911e-03
8.0909165e-03
4.4544474e-03
-7.3743615e-03
-2.2729138e-02
-2.9361484e-02
-2.7929658e-02
-2.7879161e-02
-2.8080377e-02
-2.6697569e-02
-2.5127147e-02
-1.9395518e-02
-5.4893312e-03
1.2718765e-02
2.8576027e-02
3.9263576e-02
4.5657269e-02
4.8112567e-02
4.5023504e-02
3.8312053e-02
3.3370307e-02
3.1202730e-02
2.6605428e-02
1.6503800e-02
3.0682896e-03
-1.0723671e-02
-2.1325757e-02
-2.4242121e-02
-2.1642528e-02
-1.8952483e-02
-1.3615580e-02
-2.7501965e-03
8.0706998e-03
1.2586367e-02
1.1995070e-02
1.0294373e-02
7.4235123e-03
1.8892238e-03
-4.2489709e-03
-8.6908328e-03
-1.3072274e-02
-2.0107805e-02
-2.8444996e-02
-3.4425205e-02
-3.7817901e-02
-3.8512742e-02
-3.3002235e-02
-1.7012583e-02
9.8603289e-03
4.3896518e-02
7.9687347e-02
1.1084029e-01
1.3379187e-01
1.4535769e-01
1.3767383e-01
1.0082326e-01
4.3998964e-02
-3.5990115e-03
-3.1022514e-02
-4.7494868e-02
-5.9028266e-02
-6.7339529e-02
-7.2013836e-02
-6.9803608e-02
-6.0410047e-02
-4.7329268e-02
-3.2455787e-02
-1.8715481e-02
-8.7861446e-03
-1.3345799e-03
4.2243043e-03
8.0465750e-03
9.2652520e-03
2.9808761e-03
-1.2191913e-02
-3.1064002e-02
-4.8634099e-02
-6.3683708e-02
-7.5204516e-02
-7.8158066e-02
-6.7851515e-02
-4.8167348e-02
-2.6943554e-02
-6.2107614e-03
1.2198483e-02
2.6069175e-02
3.6116143e-02
4.1480103e-02
4.4045610e-02
4.4109051e-02
4.0830508e-02
3.8156483e-02
3.5863214e-02
3.2026931e-02
2.2261295e-02
2.1109228e-03
-2.0043263e-02
-2.9921130e-02
-2.3358741e-02
-9.5083012e-03
6.3929492e-03
2.6976812e-02
4.8332849e-02
6.3256193e-02
6.5868056e-02
4.7720249e-02
1.4260136e-02
-1.4712500e-02
-3.2989120e-02
-4.2753951e-02
-4.4491245e-02
-4.0305574e-02
-3.1910423e-02
-2.5111692e-02
-2.4736118e-02
-2.6849587e-02
-2.6794022e-02
-2.5306671e-02
-2.1945579e-02
-1.3654205e-02
8.4598683e-05
1.6123075e-02
2.8006715e-02
3.1640628e-02
3.2592458e-02
3.8051333e-02
4.5098774e-02
4.7563030e-02
4.4157153e-02
3.6822065e-02
2.4106518e-02
4.9516811e-03
-1.2090785e-02
-2.1150261e-02
-2.5465112e-02
-2.5420015e-02
-1.8249766e-02
-3.8779509e-03
1.6293093e-02
3.5878191e-02
4.7377170e-02
4.8328170e-02
3.8704864e-02
2.0736220e-02
-2.3398308e-03
-2.3764761e-02
-3.6058149e-02
-4.1496036e-02
-4.8685800e-02
-6.0570051e-02
-7.4631038e-02
-9.1689925e-02
-1.0695435e-01
-1.0941488e-01
-9.5604689e-02
-5.9795716e-02
-8.3906115e-03
3.2550194e-02
5.3404873e-02
6.0723560e-02
6.0824752e-02
5.8978947e-02
5.4970112e-02
4.7215550e-02
3.7356771e-02
2.6641562e-02
1.6217047e-02
7.5253638e-03
-6.6130524e-05
-7.2452002e-03
-1.4659402e-02
-2.2395574e-02
-2.4566901e-02
-1.6448592e-02
-1.3087874e-03
1.6204970e-02
3.0805439e-02
3.8889739e-02
4.0793298e-02
3.8401590e-02
3.2224147e-02
2.2494448e-02
1.2682146e-02
4.8068899e-03
-5.6350736e-04
-5.2425719e-03
-1.1811716e-02
-1.9995303e-02
-2.9179305e-02
-3.8239459e-02
-4.7256055e-02
-5.1620280e-02
-4.6212618e-02
-3.4738775e-02
-1.5878572e-02
1.1485580e-02
3.7461201e-02
5.8200921e-02
7.8649653e-02
9.5257339e-02
9.9176032e-02
9.2774438e-02
8.2331705e-02
6.9851214e-02
5.3452830e-02
2.0184086e-02
-2.7156891e-02
-6.2355874e-02
-7.7511393e-02
-7.8795342e-02
-6.8043071e-02
-4.8853258e-02
-2.8973890e-02
-1.4801186e-02
-5.7617266e-03
-9.7089750e-05
2.3419311e-03
6.9559507e-04
-4.1103923e-03
-8.7777204e-03
-1.6249426e-02
-2.8348564e-02
-3.9540654e-02
-4.6496837e-02
-4.9193542e-02
-4.7120777e-02
-3.7010014e-02
-2.0463285e-02
-5.7799889e-03
3.3271189e-03
1.1000306e-02
2.1569390e-02
3.1106230e-02
3.2606105e-02
2.6079306e-02
1.6875315e-02
6.4596900e-03
-6.0062966e-03
-1.5953812e-02
-1.7324764e-02
-1.0919162e-02
-2.6018540e-03
6.2086564e-03
1.6013413e-02
2.2318462e-02
2.3361174e-02
2.2100043e-02
1.7572626e-02
9.7457875e-03
3.2953444e-03
-1.6950816e-03
-8.7351890e-03
-1.8321755e-02
-2.8344116e-02
-3.6925282e-02
-4.5499053e-02
-5.2886129e-02
-4.9655614e-02
-3.2242345e-02
-7.0156391e-03
2.0635302e-02
4.4136121e-02
5.6939260e-02
5.8545271e-02
5.2892583e-02
4.4379996e-02
3.3342516e-02
2.0005553e-02
4.4080020e-03
-1.6117981e-02
-3.9110586e-02
-5.9183839e-02
-7.1724640e-02
-7.3873179e-02
-7.0655707e-02
-6.7638994e-02
-6.5155075e-02
-6.4825498e-02
-6.3615264e-02
-5.2215098e-02
-1.6386379e-02
3.8519494e-02
7.5542554e-02
7.9632615e-02
6.5424310e-02
4.7041728e-02
3.0583903e-02
1.3782448e-02
-6.4170336e-04
-5.3252575e-03
1.0267313e-03
1.5247730e-02
3.0497049e-02
3.7782380e-02
3.5899847e-02
3.0040150e-02
2.4670915e-02
2.0031210e-02
1.3204375e-02
3.3992607e-03
-8.8833904e-03
-2.0909767e-02
-2.9110668e-02
-3.2315228e-02
-2.9890302e-02
-2.0705703e-02
-5.5071479e-03
1.1444999e-02
2.4456030e-02
2.9962779e-02
3.0955435e-02
3.3262533e-02
3.7061195e-02
3.6873568e-02
2.9424264e-02
1.5858792e-02
-1.4164123e-03
-1.6449604e-02
-2.6240097e-02
-3.3381721e-02
-3.7308978e-02
-3.6695865e-02
-3.0964113e-02
-1.9371101e-02
-3.6101335e-03
1.1636511e-02
2.0410944e-02
2.3581624e-02
2.2889464e-02
1.6953221e-02
1.1546409e-02
9.7576133e-03
7.3389494e-03
4.7498937e-05
-1.1225840e-02
-1.8733866e-02
-2.1358284e-02
-2.2208773e-02
-1.8500766e-02
-9.9193215e-03
6.8261186e-04
1.1673517e-02
2.0529584e-02
2.7604627e-02
3.4703553e-02
3.7481236e-02
3.1711510e-02
2.0811617e-02
8.8489400e-03
-5.1981234e-03
-2.0940633e-02
-3.3050355e-02
-3.5977475e-02
-2.9002470e-02
-1.7952062e-02
-8.7800079e-03
1.2118197e-04
1.1381533e-02
2.0505203e-02
2.4248553e-02
2.4877963e-02
2.3761002e-02
2.0184615e-02
1.4016935e-02
3.6364218e-03
-1.0921246e-02
-2.4727143e-02
-3.2504681e-02
-3.2287828e-02
-2.8686287e-02
-2.2551119e-02
-9.8747595e-03
5.3955776e-03
1.5298109e-02
1.6864171e-02
1.3747792e-02
1.1505105e-02
1.2168583e-02
1.3087645e-02
1.2200768e-02
9.0108935e-03
4.9853427e-04
-1.3893379e-02
-2.8166210e-02
-3.6405276e-02
-3.5517929e-02
-2.3606530e-02
-4.2491312e-03
1.6933331e-02
3.2633430e-02
3.6324262e-02
3.1553785e-02
2.4277561e-02
1.9467231e-02
1.6918457e-02
1.2709135e-02
7.2394004e-03
-1.0573418e-03
-1.0372026e-02
-1.8560557e-02
-2.9214644e-02
-3.8648212e-02
-4.1293144e-02
-3.8283277e-02
-3.1469545e-02
-2.1385627e-02
-7.7200564e-03
8.5154085e-03
2.3981653e-02
3.3653637e-02
3.6288462e-02
3.4886753e-02
3.0791360e-02
2.4834104e-02
1.8608663e-02
1.1150748e-02
-1.0633209e-03
-1.4563102e-02
-2.2336406e-02
-2.4167998e-02
-2.0101765e-02
-1.0940354e-02
-2.1180999e-03
4.2451057e-03
9.5400227e-03
1.3913953e-02
1.5682747e-02
1.2051398e-02
5.0694845e-03
-2.3719314e-03
-1.2321105e-02
-2.6161468e-02
-3.9410461e-02
-4.4882105e-02
-4.0841162e-02
-2.8857261e-02
-1.3433548e-02
4.6034649e-04
1.4176939e-02
2.8421862e-02
3.8413186e-02
4.1791936e-02
3.9498907e-02
2.9741336e-02
1.3398930e-02
-2.4702454e-03
-1.5047983e-02
-2.4617055e-02
-3.0554886e-02
-3.2658099e-02
-2.8623423e-02
-2.0665494e-02
-1.2158349e-02
4.0247645e-04
1.6413867e-02
2.8517913e-02
3.3703820e-02
3.2664369e-02
2.7465235e-02
2.2447993e-02
1.9085331e-02
1.3663251e-02
2.5900635e-03
-1.2004569e-02
-2.4456117e-02
-3.2686414e-02
-3.7134981e-02
-3.4156703e-02
-2.1986330e-02
-6.1590202e-03
9.1342409e-03
2.0286551e-02
2.3904482e-02
2.4833566e-02
2.6081396e-02
2.5585845e-02
2.2508954e-02
1.2494334e-02
-3.2962406e-03
-1.8272130e-02
-2.9460312e-02
-3.4408581e-02
-3.3763778e-02
-2.7472148e-02
-1.5377371e-02
-1.1116505e-03
1.1096996e-02
1.8711995e-02
2.4236770e-02
2.8024134e-02
2.7426183e-02
2.3757705e-02
1.8045611e-02
9.8567443e-03
7.5028724e-05
-1.0980061e-02
-2.3330387e-02
-3.5716389e-02
-4.2878779e-02
-4.0117658e-02
-2.9070935e-02
-1.2794510e-02
5.5353368e-03
2.2245685e-02
3.2323338e-02
3.5458880e-02
3.5254577e-02
2.9884520e-02
2.1139546e-02
1.5449429e-02
1.1496906e-02
3.0289383e-03
-1.0496154e-02
-2.3022085e-02
-2.9343791e-02
-2.8539189e-02
-2.2039475e-02
-1.4684255e-02
-8.4226474e-03
1.4342613e-05
8.8838957e-03
1.4995608e-02
1.6226574e-02
1.1416772e-02
4.2907153e-03
-2.3560900e-03
-8.3662495e-03
-1.6262745e-02
-2.7930601e-02
-3.6633474e-02
-3.3787415e-02
-2.2095385e-02
-1.1164814e-02
-1.5088607e-03
1.2543815e-02
2.6657275e-02
3.5450351e-02
4.0209935e-02
3.8764985e-02
3.2598423e-02
2.7914838e-02
2.3929486e-02
1.4862367e-02
-1.6994397e-04
-1.3935902e-02
-2.0527213e-02
-2.1066922e-02
-1.8408057e-02
-1.3320789e-02
-4.0084873e-03
7.9324122e-03
1.7497599e-02
2.4237592e-02
2.6316871e-02
2.1210474e-02
1.2690943e-02
3.3247940e-03
-6.4861627e-03
-1.6531434e-02
-2.8441277e-02
-3.9287551e-02
-4.4472881e-02
-4.3429217e-02
-3.5982422e-02
-2.4148743e-02
-9.6413885e-03
6.9565884e-03
2.1313707e-02
2.8347411e-02
2.9013896e-02
2.8332629e-02
2.8050211e-02
2.6692809e-02
1.9960891e-02
8.0891891e-03
-3.1165771e-03
-1.1933576e-02
-1.8584080e-02
-2.1463227e-02
-2.0136109e-02
-1.8644091e-02
-1.7263158e-02
-8.2269386e-03
5.8394255e-03
1.4500150e-02
1.6762729e-02
1.3049759e-02
5.1845147e-03
1.3365601e-03
2.0797339e-03
8.5532617e-04
-3.7816635e-03
-1.2273427e-02
-2.0175305e-02
-2.1011565e-02
-1.7586626e-02
-1.2765501e-02
-4.4287527e-03
8.0815316e-03
1.9412576e-02
2.4163496e-02
2.3000344e-02
1.8924042e-02
1.4002334e-02
8.6470126e-03
1.1594979e-03
-9.2432188e-03
-2.0119172e-02
-3.0307194e-02
-3.8661539e-02
-4.3180056e-02
-4.3285407e-02
-3.6250089e-02
-2.1736382e-02
-4.0986857e-03
1.1229511e-02
2.2416052e-02
3.1697032e-02
3.7868951e-02
3.7728870e-02
3.1838156e-02
2.4335111e-02
1.7740915e-02
1.0332762e-02
2.0610664e-04
-1.2509359e-02
-2.3378135e-02
-2.7814527e-02
-2.5232770e-02
-1.6291903e-02
-3.6218882e-03
9.8307887e-03
2.2574975e-02
3.3932409e-02
3.9729464e-02
3.7640196e-02
3.1430190e-02
2.2505377e-02
1.1078478e-02
-1.8930095e-03
-1.5427016e-02
-2.9147726e-02
-4.1680443e-02
-5.0789542e-02
-5.4266943e-02
-4.7746188e-02
-3.3082185e-02
-1.2652966e-02
1.1307193e-02
2.8809273e-02
3.4922174e-02
3.4717894e-02
3.5972870e-02
3.7812615e-02
3.3675162e-02
2.5573390e-02
1.7013950e-02
6.9010959e-03
-4.6720199e-03
-1.5179874e-02
-2.3064360e-02
-2.8222807e-02
-2.8631163e-02
-2.2398543e-02
-1.1160727e-02
-1.0173083e-04
9.4307323e-03
1.8007946e-02
2.3389373e-02
2.4529850e-02
2.0722665e-02
1.2361758e-02
1.8325426e-03
-9.7177189e-03
-2.0460179e-02
-2.7017183e-02
-2.8224195e-02
-2.3992187e-02
-1.4922759e-02
-2.3182267e-03
7.5096472e-03
1.1172455e-02
1.6880069e-02
2.5006199e-02
2.7324956e-02
2.2480645e-02
1.5961473e-02
1.0449604e-02
2.5638217e-03
-6.4088338e-03
-1.1435698e-02
-1.4270378e-02
-1.8266192e-02
-2.0181636e-02
-1.8497661e-02
-1.2749609e-02
-1.2420090e-03
1.1071493e-02
1.5677779e-02
1.1814372e-02
5.2197297e-03
-3.0796521e-03
-1.4984332e-02
-2.7852661e-02
-3.3327509e-02
-2.6376264e-02
-1.5279319e-02
-9.8801886e-03
-8.7088668e-03
-8.6909729e-03
-8.8328820e-03
-6.0489636e-03
-4.1388913e-04
4.7649850e-03
1.0294400e-02
1.5538979e-02
1.4430564e-02
5.9791735e-03
-1.7362337e-03
5.3921419e-04
1.1936825e-02
1.8633550e-02
1.1421636e-02
-1.6925777e-03
-1.0152694e-02
-1.0277650e-02
-2.1202141e-03
1.0440782e-02
2.2799554e-02
3.0915049e-02
2.9912941e-02
2.2641292e-02
1.7640830e-02
1.7963114e-02
2.1880663e-02
2.2831512e-02
1.6542223e-02
4.5647602e-03
-1.0459387e-02
-2.5094881e-02
-3.9611058e-02
-5.3490355e-02
-6.2615640e-02
-6.4870362e-02
-5.9868414e-02
-4.8023826e-02
-3.0477335e-02
-1.1276024e-02
6.6108120e-03
2.1665673e-02
2.9513182e-02
3.0605904e-02
2.9388696e-02
2.6366772e-02
2.0989553e-02
1.7161171e-02
1.5529411e-02
1.2220445e-02
6.7787446e-03
-5.1995304e-06
-5.9315752e-03
-6.2099897e-03
1.6644456e-04
1.0091968e-02
2.2365116e-02
3.2579961e-02
3.5198512e-02
3.0698392e-02
2.4121930e-02
1.8848554e-02
1.2015261e-02
4.6177736e-03
-6.1216885e-04
-4.2305253e-03
-7.7027605e-03
-1.1962033e-02
-1.2831941e-02
-1.0704783e-02
-4.4591061e-03
6.7716243e-03
1.3968332e-02
1.4941987e-02
1.2133584e-02
7.2202338e-03
2.6745402e-03
-1.5493628e-03
-4.3848461e-03
-4.4216506e-03
-4.9583833e-03
-9.0701857e-03
-1.4465113e-02
-1.8103764e-02
-1.6744352e-02
-1.0180305e-02
-1.0976630e-06
1.4162847e-02
2.7751793e-02
3.4801968e-02
3.3599123e-02
2.5311927e-02
1.2361744e-02
-2.2023627e-03
-1.2241652e-02
-1.6839964e-02
-2.2645081e-02
-3.6033330e-02
-5.4375441e-02
-6.7262943e-02
-7.1990620e-02
-6.8303549e-02
-5.6085228e-02
-3.9287383e-02
-1.9860220e-02
1.8744890e-03
2.3715475e-02
3.7571502e-02
4.0683896e-02
4.0101672e-02
3.7788204e-02
3.2540962e-02
2.4846007e-02
1.8441389e-02
1.4423304e-02
6.1325979e-03
-7.1880313e-03
-2.0876339e-02
-2.8842344e-02
-2.7907892e-02
-2.2088025e-02
-1.3987651e-02
-4.3077560e-03
7.6129624e-03
2.1667732e-02
3.0025790e-02
2.8496467e-02
2.3816103e-02
1.9119967e-02
1.2461995e-02
3.5519241e-03
-4.9378884e-03
-1.2535860e-02
-2.0968340e-02
-2.6791326e-02
-2.8427990e-02
-2.6818601e-02
-1.9006283e-02
-6.4738024e-03
4.9516589e-03
1.2673422e-02
1.6572591e-02
2.0494041e-02
2.4140239e-02
2.1233495e-02
1.2299475e-02
2.6512774e-03
-3.5579055e-03
-6.9161732e-03
-1.2053156e-02
-1.9294082e-02
-2.5615526e-02
-2.7182576e-02
-2.1248372e-02
-9.2062732e-03
6.4733584e-03
2.0755335e-02
2.8140971e-02
2.8335260e-02
2.3849545e-02
1.9005204e-02
1.5093572e-02
1.1061785e-02
5.4572435e-03
-5.2759044e-03
-1.8182275e-02
-2.6277269e-02
-2.6745885e-02
-2.0424630e-02
-9.6999829e-03
4.4775388e-03
1.7901899e-02
2.4622504e-02
2.5700046e-02
2.2880264e-02
1.7344910e-02
1.1247461e-02
4.4368224e-03
-2.6332905e-03
-9.0312067e-03
-1.4875235e-02
-2.1673893e-02
-2.8473367e-02
-3.0727218e-02
-2.5689043e-02
-1.2854339e-02
3.2374628e-03
1.4651763e-02
2.0206211e-02
2.1851069e-02
2.1812909e-02
2.1968681e-02
1.9960890e-02
1.3149508e-02
1.6651909e-03
-1.0490706e-02
-2.1640553e-02
-3.2754073e-02
-3.9410337e-02
-3.6844901e-02
-2.4076708e-02
-2.1855234e-03
2.3090084e-02
4.4667535e-02
6.0083494e-02
6.6642782e-02
6.0569903e-02
4.4628048e-02
2.3574929e-02
9.2021480e-04
-1.6943059e-02
-2.7920062e-02
-3.7916872e-02
-4.8115752e-02
-5.2746146e-02
-4.8943067e-02
-3.8942425e-02
-2.6668027e-02
-1.4039096e-02
-4.3935986e-04
1.3968417e-02
2.3897895e-02
2.6474061e-02
2.2736927e-02
1.6801191e-02
1.3989897e-02
9.9309660e-03
-8.3962332e-04
-1.6172088e-02
-2.7633612e-02
-3.0317845e-02
-2.8010698e-02
-2.1683249e-02
-9.9833440e-03
1.7307215e-03
8.5751155e-03
1.5295311e-02
2.5809542e-02
3.4112740e-02
3.3550824e-02
2.4947854e-02
1.2099686e-02
-2.0008314e-03
-1.6724984e-02
-2.9200719e-02
-3.5599386e-02
-3.6794459e-02
-3.1171431e-02
-1.9616443e-02
-7.5657993e-03
6.1448541e-03
2.0386493e-02
2.7298666e-02
2.6000355e-02
2.3491599e-02
2.1837801e-02
1.5984680e-02
6.9286863e-03
-9.3985030e-04
-7.5557906e-03
-1.3808249e-02
-2.1889803e-02
-3.1056932e-02
-3.5339394e-02
-3.2562004e-02
-2.4943523e-02
-1.4133696e-02
-3.4683968e-03
5.5640044e-03
1.3964633e-02
1.9699214e-02
2.0871111e-02
2.0705278e-02
2.1572322e-02
1.9854261e-02
1.2915117e-02
1.9211446e-03
-1.1563325e-02
-2.3540815e-02
-2.6485071e-02
-1.9416938e-02
-8.2220873e-03
2.5843073e-03
1.2158418e-02
2.1247721e-02
2.7631420e-02
3.1964770e-02
3.5270315e-02
3.4965629e-02
3.1975710e-02
2.9554746e-02
2.8798401e-02
2.7283082e-02
2.0763502e-02
1.1818919e-02
6.5084937e-03
2.7714861e-03
-3.2735782e-03
-1.3781467e-02
-3.0754195e-02
-5.0948619e-02
-6.7358665e-02
-7.4767546e-02
-7.3018807e-02
-6.5418714e-02
-5.1985077e-02
-3.0816604e-02
-4.7059540e-03
1.7981977e-02
3.1822117e-02
3.8493134e-02
4.0777415e-02
4.1446514e-02
4.2628776e-02
4.0466947e-02
3.2147431e-02
2.2830005e-02
1.3787083e-02
3.7623120e-03
-6.3951306e-03
-1.7643543e-02
-2.7669480e-02
-3.3025108e-02
-3.1984571e-02
-2.1900457e-02
-5.6409278e-03
9.4191192e-03
1.9978840e-02
2.5246866e-02
2.4642274e-02
1.9849202e-02
1.4171700e-02
8.8077002e-03
4.1565405e-03
2.3802259e-03
1.9683676e-06
-1.0165912e-02
-2.5671218e-02
-3.6888101e-02
-3.9585522e-02
-3.7452662e-02
-3.3556758e-02
-2.5482498e-02
-1.1543044e-02
4.2720725e-03
1.6715672e-02
2.4496426e-02
2.8268622e-02
2.8093653e-02
2.4810138e-02
2.0333348e-02
1.4137711e-02
3.9607758e-03
-7.7968462e-03
-1.7777037e-02
-2.3885996e-02
-2.4378701e-02
-2.0227524e-02
-1.1051318e-02
3.2829790e-03
1.7631036e-02
2.7459206e-02
3.1237748e-02
3.0573661e-02
3.0207024e-02
2.6297169e-02
1.3295094e-02
-3.2916196e-03
-1.7675422e-02
-2.8952724e-02
-3.6733192e-02
-4.1509466e-02
-4.3172504e-02
-3.8419453e-02
-2.4742484e-02
-5.4001219e-03
1.2525688e-02
2.3859622e-02
2.8895414e-02
3.2859525e-02
3.5542353e-02
3.2770571e-02
2.4510612e-02
1.3715020e-02
3.6490317e-03
-7.1205482e-03
-1.9374633e-02
-3.0727237e-02
-3.7879257e-02
-3.8048340e-02
-2.9953497e-02
-1.5914915e-02
-1.1738045e-03
1.2299681e-02
2.5382428e-02
3.7154489e-02
4.1638631e-02
3.7456710e-02
2.8925973e-02
1.6912331e-02
4.5837484e-03
-4.8840059e-03
-1.1461041e-02
-1.6020927e-02
-1.8838507e-02
-1.6425056e-02
-1.0106408e-02
-4.1002510e-03
1.0360504e-03
6.6384481e-03
1.2931340e-02
1.5696085e-02
1.2359709e-02
4.9378988e-03
-3.3251330e-03
-1.1310544e-02
-2.1863621e-02
-3.6626324e-02
-5.1911854e-02
-6.1499050e-02
-6.0280479e-02
-4.7421917e-02
-2.4780392e-02
4.7177250e-03
3.0827414e-02
4.4615415e-02
4.9333742e-02
5.0282837e-02
4.8145917e-02
4.2874025e-02
3.4723491e-02
2.3506617e-02
1.2404285e-02
2.4139261e-03
-9.6746810e-03
-2.2281025e-02
-3.3139329e-02
-3.9814826e-02
-3.6182421e-02
-2.2414424e-02
-4.9735799e-03
1.2775537e-02
2.9087018e-02
4.2719014e-02
5.2403044e-02
5.6813935e-02
5.4095616e-02
4.1520240e-02
2.3651506e-02
1.0646435e-02
6.0624418e-03
3.4963936e-03
-2.1147501e-03
-8.2867911e-03
-1.5162384e-02
-2.2445933e-02
-2.6695439e-02
-3.0879444e-02
-3.7414663e-02
-4.4344111e-02
-5.0138601e-02
-5.3336117e-02
-5.3045169e-02
-4.6207818e-02
-3.2165596e-02
-1.4981806e-02
4.3178734e-03
2.5051997e-02
4.6160055e-02
6.5024848e-02
7.4135733e-02
7.0303910e-02
5.0477240e-02
1.6559062e-02
-1.7035542e-02
-4.1334516e-02
-5.6335707e-02
-6.3019181e-02
-5.8432863e-02
-4.0661415e-02
-1.5033727e-02
1.0341797e-02
2.9649344e-02
4.2552811e-02
5.2077248e-02
5.9690933e-02
6.3026200e-02
5.8549457e-02
4.7706593e-02
3.3196505e-02
1.4308402e-02
-5.9743773e-03
-2.4565240e-02
-4.0276858e-02
-4.8587984e-02
-4.9300390e-02
-4.6780355e-02
-4.3624678e-02
-4.2058977e-02
-4.2688115e-02
-4.2411228e-02
-4.0445923e-02
-3.8495037e-02
-3.3328629e-02
-1.8960891e-02
2.5403517e-03
2.1665925e-02
3.4865093e-02
4.2864119e-02
4.5115615e-02
4.3648205e-02
4.0880266e-02
3.6781209e-02
3.2565553e-02
2.9225725e-02
2.6877388e-02
2.5245837e-02
2.1474902e-02
1.6267267e-02
1.2481674e-02
8.2165069e-03
-8.9606711e-04
-1.7632677e-02
-3.8829554e-02
-5.6695591e-02
-6.8135808e-02
-7.0583804e-02
-6.1150745e-02
-4.5146439e-02
-2.7483275e-02
-7.8581318e-03
1.0741500e-02
2.3157101e-02
3.0441888e-02
3.7405001e-02
4.4663832e-02
4.8321658e-02
4.3545109e-02
3.2150771e-02
2.4615188e-02
2.3045054e-02
2.2377651e-02
2.0500464e-02
1.5995046e-02
1.1233591e-02
8.2594028e-03
4.8671881e-03
-7.1914614e-03
-2.5366544e-02
-3.1824600e-02
-2.5901085e-02
-1.8283168e-02
-1.0654456e-02
-3.3243479e-03
1.0163496e-03
2.1947538e-03
-2.2592488e-04
-9.6014435e-03
-2.1505301e-02
-2.8801230e-02
-3.1857862e-02
-2.8919219e-02
-1.8456631e-02
-4.8710150e-03
7.3892526e-03
1.5007018e-02
1.8763037e-02
2.2804415e-02
2.6954060e-02
2.8236994e-02
2.6943142e-02
2.3171754e-02
1.0210315e-02
-1.2288259e-02
-3.1869880e-02
-4.3404791e-02
-4.9489572e-02
-4.9253045e-02
-4.2223295e-02
-3.0574599e-02
-1.6366909e-02
-6.1125927e-04
1.2859417e-02
2.0056374e-02
2.3458586e-02
2.4632177e-02
2.2958594e-02
1.9051440e-02
1.2021528e-02
2.7553110e-03
-9.5774463e-03
-2.3277259e-02
-2.9638617e-02
-2.7539983e-02
-2.3421293e-02
-1.9688123e-02
-1.1868833e-02
4.6633028e-03
2.3989982e-02
3.5525149e-02
3.8764353e-02
3.8745376e-02
3.5845405e-02
2.5834325e-02
7.7148152e-03
-1.1265328e-02
-2.3368816e-02
-2.7926639e-02
-2.8304671e-02
-2.3218420e-02
-1.0647366e-02
5.9460249e-03
2.3669718e-02
4.0656202e-02
5.1891697e-02
5.4458330e-02
5.2657881e-02
4.7073308e-02
3.2575198e-02
1.1179542e-02
-1.2710778e-02
-3.7990940e-02
-5.7869597e-02
-6.5903108e-02
-6.7095315e-02
-6.4933450e-02
-5.7627175e-02
-4.4539616e-02
-2.4991071e-02
-3.3097454e-03
1.2636919e-02
2.0952958e-02
2.6612212e-02
3.4691989e-02
4.3126217e-02
4.5052196e-02
3.7605943e-02
2.0698859e-02
-3.6673232e-03
-2.6769137e-02
-3.9985143e-02
-4.5499160e-02
-4.6029400e-02
-3.9643559e-02
-3.0063367e-02
-2.1876800e-02
-1.1630442e-02
7.9776500e-03
3.2849379e-02
4.7244494e-02
4.4326834e-02
3.3720082e-02
2.4787678e-02
1.4719189e-02
4.8685234e-04
-1.1610113e-02
-1.6709703e-02
-1.7623834e-02
-1.3747381e-02
-2.6081949e-03
1.1690468e-02
2.4878807e-02
3.5256719e-02
3.8191087e-02
3.2224969e-02
2.2929686e-02
1.4550552e-02
7.6612765e-03
8.3959819e-04
-6.9379368e-03
-1.6605050e-02
-2.7866329e-02
-3.7383024e-02
-4.0150684e-02
-3.2845005e-02
-1.8409849e-02
-7.9005518e-04
1.6593965e-02
2.8056369e-02
3.2642997e-02
3.1643904e-02
2.4102642e-02
1.2433419e-02
1.4231047e-03
-5.2284408e-03
-7.1351548e-03
-1.0501963e-02
-1.8001264e-02
-2.4850854e-02
-2.9348742e-02
-2.7952749e-02
-1.9838701e-02
-1.2038819e-02
-4.7171264e-03
3.7675374e-03
1.0565583e-02
1.4665299e-02
1.7774905e-02
2.1133585e-02
2.1705952e-02
1.6972672e-02
6.5666344e-03
-8.3579501e-03
-2.3140365e-02
-3.3601948e-02
-3.6845754e-02
-3.2835432e-02
-2.2546130e-02
-5.7826792e-03
1.2170016e-02
2.4747945e-02
3.0212594e-02
3.0746061e-02
2.7754668e-02
2.1691579e-02
1.3029832e-02
9.1424607e-04
-8.9763148e-03
-1.4509624e-02
-1.9924358e-02
-2.2941397e-02
-2.3895440e-02
-2.2193480e-02
-1.1763260e-02
3.6973482e-03
1.7423337e-02
2.7807191e-02
3.3531438e-02
3.3653771e-02
2.6786136e-02
1.6132803e-02
6.7767283e-03
-1.9690185e-03
-1.0677738e-02
-1.8533716e-02
-2.4504114e-02
-2.6735663e-02
-2.7246420e-02
-2.6769299e-02
-2.1370108e-02
-1.0795464e-02
-9.1716886e-06
8.6094376e-03
1.5840975e-02
1.9711165e-02
1.7215452e-02
7.8521135e-03
-2.1885240e-03
-7.2258817e-03
-9.9702524e-03
-1.4597625e-02
-1.9967108e-02
-2.1445395e-02
-1.9961726e-02
-1.6162355e-02
-5.8804872e-03
8.4092806e-03
1.9818959e-02
2.7110157e-02
3.0990664e-02
3.0344486e-02
2.4181055e-02
1.2239084e-02
-1.5871758e-03
-1.3596352e-02
-2.7529037e-02
-4.6009013e-02
-6.5433898e-02
-7.9115459e-02
-8.1034304e-02
-6.8177177e-02
-4.0051127e-02
-1.8477041e-03
3.5295934e-02
6.0551837e-02
7.3621804e-02
7.7902165e-02
7.2425457e-02
6.0210555e-02
4.6954047e-02
3.1628811e-02
1.3186922e-02
-2.8525353e-03
-1.4226637e-02
-2.2135707e-02
-2.6981740e-02
-2.8330100e-02
-2.3863849e-02
-1.4714429e-02
-3.9006413e-03
8.2458350e-03
1.6707764e-02
1.7488486e-02
1.5241706e-02
1.2424888e-02
7.9098194e-03
3.3584623e-03
-5.9964672e-04
-6.5707428e-03
-1.2911089e-02
-1.6768851e-02
-1.9438358e-02
-1.9847496e-02
-1.6395961e-02
-7.2693893e-03
6.6564032e-03
1.9216765e-02
2.8822776e-02
3.6475430e-02
4.0861443e-02
3.9772076e-02
3.0565127e-02
1.6436930e-02
5.3291805e-03
-1.3670893e-03
-7.0376458e-03
-8.9988084e-03
-1.6869235e-03
1.3872703e-02
3.4401070e-02
5.5451710e-02
6.7031107e-02
5.7373571e-02
3.0182564e-02
7.4987854e-03
-2.4584400e-03
-7.7256301e-03
-1.3128618e-02
-1.9415643e-02
-2.6063782e-02
-3.4438850e-02
-4.4677995e-02
-5.3962961e-02
-5.8034841e-02
-5.4077304e-02
-4.3354364e-02
-2.8739340e-02
-1.3218822e-02
2.1632795e-03
1.7982230e-02
3.0131194e-02
3.3272284e-02
2.9184911e-02
2.0712738e-02
7.5157729e-03
-9.4346899e-03
-2.8819685e-02
-4.8959659e-02
-6.8523390e-02
-8.4485490e-02
-9.3170851e-02
-9.6229284e-02
-9.6589384e-02
-9.2617220e-02
-7.8126802e-02
-5.3735755e-02
-2.6792022e-02
2.6487253e-04
2.9169200e-02
5.9262144e-02
8.3444806e-02
9.5511747e-02
9.6107115e-02
8.5587171e-02
6.5480846e-02
4.4234120e-02
3.0149644e-02
2.4252551e-02
2.6360272e-02
3.6004172e-02
4.6905306e-02
5.2704654e-02
4.5574681e-02
2.3703460e-02
1.3799622e-03
-8.8338276e-03
-5.9337622e-03
2.7070987e-04
-3.5395950e-03
-1.7620525e-02
-3.3447961e-02
-4.4163082e-02
-4.9053462e-02
-5.1129013e-02
-4.8114686e-02
-3.9480820e-02
-3.1960110e-02
-2.7160183e-02
-2.0685636e-02
-1.0128352e-02
4.2349235e-03
1.8489792e-02
3.0582429e-02
3.9614822e-02
4.2550543e-02
3.6567610e-02
2.0382830e-02
-9.2477178e-04
-2.2726110e-02
-4.0536227e-02
-3.7400035e-02
-7.8959378e-03
2.9047866e-02
5.7685777e-02
7.2048537e-02
7.6694587e-02
7.8314894e-02
7.3581630e-02
6.2873125e-02
4.9440707e-02
3.1832999e-02
1.0583620e-02
-1.3417029e-02
-3.6774578e-02
-5.1334290e-02
-5.3053609e-02
-4.3722209e-02
-2.6740475e-02
-6.0654364e-03
1.1228527e-02
2.0258315e-02
2.1231302e-02
1.5652058e-02
6.2885268e-03
-3.7223398e-03
-1.1120922e-02
-1.5118200e-02
-1.7268567e-02
-1.9334922e-02
-2.2540695e-02
-2.4965855e-02
-2.4075616e-02
-1.6897383e-02
9.8108862e-04
2.7340504e-02
5.4496790e-02
7.4535046e-02
8.0852298e-02
7.4654480e-02
5.8333782e-02
3.1350910e-02
2.2342031e-03
-1.9544617e-02
-3.7166998e-02
-5.5435864e-02
-7.0560929e-02
-7.5307134e-02
-6.4801159e-02
-4.4894124e-02
-2.7443790e-02
-1.3777595e-02
-1.1263345e-03
8.1908726e-03
9.0484625e-03
3.1845976e-03
-6.7150530e-04
-2.9797164e-03
-9.7377144e-03
-2.1195854e-02
-3.5577340e-02
-5.0119705e-02
-6.0603700e-02
-6.5807193e-02
-6.5275520e-02
-5.5944667e-02
-3.9776784e-02
-2.1956170e-02
-4.3227421e-03
7.2997808e-03
8.7632964e-03
8.4964320e-03
1.4510702e-02
2.7889943e-02
4.3803779e-02
5.1315051e-02
4.9317352e-02
4.2720423e-02
3.0558094e-02
1.1956727e-02
-9.3890590e-03
-2.4364226e-02
-2.6185168e-02
-1.7581780e-02
-4.8823104e-03
9.4753042e-03
2.3044094e-02
3.0747972e-02
3.0630005e-02
2.6342644e-02
2.2945096e-02
2.0332332e-02
1.4448044e-02
5.1063931e-03
-2.5256446e-03
-8.7512018e-03
-1.7147380e-02
-2.3890756e-02
-2.3782368e-02
-1.6032858e-02
-5.6873199e-03
3.6043125e-03
1.1547185e-02
1.5879249e-02
1.7711459e-02
1.8672566e-02
1.7628859e-02
1.4572528e-02
8.9997932e-03
1.4837027e-04
-1.0272482e-02
-2.2847915e-02
-3.6734032e-02
-4.4967583e-02
-4.6241484e-02
-4.1305063e-02
-2.8460082e-02
-1.1657463e-02
5.8906133e-03
2.0969748e-02
2.9788470e-02
3.4262653e-02
3.4704660e-02
3.0841914e-02
2.5770696e-02
2.0274343e-02
1.1870223e-02
-1.7422522e-03
-1.6556488e-02
-2.4546895e-02
-2.2782622e-02
-1.3821595e-02
-3.3136038e-03
5.1603161e-03
1.2500246e-02
1.7820667e-02
1.9258805e-02
1.9574177e-02
1.9674496e-02
1.5395710e-02
7.9422093e-03
1.2991347e-03
-4.5474037e-03
-1.0202098e-02
-1.5411354e-02
-2.0416185e-02
-2.3368521e-02
-1.9573150e-02
-1.1441963e-02
-4.1665296e-03
2.4718803e-03
8.8294416e-03
1.4931625e-02
1.8447401e-02
1.6444304e-02
1.2193472e-02
9.2462817e-03
4.8379977e-03
-4.9646004e-03
-1.9063906e-02
-3.2145513e-02
-4.1110794e-02
-4.5307727e-02
-4.0950817e-02
-2.6581171e-02
-9.3168242e-03
7.7872263e-03
2.6814984e-02
4.2578938e-02
5.0756419e-02
5.0846615e-02
4.3500152e-02
3.2315163e-02
1.7862202e-02
-4.3287342e-04
-1.9101916e-02
-3.3495334e-02
-4.2043374e-02
-4.5976371e-02
-4.2711771e-02
-3.0697727e-02
-1.5532806e-02
3.3243711e-04
1.6062146e-02
2.6128392e-02
2.7725315e-02
2.4912095e-02
2.3392286e-02
2.1382361e-02
1.3322239e-02
-3.2258505e-04
-1.5428643e-02
-2.6730833e-02
-2.9935950e-02
-2.6311869e-02
-1.9111116e-02
-8.1509604e-03
4.5642532e-03
1.3135833e-02
1.6938759e-02
1.8857682e-02
1.7828173e-02
1.4390473e-02
1.1838763e-02
8.0804574e-03
2.2586088e-04
-1.0588899e-02
-2.3478735e-02
-3.3164535e-02
-3.3813358e-02
-2.9768972e-02
-2.3978399e-02
-1.3649359e-02
-1.3463673e-03
7.6025720e-03
1.1751778e-02
1.4170741e-02
1.9243313e-02
2.7686546e-02
3.6761244e-02
4.4216859e-02
4.7793432e-02
4.1898866e-02
2.2741834e-02
-1.3348891e-03
-1.9047983e-02
-2.8918649e-02
-3.0064444e-02
-2.2421960e-02
-1.3392197e-02
-6.3716403e-03
-6.9583897e-04
1.7009669e-03
-4.0991501e-04
-7.2715073e-03
