-3.0715337e-01
-2.7773862e-01
-2.9093347e-01
-3.7342651e-01
-5.5060933e-01
-8.4552220e-01
-1.2876547e+00
-1.8944481e+00
-2.6291320e+00
-3.3635047e+00
-3.8835195e+00
-3.9503454e+00
-3.4284697e+00
-2.4207147e+00
-1.2217213e+00
-1.1718276e-01
7.4593401e-01
1.3571509e+00
1.7770604e+00
2.0626561e+00
2.2281507e+00
2.2559668e+00
2.1399603e+00
1.9486126e+00
1.8351400e+00
1.8292243e+00
1.7809546e+00
1.6316553e+00
1.4317358e+00
1.2161617e+00
1.0046830e+00
8.0462237e-01
6.1195226e-01
4.1948992e-01
2.3745572e-01
8.5050887e-02
-3.3892097e-02
-1.2326379e-01
-1.8561683e-01
-2.2548702e-01
-2.3848073e-01
-2.1381243e-01
-1.5653864e-01
-8.5022291e-02
-1.3763251e-02
4.5293570e-02
8.2377055e-02
9.7858657e-02
9.6384097e-02
7.1143103e-02
2.7659509e-02
-6.9933811e-03
-2.6948330e-02
-4.2830628e-02
-5.6937029e-02
-6.5654414e-02
-6.9837654e-02
-8.0807087e-02
-1.1221112e-01
-1.6693906e-01
-2.3479617e-01
-3.0236050e-01
-3.5151947e-01
-3.6141702e-01
-3.3727686e-01
-3.0294971e-01
-2.5561440e-01
-1.8961314e-01
-1.2716530e-01
-8.4529968e-02
-5.7650488e-02
-4.3200717e-02
-4.6494707e-02
-6.9688824e-02
-1.0479364e-01
-1.3647288e-01
-1.4767134e-01
-1.3109434e-01
-8.8967265e-02
-1.9743394e-02
8.5340983e-02
2.3054776e-01
3.9931094e-01
5.5911805e-01
6.8154093e-01
7.5099046e-01
7.6329911e-01
7.1834532e-01
6.1240386e-01
4.5301435e-01
2.7516516e-01
1.1325609e-01
-2.1150718e-02
-1.2282100e-01
-1.8579077e-01
-2.0652312e-01
-1.8124932e-01
-1.1214546e-01
-1.8921288e-02
7.8331291e-02
1.6356600e-01
2.1775881e-01
2.4165191e-01
2.5087062e-01
2.6288775e-01
2.9641062e-01
3.5637170e-01
4.2671934e-01
4.8657950e-01
5.3167403e-01
5.7500154e-01
6.3152391e-01
7.0557035e-01
7.8651257e-01
8.4976339e-01
8.5287276e-01
7.4966398e-01
5.2553654e-01
2.0171574e-01
-1.9564642e-01
-6.4748107e-01
-1.1203619e+00
-1.5616854e+00
-1.9228285e+00
-2.1735679e+00
-2.3002707e+00
-2.3040417e+00
-2.2030468e+00
-2.0267346e+00
-1.7972184e+00
-1.5183560e+00
-1.1889253e+00
-8.2016725e-01
-4.3254285e-01
-4.3554976e-02
3.3566332e-01
6.9140206e-01
9.9853667e-01
1.2273331e+00
1.3574255e+00
1.3950560e+00
1.3752663e+00
1.3285245e+00
1.2578886e+00
1.1531927e+00
1.0115741e+00
8.4937373e-01
6.8713335e-01
5.2354012e-01
3.3311397e-01
1.3025595e-01
-1.5855612e-02
-8.2021788e-02
-9.9197759e-02
-9.7118654e-02
-9.3019455e-02
-8.9553931e-02
-7.8595179e-02
-4.9878466e-02
-7.5440145e-03
3.1252800e-02
5.6649930e-02
6.8370044e-02
6.6984522e-02
5.5165561e-02
4.2453283e-02
4.7033136e-02
8.5910419e-02
1.6067123e-01
2.5581050e-01
3.5201845e-01
4.3691005e-01
4.9233133e-01
4.7433554e-01
3.0375232e-01
3.7000202e-02
-1.3012539e-01
-1.6838973e-01
-1.6675026e-01
-1.7008273e-01
-1.9871720e-01
-2.4386753e-01
-2.7815138e-01
-2.8480576e-01
-2.7142095e-01
-2.5219637e-01
-2.2827396e-01
-1.9563437e-01
-1.6195617e-01
-1.3880566e-01
-1.3104667e-01
-1.3861665e-01
-1.5415841e-01
-1.6969102e-01
-1.9322373e-01
-2.3694178e-01
-2.8928800e-01
-3.1542892e-01
-2.7448923e-01
-1.2337717e-01
8.7794594e-02
2.2233963e-01
2.5793661e-01
2.5801530e-01
2.5087726e-01
2.4409345e-01
2.3822153e-01
2.2810383e-01
2.0754367e-01
1.7190911e-01
1.1686381e-01
4.8528026e-02
-1.5498152e-02
-5.8254442e-02
-7.5959378e-02
-8.1240273e-02
-8.8293688e-02
-1.0172855e-01
-1.1652025e-01
-1.2804017e-01
-1.4131615e-01
-1.5485054e-01
-1.4615242e-01
-9.1974835e-02
2.0843609e-02
1.5342558e-01
2.2340668e-01
2.1981102e-01
1.9206568e-01
1.6855554e-01
1.3984062e-01
9.1254662e-02
3.9626529e-02
9.7325722e-03
3.0040276e-03
1.8899850e-03
-7.6429676e-03
-2.7349044e-02
-4.6044534e-02
-4.6123328e-02
-2.3283553e-02
7.3836450e-03
2.6353795e-02
2.1093258e-02
-1.3409294e-02
-7.6197415e-02
-1.5652229e-01
-2.2500233e-01
-2.4219169e-01
-1.7311488e-01
-4.0422772e-02
7.4876118e-02
1.3650119e-01
1.5962399e-01
1.5911576e-01
1.4252104e-01
1.1184066e-01
7.3152691e-02
4.0951603e-02
3.0104080e-02
4.0345836e-02
5.2653769e-02
4.9675423e-02
3.4246977e-02
2.1198626e-02
1.7736182e-02
2.1196331e-02
3.1526254e-02
5.8917870e-02
1.1027599e-01
1.7228918e-01
2.2057675e-01
2.3816056e-01
2.1737263e-01
1.3970812e-01
1.8202830e-02
-8.7491898e-02
-1.6134262e-01
-2.2142115e-01
-2.6712690e-01
-2.9317284e-01
-3.0683607e-01
-3.2386793e-01
-3.4418473e-01
-3.4822864e-01
-3.1986121e-01
-2.6449134e-01
-2.0110929e-01
-1.3400143e-01
-4.9089991e-02
5.6005122e-02
1.5910112e-01
2.3508826e-01
2.8365946e-01
3.2295531e-01
3.6204208e-01
3.9113463e-01
3.8947258e-01
3.4151061e-01
2.3764290e-01
1.0628655e-01
7.1674459e-03
-5.0034362e-02
-8.5857130e-02
-1.0056196e-01
-9.0022122e-02
-6.6871660e-02
-5.5616736e-02
-6.5917665e-02
-8.4423973e-02
-9.6267993e-02
-1.0812877e-01
-1.3650616e-01
-1.7799893e-01
-2.0500285e-01
-1.9238446e-01
-1.4733294e-01
-1.0312181e-01
-8.5800571e-02
-9.5599512e-02
-1.1456628e-01
-1.2806793e-01
-1.3179820e-01
-1.1927516e-01
-7.7187932e-02
-1.5157239e-02
2.6895017e-02
2.8760849e-02
2.8894032e-03
-2.7422044e-02
-4.0839349e-02
-2.8567467e-02
3.7132217e-03
4.0969611e-02
7.2979895e-02
9.9352756e-02
1.1860365e-01
1.2398062e-01
1.1137133e-01
8.6195879e-02
6.2748041e-02
5.1336935e-02
4.7046619e-02
4.0211549e-02
3.0527102e-02
2.6957314e-02
3.5672853e-02
4.7543477e-02
4.6192883e-02
2.0451392e-02
-1.4123608e-02
-2.4286785e-02
-9.6936280e-03
8.4207598e-03
1.9580892e-02
2.1230930e-02
1.5239931e-02
3.1326791e-04
-2.8442202e-02
-6.4329988e-02
-8.9229917e-02
-9.3078275e-02
-8.3886777e-02
-7.3870530e-02
-6.4700354e-02
-4.8097694e-02
-1.4986676e-02
3.0165091e-02
6.9304876e-02
9.0719546e-02
1.0239142e-01
1.1454834e-01
1.1966563e-01
9.8894476e-02
3.3276329e-02
-5.9082081e-02
-1.2650116e-01
-1.5433753e-01
-1.6083286e-01
-1.5675491e-01
-1.4101812e-01
-1.0677390e-01
-5.7995644e-02
-1.1769187e-02
1.9579810e-02
3.4431653e-02
3.7622417e-02
3.5508041e-02
2.5547702e-02
2.4810131e-03
-2.6818910e-02
-4.6947822e-02
-5.2069616e-02
-5.2796096e-02
-5.9521228e-02
-6.7699101e-02
-6.3107945e-02
-4.0593094e-02
-1.1109329e-02
1.2626195e-02
2.9921871e-02
4.7327234e-02
6.4184501e-02
7.0636286e-02
5.6619253e-02
2.2258497e-02
-1.8238253e-02
-4.6734283e-02
-5.9178945e-02
-6.6863434e-02
-7.6589892e-02
-7.8617363e-02
-6.3095990e-02
-3.8592816e-02
-1.9424209e-02
-5.6282665e-03
1.3038082e-02
3.9837653e-02
6.5337507e-02
7.7565452e-02
7.4430352e-02
6.3189028e-02
5.0313592e-02
3.1791451e-02
-9.5505219e-04
-4.2545339e-02
-7.6068734e-02
-9.1224975e-02
-9.0545406e-02
-8.5601024e-02
-8.1507221e-02
-7.0685153e-02
-4.7185337e-02
-1.5247965e-02
1.1254947e-02
2.3833791e-02
3.1475860e-02
4.7233537e-02
7.0753466e-02
8.7304588e-02
8.1260734e-02
5.3228390e-02
1.4891238e-02
-3.3210879e-02
-9.6496770e-02
-1.6513136e-01
-2.1701160e-01
-2.3467897e-01
-2.1092646e-01
-1.3673630e-01
-3.5234755e-02
3.6469680e-02
7.0447175e-02
8.9998746e-02
9.8000297e-02
9.3571693e-02
8.5818800e-02
8.6376877e-02
9.1678574e-02
8.6985228e-02
6.4024896e-02
2.7972783e-02
-3.8464509e-03
-1.5476380e-02
-1.0613890e-02
-4.7612078e-03
-1.9957276e-03
7.2574961e-03
2.9427968e-02
5.8878996e-02
8.3020026e-02
9.6430723e-02
1.0451040e-01
1.0738849e-01
8.8363852e-02
4.4719890e-02
2.1852566e-03
-2.9369091e-02
-5.6581004e-02
-7.9479309e-02
-9.7372394e-02
-1.0932309e-01
-1.1121866e-01
-9.8364920e-02
-7.4452282e-02
-5.4214630e-02
-4.4137718e-02
-3.3371832e-02
-1.1331295e-02
1.7582944e-02
3.9738175e-02
5.0865392e-02
5.9763375e-02
7.4039076e-02
8.7648916e-02
8.4070692e-02
5.5299413e-02
1.3410787e-02
-2.4786646e-02
-6.0827358e-02
-9.4635122e-02
-1.0397332e-01
-7.3426603e-02
-1.4276496e-02
3.7362483e-02
5.3406440e-02
4.2182909e-02
2.3793282e-02
1.0573356e-02
3.4230974e-03
-8.7653954e-03
-3.2237310e-02
-5.5891001e-02
-6.2382479e-02
-5.1124535e-02
-3.8880580e-02
-3.5574871e-02
-3.4106860e-02
-2.1883642e-02
2.7169253e-03
2.8640030e-02
4.6817190e-02
5.8599502e-02
7.2272685e-02
9.1581029e-02
1.0713784e-01
1.0506085e-01
8.1113159e-02
4.5533857e-02
9.0694597e-03
-2.6187186e-02
-5.5210108e-02
-6.8896805e-02
-6.2214156e-02
-4.0844032e-02
-2.0786110e-02
-1.2768598e-02
-1.2322001e-02
-8.2819713e-03
5.3145482e-03
2.5084378e-02
4.0485813e-02
4.2622102e-02
3.5885907e-02
3.9044031e-02
6.3874260e-02
9.7018496e-02
1.1335082e-01
9.8549262e-02
4.5341166e-02
-3.0594904e-02
-9.2555787e-02
-1.3336841e-01
-1.5517109e-01
-1.4699643e-01
-1.0747240e-01
-4.9869145e-02
1.1425940e-02
7.2301285e-02
1.1497369e-01
1.1092080e-01
5.8477296e-02
-1.7464423e-02
-8.6269620e-02
-1.2780053e-01
-1.4273055e-01
-1.4650808e-01
-1.5328564e-01
-1.6280566e-01
-1.6571831e-01
-1.5757341e-01
-1.4174080e-01
-1.2255899e-01
-9.4503934e-02
-3.2440770e-02
5.9038426e-02
1.2388006e-01
1.3782491e-01
1.2254893e-01
1.0113163e-01
8.4930624e-02
7.0659850e-02
5.5410995e-02
4.4688020e-02
4.4080534e-02
5.4142171e-02
6.8661625e-02
8.0476365e-02
8.9904008e-02
1.0114783e-01
1.1106031e-01
1.0951978e-01
9.0374556e-02
5.6778304e-02
2.2503034e-02
8.8304476e-04
-1.0027741e-02
-2.2147237e-02
-4.1415357e-02
-6.5355353e-02
-8.0984528e-02
-7.5228005e-02
-5.7321411e-02
-3.9804051e-02
-2.3011447e-02
-8.4542691e-03
-4.7941365e-03
-2.0894603e-02
-5.2929714e-02
-8.4866396e-02
-1.0227829e-01
-1.0484526e-01
-1.0118617e-01
-9.5206923e-02
-7.7555578e-02
-3.5596124e-02
2.6621602e-02
9.1008804e-02
1.4530628e-01
1.9792737e-01
2.6436603e-01
3.4037917e-01
3.9316709e-01
3.7775633e-01
2.5494863e-01
6.3533700e-02
-9.0185014e-02
-1.8041223e-01
-2.3555145e-01
-2.5114957e-01
-2.1359354e-01
-1.2769107e-01
-2.1010328e-02
7.4276824e-02
1.3262193e-01
1.3971827e-01
1.0107621e-01
3.6158667e-02
-3.3348103e-02
-9.1959706e-02
-1.3917409e-01
-1.8750898e-01
-2.5497832e-01
-3.5433805e-01
-4.7799603e-01
-6.0087772e-01
-6.9921411e-01
-7.5037806e-01
-7.1730513e-01
-5.2827238e-01
-2.3006265e-01
-1.2810401e-02
7.9358994e-02
1.2252774e-01
1.5045911e-01
1.7997456e-01
2.2183252e-01
2.7072246e-01
3.0416362e-01
3.0309126e-01
2.7016260e-01
2.2570420e-01
1.8768511e-01
1.5754609e-01
1.3633005e-01
1.3852327e-01
1.7621195e-01
2.4732299e-01
3.4106500e-01
4.4236973e-01
5.3763920e-01
6.1471432e-01
6.4186077e-01
5.5692272e-01
2.7565206e-01
-1.2597094e-01
-4.0911972e-01
-5.0841071e-01
-5.0496316e-01
-4.4662363e-01
-3.6078018e-01
-2.6500410e-01
-1.7531946e-01
-1.0575388e-01
-6.1707321e-02
-3.6468680e-02
-1.7697687e-02
1.3277143e-03
1.7633635e-02
2.3932897e-02
2.1490291e-02
2.5977873e-02
4.9955947e-02
8.9691262e-02
1.3509457e-01
1.8200398e-01
2.3031737e-01
2.7149295e-01
2.8092096e-01
2.1786850e-01
9.4768780e-02
-7.6252549e-03
-5.7086524e-02
-7.7940285e-02
-9.1902864e-02
-1.0859136e-01
-1.2156355e-01
-1.2311051e-01
-1.1728941e-01
-1.1255598e-01
-1.0850006e-01
-9.7990852e-02
-8.1404866e-02
-6.9700477e-02
-7.4186955e-02
-9.3991743e-02
-1.1738129e-01
-1.3567056e-01
-1.5010914e-01
-1.7004021e-01
-2.0300907e-01
-2.4210516e-01
-2.6489297e-01
-2.4294276e-01
-1.3882135e-01
2.1883296e-02
1.4295205e-01
1.9988055e-01
2.2107560e-01
2.1554011e-01
1.9564406e-01
1.7953251e-01
1.7777419e-01
1.8081920e-01
1.6848181e-01
1.3498963e-01
9.2872892e-02
5.6706273e-02
3.0046107e-02
8.1636641e-03
-8.6151837e-03
-1.0892508e-02
1.1642003e-02
6.0601309e-02
1.2584472e-01
1.9397585e-01
2.5945216e-01
3.1905334e-01
3.4645302e-01
2.5532994e-01
3.7709050e-02
-1.5932185e-01
-2.5563999e-01
-2.7910119e-01
-2.6526241e-01
-2.4624164e-01
-2.3258617e-01
-2.1164749e-01
-1.7356555e-01
-1.2789257e-01
-8.6821929e-02
-5.2361069e-02
-2.0625484e-02
1.0836483e-02
3.7106195e-02
5.0478796e-02
4.8551193e-02
3.3719888e-02
6.1363106e-03
-4.2887114e-02
-1.2516900e-01
-2.3358115e-01
-3.2886727e-01
-3.5720546e-01
-2.7301679e-01
-1.1551014e-01
2.4345120e-03
4.9162588e-02
6.6215211e-02
7.7421265e-02
8.5330178e-02
8.8417088e-02
9.2975302e-02
1.0375482e-01
1.1252877e-01
1.0528782e-01
7.6473481e-02
3.5409666e-02
1.3524908e-04
-1.7690066e-02
-2.0164218e-02
-1.4819157e-02
-4.7893698e-04
2.9559727e-02
7.1944542e-02
1.1065057e-01
1.3296048e-01
1.4302134e-01
1.4617582e-01
1.2383506e-01
7.1180216e-02
1.6408119e-02
-2.9611937e-02
-6.1956671e-02
-6.8608652e-02
-5.6868563e-02
-4.4944766e-02
-3.9186229e-02
-2.6392185e-02
6.6798510e-03
5.5222099e-02
1.0886649e-01
1.7124453e-01
2.5769300e-01
3.7627823e-01
5.1671119e-01
6.6487078e-01
8.1767135e-01
9.8108304e-01
1.1687166e+00
1.3840288e+00
1.6012513e+00
1.7792322e+00
1.9085865e+00
2.0391507e+00
2.1572657e+00
2.1609102e+00
2.0374626e+00
1.8337814e+00
1.5224694e+00
9.7952939e-01
4.5276430e-02
-1.2389958e+00
-2.5120759e+00
-3.3901706e+00
-3.7330154e+00
-3.6020100e+00
-3.1819032e+00
-2.6769201e+00
-2.1886794e+00
-1.7494224e+00
-1.3824492e+00
-1.0967250e+00
-9.0488453e-01
-8.1968249e-01
-8.2789271e-01
-8.9693025e-01
-9.7377598e-01
-9.5140953e-01
-6.2880495e-01
-9.5150609e-02
2.1156880e-01
2.0203164e-01
1.1181933e-01
1.3746031e-01
3.9296853e-01
8.2480416e-01
1.2514340e+00
1.5202536e+00
1.5864058e+00
1.4691674e+00
1.2128507e+00
8.7066116e-01
4.9017585e-01
1.0395063e-01
-2.7545697e-01
-6.5460461e-01
-1.0526331e+00
-1.4785190e+00
-1.9121466e+00
-2.3222510e+00
-2.6184006e+00
-2.5081546e+00
-1.6936541e+00
-3.6965000e-01
8.4601318e-01
1.4523472e+00
1.3584271e+00
8.7876934e-01
4.4815932e-01
2.6336198e-01
2.5506241e-01
3.0618619e-01
3.6555039e-01
4.2735483e-01
5.0101401e-01
5.8803815e-01
6.7180477e-01
7.2520004e-01
7.2869344e-01
6.7682853e-01
5.7108413e-01
4.1659711e-01
2.2590663e-01
2.2829382e-02
-1.6527561e-01
-3.2613825e-01
-4.5451605e-01
-5.2371602e-01
-4.7390079e-01
-3.4986965e-01
-3.1956686e-01
-4.2538672e-01
-5.7628801e-01
-6.8499963e-01
-7.0917613e-01
-6.5218449e-01
-5.0491644e-01
-2.3593571e-01
1.5119490e-01
5.9120018e-01
9.8379701e-01
1.2366119e+00
1.3130928e+00
1.2506084e+00
1.1230276e+00
9.9626182e-01
9.1035515e-01
8.7939377e-01
9.0395111e-01
9.7158467e-01
1.0422990e+00
1.0444167e+00
8.6911477e-01
3.4621600e-01
-3.9509668e-01
-8.9045509e-01
-1.0217736e+00
-9.7064345e-01
-8.3963090e-01
-6.7868439e-01
-5.1787766e-01
-3.8416377e-01
-2.9517175e-01
-2.4534179e-01
-2.1135083e-01
-1.7601058e-01
-1.4150359e-01
-1.1654359e-01
-9.9470518e-02
-8.2932951e-02
-6.1851098e-02
-3.7053953e-02
-1.3957229e-02
7.3627260e-03
3.3000908e-02
6.4638472e-02
8.9390571e-02
8.8070694e-02
4.8219641e-02
-1.7063890e-02
-7.0721602e-02
-9.7810871e-02
-1.1031537e-01
-1.1685288e-01
-1.1676727e-01
-1.0723572e-01
-9.0068683e-02
-7.2195558e-02
-5.8701223e-02
-4.5093842e-02
-2.2335814e-02
8.7237414e-03
3.5010039e-02
4.8749809e-02
5.7763990e-02
7.4512892e-02
9.9013535e-02
1.1649609e-01
1.1349144e-01
9.0813372e-02
5.8596344e-02
2.3620270e-02
-1.0712683e-02
-3.9816465e-02
-6.0565467e-02
-7.0514559e-02
-6.7054651e-02
-5.6086034e-02
-4.7420075e-02
-4.0997137e-02
-2.9340058e-02
-8.9323751e-03
1.2623399e-02
2.4889336e-02
2.7094920e-02
2.6484625e-02
2.5941574e-02
1.7380707e-02
-9.6505529e-03
-5.0977271e-02
-8.6438168e-02
-1.0372336e-01
-1.1240652e-01
-1.2725610e-01
-1.4751175e-01
-1.5880998e-01
-1.5034162e-01
-1.1924063e-01
-5.7851720e-02
2.0805574e-02
7.8622496e-02
1.0734802e-01
1.2193163e-01
1.3612255e-01
1.5834419e-01
1.6980709e-01
1.4683578e-01
9.8139076e-02
4.5598891e-02
3.1035988e-03
-1.6194094e-02
-8.1629619e-03
1.5601253e-02
4.2742441e-02
6.8317567e-02
9.4185781e-02
1.2552261e-01
1.6266785e-01
1.9843065e-01
2.2518051e-01
2.3920647e-01
2.3359048e-01
1.9222474e-01
8.6009153e-02
-6.5695148e-02
-1.8051032e-01
-2.2480675e-01
-2.2113738e-01
-1.9321637e-01
-1.6092744e-01
-1.3243230e-01
-1.0315731e-01
-7.0391642e-02
-4.1960898e-02
-2.6757579e-02
-2.2492104e-02
-1.8919239e-02
-1.6208185e-02
-2.2312358e-02
-3.7367039e-02
-4.9739765e-02
-4.4760390e-02
-1.7553220e-02
2.7661033e-02
7.0125243e-02
8.1928016e-02
6.8847958e-02
5.2094171e-02
2.5830797e-02
-6.2875632e-03
-1.1496927e-02
2.6525255e-02
9.5175072e-02
1.6440838e-01
2.0371975e-01
2.0776708e-01
1.9363636e-01
1.7529907e-01
1.4623148e-01
8.3182160e-02
-1.8419271e-02
-1.1770745e-01
-1.7162378e-01
-1.8152547e-01
-1.7263801e-01
-1.6202193e-01
-1.4894029e-01
-1.1743640e-01
-6.5982333e-02
-2.4206742e-02
-2.1065232e-02
-5.4454316e-02
-8.6163187e-02
-4.7886731e-02
4.9402579e-02
9.9113074e-02
7.4119705e-02
1.7840421e-02
-4.8337873e-02
-1.1424057e-01
-1.6634149e-01
-1.8507350e-01
-1.5797536e-01
-9.2131220e-02
-1.3475729e-02
4.9611286e-02
8.5473649e-02
9.5492181e-02
7.9594590e-02
3.5991643e-02
-3.6214242e-02
-1.2978101e-01
-2.2618787e-01
-3.1037149e-01
-3.7935948e-01
-4.3058102e-01
-4.4656916e-01
-3.9124612e-01
-2.1638568e-01
3.1177469e-02
2.1432567e-01
3.0183641e-01
3.4424982e-01
3.6309077e-01
3.6147635e-01
3.3894428e-01
3.0145733e-01
2.6105393e-01
2.2150617e-01
1.7334325e-01
1.1260795e-01
5.3691011e-02
1.8657199e-02
1.5525650e-02
3.2931668e-02
5.3420102e-02
6.5030230e-02
7.1506656e-02
8.6824397e-02
1.1327262e-01
1.3850060e-01
1.4899543e-01
1.2890673e-01
4.4865566e-02
-8.8923133e-02
-1.9626097e-01
-2.5495656e-01
-2.8311832e-01
-2.8126473e-01
-2.5853217e-01
-2.3541509e-01
-2.2208233e-01
-2.1140110e-01
-1.9572778e-01
-1.8219058e-01
-1.9137853e-01
-2.2508087e-01
-2.4673280e-01
-2.2383144e-01
-1.4987668e-01
-3.6182499e-02
8.3582833e-02
1.7206672e-01
2.1280163e-01
2.0550993e-01
1.5482651e-01
7.7173822e-02
9.3389773e-03
-2.7738389e-03
3.7276590e-02
7.5937715e-02
9.7847808e-02
1.2057692e-01
1.4702989e-01
1.6784617e-01
1.6861754e-01
1.4501960e-01
1.0937525e-01
7.6456864e-02
5.4199498e-02
3.7503186e-02
9.8580902e-03
-3.3760592e-02
-8.1794665e-02
-1.2249266e-01
-1.5261406e-01
-1.7906180e-01
-2.1109758e-01
-2.4679728e-01
-2.7789955e-01
-3.0173477e-01
-3.0771440e-01
-2.6271343e-01
-1.1249627e-01
1.1078078e-01
2.7191321e-01
3.2448698e-01
3.1693803e-01
2.8932335e-01
2.6309864e-01
2.3889632e-01
2.0249432e-01
1.4524227e-01
7.9361607e-02
1.9937474e-02
-3.5485681e-02
-9.1906407e-02
-1.2634072e-01
-1.0313094e-01
-2.7714955e-02
5.9013372e-02
1.3022686e-01
1.8322029e-01
2.2837009e-01
2.7613627e-01
3.1866301e-01
3.3250471e-01
2.9149147e-01
1.6508880e-01
-1.2342330e-02
-1.4397536e-01
-2.0831686e-01
-2.3759961e-01
-2.4064260e-01
-2.2050546e-01
-1.8578588e-01
-1.5007141e-01
-1.2219743e-01
-9.5520190e-02
-5.8914279e-02
-1.2881769e-02
3.4474748e-02
7.8075649e-02
1.0920699e-01
1.1707435e-01
1.0569334e-01
8.4305045e-02
5.4816573e-02
2.3874764e-02
6.7899071e-03
9.8249400e-03
2.2140568e-02
2.5355348e-02
4.1498177e-03
-2.8529113e-02
-3.8348573e-02
-2.2191768e-02
-1.4322160e-03
1.6951831e-02
4.1193668e-02
8.0898841e-02
1.3572393e-01
1.9733070e-01
2.6087643e-01
3.2460098e-01
3.7987823e-01
4.1101374e-01
3.9712733e-01
3.1797961e-01
1.6966626e-01
-3.8992184e-02
-3.1154746e-01
-6.5919376e-01
-1.0669830e+00
-1.4843392e+00
-1.8376283e+00
-2.0273933e+00
-1.8948591e+00
-1.1650056e+00
-2.4888417e-02
8.0027875e-01
1.1105073e+00
1.1530478e+00
1.0591160e+00
9.0907053e-01
7.5610121e-01
6.2412938e-01
5.0902228e-01
4.0045849e-01
2.9946603e-01
2.0887479e-01
1.2017005e-01
2.0523395e-02
-8.6823941e-02
-1.8244496e-01
-2.5225418e-01
-3.0372670e-01
-3.6128062e-01
-4.4053601e-01
-5.3164859e-01
-6.0624531e-01
-6.3155598e-01
-5.6064687e-01
-2.9888454e-01
9.0377928e-02
3.5232985e-01
4.1872390e-01
3.7956179e-01
2.9296221e-01
2.1629837e-01
1.8917102e-01
2.0386596e-01
2.1420337e-01
1.8379527e-01
1.2387515e-01
6.9953745e-02
3.7660224e-02
1.8372919e-02
-1.0214170e-03
-2.2759422e-02
-3.6857663e-02
-3.7443270e-02
-3.6296966e-02
-5.2275663e-02
-9.2284810e-02
-1.4908760e-01
-2.1982829e-01
-3.2066811e-01
-4.7800716e-01
-6.6719185e-01
-8.0695412e-01
-8.6037048e-01
-8.4179511e-01
-7.5378365e-01
-5.8208252e-01
-3.2694412e-01
-1.8879656e-02
2.9578651e-01
5.6914221e-01
7.6850910e-01
8.9200675e-01
9.6395877e-01
1.0154476e+00
1.0719039e+00
1.1601690e+00
1.3126948e+00
1.5457047e+00
1.8388372e+00
2.1427559e+00
2.4038637e+00
2.5686210e+00
2.5366202e+00
2.0955936e+00
8.5880228e-01
-8.8476102e-01
-2.0645310e+00
-2.3970235e+00
-2.2935688e+00
-2.0073446e+00
-1.6776337e+00
-1.3652918e+00
-1.0924437e+00
-8.6650407e-01
-6.8985237e-01
-5.5919380e-01
-4.5822564e-01
-3.6462915e-01
-2.6623677e-01
-1.6865293e-01
-8.7376197e-02
-3.1072422e-02
8.0073025e-03
4.5485064e-02
8.5904912e-02
1.1846996e-01
1.3353761e-01
1.3159257e-01
1.1203264e-01
6.4394161e-02
-8.5187128e-03
-7.8174898e-02
-1.1888412e-01
-1.2362031e-01
-1.0840082e-01
-9.7553940e-02
-9.2819275e-02
-8.0426890e-02
-5.6796974e-02
-3.1494958e-02
-1.1727660e-02
5.8723133e-03
2.8826831e-02
5.5369641e-02
7.1358038e-02
6.7097324e-02
4.6173656e-02
1.8067522e-02
-9.2175638e-03
-3.1170524e-02
-4.8089788e-02
-6.3981164e-02
-7.5947598e-02
-7.6138208e-02
-6.4322438e-02
-4.8591638e-02
-3.6059953e-02
-2.0461134e-02
8.6321299e-03
4.4006529e-02
6.8045870e-02
7.2605445e-02
6.4550964e-02
5.4687630e-02
4.2054902e-02
2.1452569e-02
-2.2154818e-03
-1.8625352e-02
-2.1534876e-02
-1.2657883e-02
1.2946192e-03
1.5823212e-02
3.1860157e-02
5.3774430e-02
8.2089822e-02
1.0761515e-01
1.1576383e-01
1.0061360e-01
6.9957760e-02
2.6819225e-02
-2.5898688e-02
-7.1417379e-02
-9.8172724e-02
-1.0387006e-01
-9.0476886e-02
-7.0035839e-02
-5.5110642e-02
-4.3853861e-02
-2.5874259e-02
1.2326568e-04
2.6682993e-02
4.4058908e-02
4.6994284e-02
4.3789282e-02
4.1126734e-02
3.1038538e-02
6.9346290e-03
-1.9902691e-02
-2.9604550e-02
-1.6370771e-02
5.9531333e-03
2.0019095e-02
2.3497135e-02
2.3803539e-02
1.8445933e-02
6.2447847e-03
-1.8007382e-03
-2.5327684e-03
2.8564479e-03
1.7020501e-02
3.7781446e-02
5.5861632e-02
4.9332270e-02
8.1188922e-03
-4.0759697e-02
-7.0900440e-02
-8.3488814e-02
-8.7428254e-02
-8.2694424e-02
-6.7720707e-02
-4.8416424e-02
-3.4996716e-02
-3.4507993e-02
-4.0943915e-02
-4.1535055e-02
-3.5347327e-02
-3.4303559e-02
-4.3139240e-02
-4.8675712e-02
-2.6760838e-02
1.6307621e-02
4.0345735e-02
3.5392110e-02
1.9637561e-02
8.3729436e-03
1.0286644e-02
1.9719129e-02
2.5417981e-02
2.6671034e-02
3.3770663e-02
5.2430409e-02
7.1827426e-02
7.8866671e-02
7.5045596e-02
6.9980327e-02
6.8174946e-02
6.7309522e-02
6.5871544e-02
6.7092716e-02
7.7558717e-02
1.0147755e-01
1.3189448e-01
1.4972615e-01
1.3577765e-01
7.3193952e-02
-1.3598748e-02
-6.6222278e-02
-8.2051696e-02
-8.9166384e-02
-9.2865570e-02
-9.2253131e-02
-9.2903779e-02
-1.0181950e-01
-1.1386303e-01
-1.1607792e-01
-1.0253439e-01
-8.0588834e-02
-6.2183380e-02
-5.1076950e-02
-4.0358006e-02
-2.2419630e-02
-1.0960885e-03
1.0923825e-02
4.9462026e-03
-1.6192124e-02
-4.0441344e-02
-6.3300178e-02
-9.0317807e-02
-1.1156254e-01
-9.4673948e-02
-3.7702285e-02
1.7109810e-02
4.7951053e-02
5.8372195e-02
5.5610160e-02
5.3836011e-02
6.1197370e-02
7.2348702e-02
7.7628704e-02
7.6386254e-02
7.5521306e-02
7.3235496e-02
5.8690650e-02
2.9657217e-02
-1.8392520e-03
-1.7710387e-02
-1.1263356e-02
6.5412076e-03
2.7146774e-02
5.0082487e-02
7.6569368e-02
1.0840529e-01
1.3610055e-01
1.3810926e-01
9.2933190e-02
1.9337968e-02
-3.1189294e-02
-5.3746325e-02
-7.4727495e-02
-9.9752526e-02
-1.1766960e-01
-1.1976895e-01
-1.1488988e-01
-1.1383308e-01
-1.1279781e-01
-1.0141471e-01
-7.6163050e-02
-4.3845227e-02
-1.4273957e-02
8.1923447e-03
2.6761644e-02
4.5199647e-02
5.7780697e-02
5.2798358e-02
2.5330533e-02
-1.7569951e-02
-6.0125145e-02
-8.9258194e-02
-1.0265300e-01
-9.8398279e-02
-7.6019029e-02
-4.3480684e-02
-6.1349122e-03
2.7761875e-02
4.7776233e-02
5.8124920e-02
7.0413157e-02
8.4781986e-02
9.1032341e-02
8.2290942e-02
6.1126069e-02
3.6906469e-02
1.4999971e-02
-6.5892732e-03
-2.7665506e-02
-4.1783284e-02
-4.1981508e-02
-2.9333170e-02
-1.4554107e-02
-5.2424284e-03
2.9785365e-03
1.9444561e-02
4.4091831e-02
6.2682127e-02
6.1523779e-02
4.2868511e-02
2.1353080e-02
2.4400984e-03
-2.2396328e-02
-5.3860184e-02
-7.9534995e-02
-8.7384231e-02
-7.4113258e-02
-4.6750375e-02
-1.7777531e-02
8.0470303e-03
3.6552773e-02
6.9707122e-02
9.8837380e-02
1.1320149e-01
1.1119341e-01
1.0215510e-01
9.7209602e-02
9.6954565e-02
9.5919840e-02
9.4600844e-02
9.8762758e-02
1.0782102e-01
9.9862541e-02
3.6755088e-02
-6.4915938e-02
-1.2894143e-01
-1.3151078e-01
-1.0344131e-01
-7.1248364e-02
-4.7622545e-02
-3.0121856e-02
-1.5770639e-02
-1.0810724e-02
-2.3657764e-02
-5.1609953e-02
-7.8737518e-02
-8.9306686e-02
-8.3524166e-02
-7.5089182e-02
-7.1136202e-02
-6.5874656e-02
-5.0022591e-02
-2.4218742e-02
-1.2553733e-03
8.5522299e-03
9.6292438e-03
1.6161827e-02
3.3223969e-02
5.7061005e-02
7.3679580e-02
6.6103107e-02
4.5674406e-02
3.0121157e-02
1.5990170e-02
-5.7007856e-04
-1.3017949e-02
-1.6250351e-02
-1.1523739e-02
-4.1574990e-03
-2.0080413e-04
3.5113565e-03
1.3923562e-02
3.0341924e-02
4.6954974e-02
6.1410724e-02
7.8274710e-02
9.1236622e-02
8.4238889e-02
5.8600416e-02
2.8270015e-02
4.1099079e-03
-1.0612709e-02
-2.5071654e-02
-5.5220998e-02
-9.7277719e-02
-1.2276185e-01
-1.1290537e-01
-7.1836698e-02
-2.3484430e-02
-8.2113006e-04
-2.0219631e-02
-6.8626185e-02
-1.1412263e-01
-1.3254460e-01
-1.2445780e-01
-1.0198263e-01
-6.6123014e-02
-1.1034773e-02
5.3270009e-02
1.0431612e-01
1.3542134e-01
1.6228042e-01
2.0108373e-01
2.4852672e-01
2.8768742e-01
3.0934567e-01
3.1032482e-01
2.6989295e-01
1.4555194e-01
-4.0994884e-02
-1.8986537e-01
-2.5830187e-01
-2.6807825e-01
-2.4129895e-01
-1.9251372e-01
-1.2543088e-01
-4.8448847e-02
1.8470145e-02
5.4720936e-02
5.4683017e-02
3.2241284e-02
8.7685725e-03
8.1822654e-04
6.2646733e-03
4.8577255e-03
-2.0112302e-02
-6.3601079e-02
-1.0617278e-01
-1.3906795e-01
-1.6650465e-01
-1.8678206e-01
-1.8528277e-01
-1.4700426e-01
-6.8379966e-02
2.2198605e-02
7.8661797e-02
9.7013152e-02
1.0193502e-01
1.0338426e-01
9.7782984e-02
7.9111520e-02
4.8804700e-02
1.7515594e-02
-1.1802663e-03
-5.0130639e-03
-7.1726029e-03
-1.6395694e-02
-2.3463404e-02
-1.6634380e-02
1.2147316e-03
2.0123421e-02
3.8634449e-02
6.0783515e-02
8.4891732e-02
9.9116690e-02
8.9650493e-02
5.7678438e-02
1.8484909e-02
-1.1552003e-02
-2.6869366e-02
-3.4709566e-02
-4.0105752e-02
-3.8829783e-02
-2.8231543e-02
-1.6277439e-02
-1.2441931e-02
-1.3164800e-02
-5.6929239e-03
1.4909249e-02
4.0168537e-02
5.6544124e-02
5.8023478e-02
5.2201232e-02
4.8752735e-02
4.9990895e-02
5.0991732e-02
4.7219999e-02
4.5833509e-02
6.1766641e-02
9.8067449e-02
1.3800743e-01
1.6092805e-01
1.5240934e-01
9.5422571e-02
9.3125282e-03
-5.0225112e-02
-7.5176262e-02
-8.6258958e-02
-8.8193502e-02
-8.6546315e-02
-8.9059915e-02
-9.6779671e-02
-1.0250957e-01
-9.6563873e-02
-7.6538675e-02
-5.0579121e-02
-2.6246499e-02
-2.9059883e-03
2.6614003e-02
5.9463727e-02
7.5555747e-02
6.3670549e-02
3.3547112e-02
6.6962545e-04
-2.6717385e-02
-5.3034636e-02
-8.4977218e-02
-1.1537374e-01
-1.2867779e-01
-1.2147874e-01
-1.0655463e-01
-9.5936925e-02
-8.9104154e-02
-7.6689864e-02
-5.4394583e-02
-2.7802797e-02
-2.5655708e-03
2.0870568e-02
4.7320895e-02
7.9015037e-02
1.0722878e-01
1.1900055e-01
1.0936387e-01
8.4287612e-02
4.9599452e-02
2.7427315e-03
-5.5632416e-02
-1.0852532e-01
-1.4254960e-01
-1.7146732e-01
-2.0573357e-01
-2.2207804e-01
-1.8486487e-01
-5.7034940e-02
1.3329640e-01
2.7983142e-01
3.3943584e-01
3.4069475e-01
3.1417589e-01
2.8061110e-01
2.3846319e-01
1.7797240e-01
1.0076199e-01
2.3791172e-02
-3.2277872e-02
-5.2381470e-02
-3.3954659e-02
5.9631465e-04
1.6239619e-02
-1.1348720e-02
-9.2121666e-02
-2.3098554e-01
-4.2976062e-01
-6.8156702e-01
-9.6420899e-01
-1.2238948e+00
-1.3691715e+00
-1.2561432e+00
-6.2637827e-01
3.5295582e-01
1.0073113e+00
1.1558803e+00
1.0476896e+00
8.4104435e-01
6.3899030e-01
4.8429444e-01
3.7909645e-01
3.0925856e-01
2.5992545e-01
2.2143376e-01
1.8094643e-01
1.2459160e-01
4.8987790e-02
-4.4987444e-02
-1.6043365e-01
-2.9861461e-01
-4.6060623e-01
-6.4945132e-01
-8.6120499e-01
-1.0812070e+00
-1.2785101e+00
-1.3932314e+00
-1.3257333e+00
-9.1000997e-01
-2.4422046e-01
2.6115623e-01
4.8807456e-01
5.6581124e-01
5.6362598e-01
5.3329030e-01
5.0442904e-01
4.7564879e-01
4.3018219e-01
3.6517106e-01
2.9668162e-01
2.4490481e-01
2.2088716e-01
2.2368674e-01
2.5264614e-01
3.1168880e-01
4.0490829e-01
5.2529493e-01
6.5197710e-01
7.7168019e-01
8.7613581e-01
9.4376231e-01
9.3446788e-01
7.8033470e-01
3.7729777e-01
-1.7543791e-01
-5.5873426e-01
-6.8207177e-01
-6.6484421e-01
-5.9183197e-01
-5.0720456e-01
-4.2228798e-01
-3.3850601e-01
-2.5901424e-01
-1.8434794e-01
-1.1261846e-01
-4.4469555e-02
1.5386423e-02
5.3798057e-02
5.8368851e-02
3.8737487e-02
2.1978039e-02
2.5532163e-02
4.5854685e-02
7.0765890e-02
9.8416596e-02
1.3249203e-01
1.6189647e-01
1.5873071e-01
8.8122203e-02
-2.7168512e-02
-1.0582058e-01
-1.2443234e-01
-1.1519509e-01
-1.0072353e-01
-8.9910806e-02
-8.3668234e-02
-8.2845746e-02
-8.7129171e-02
-9.5217449e-02
-1.0638715e-01
-1.1108157e-01
-9.8748618e-02
-7.6891039e-02
-6.2767552e-02
-6.0666296e-02
-6.2007170e-02
-6.4184311e-02
-7.5341524e-02
-1.0432874e-01
-1.5021586e-01
-1.9824930e-01
-2.2700251e-01
-2.1082350e-01
-1.1415694e-01
3.7972633e-02
1.5575013e-01
2.0932376e-01
2.1778741e-01
1.9286727e-01
1.5304871e-01
1.2152948e-01
1.1145065e-01
1.1374831e-01
1.0802623e-01
8.7452087e-02
6.4041383e-02
4.6194269e-02
2.8630500e-02
5.9587883e-03
-2.0101435e-02
-3.6303774e-02
-2.8313298e-02
-1.6824648e-03
2.9068765e-02
6.0549808e-02
9.7448013e-02
1.3966117e-01
1.7652011e-01
1.8678881e-01
1.6133094e-01
1.1560791e-01
5.3789849e-02
-3.5791521e-02
-1.5232422e-01
-2.7963544e-01
-3.9419425e-01
-4.6726416e-01
-4.7533451e-01
-4.2221564e-01
-3.3320885e-01
-2.2881623e-01
-1.2138802e-01
-1.7284737e-02
8.4747990e-02
1.8616191e-01
2.9300175e-01
4.1188788e-01
5.2640100e-01
6.0450609e-01
6.2756563e-01
5.9575647e-01
5.1950249e-01
3.9088452e-01
1.2803677e-01
-2.2985172e-01
-4.6517009e-01
-5.2752799e-01
-5.1239369e-01
-4.7369554e-01
-4.3232664e-01
-3.8347533e-01
-3.1716506e-01
-2.3479758e-01
-1.5032812e-01
-7.8810309e-02
-2.7916743e-02
9.6036040e-03
4.9681688e-02
9.7818090e-02
1.4832824e-01
2.0006548e-01
2.6535948e-01
3.5606921e-01
4.6345861e-01
5.6373769e-01
6.3583621e-01
6.6024282e-01
5.9536527e-01
3.5615842e-01
-8.5734370e-03
-2.8537821e-01
-4.0375377e-01
-4.2603607e-01
-3.9519843e-01
-3.4603045e-01
-2.9585752e-01
-2.4282570e-01
-1.8363474e-01
-1.2683680e-01
-8.3544916e-02
-5.4465068e-02
-2.6875920e-02
1.1988507e-02
5.6079066e-02
8.7684068e-02
9.9143529e-02
9.8679995e-02
9.7402253e-02
9.7547378e-02
9.5535160e-02
8.9874394e-02
8.1477444e-02
6.4081321e-02
9.5357297e-03
-7.8949271e-02
-1.4191312e-01
-1.5238836e-01
-1.2573603e-01
-8.0112719e-02
-3.9032640e-02
-1.8770721e-02
-1.5007429e-02
-1.6901333e-02
-2.4077960e-02
-4.3252601e-02
-7.3005054e-02
-9.7701113e-02
-1.0527467e-01
-9.7576943e-02
-8.6954068e-02
-8.6146509e-02
-9.2726699e-02
-9.4211158e-02
-8.6954128e-02
-7.8712195e-02
-7.6861519e-02
-7.6254962e-02
-5.8034066e-02
-5.9179297e-03
6.4333899e-02
1.1617879e-01
1.4307943e-01
1.6078366e-01
1.7354312e-01
1.7588110e-01
1.6539169e-01
1.4513476e-01
1.1614004e-01
7.6015114e-02
2.6741549e-02
-2.2454955e-02
-5.9841305e-02
-7.3991213e-02
-6.1710059e-02
-3.2789100e-02
-3.8698664e-04
3.0696012e-02
6.4800959e-02
1.0761653e-01
1.5455504e-01
1.9252243e-01
2.1233581e-01
2.0147135e-01
1.2811230e-01
3.9419342e-03
-1.0041161e-01
-1.6046458e-01
-1.8878383e-01
-1.8817330e-01
-1.7101300e-01
-1.5241083e-01
-1.3467319e-01
-1.1087087e-01
-7.9298449e-02
-4.8589587e-02
-2.8338072e-02
-1.5354406e-02
3.1500664e-03
3.0327181e-02
5.5130660e-02
6.7428549e-02
6.7893965e-02
6.4471016e-02
6.1157458e-02
5.1950393e-02
3.1855190e-02
5.9242901e-03
-1.8550913e-02
-4.2307031e-02
-6.2484947e-02
-7.0597916e-02
-7.0291294e-02
-6.3232590e-02
-4.3043319e-02
-1.7640129e-02
-3.1759419e-03
-3.7111241e-03
-1.2000002e-02
-2.0389594e-02
-3.0580185e-02
-5.0090053e-02
-7.6371688e-02
-9.4617045e-02
-9.0725931e-02
-6.3825479e-02
-3.6754013e-02
-3.9960594e-02
-7.2906893e-02
-1.0929347e-01
-1.3424491e-01
-1.5086471e-01
-1.5871294e-01
-1.3358057e-01
-2.8313402e-02
1.2772096e-01
2.1806904e-01
2.1086411e-01
1.6133330e-01
1.1225332e-01
7.9673101e-02
5.6089388e-02
3.2165330e-02
1.2504963e-02
8.3147819e-03
2.0875693e-02
3.7116599e-02
4.5023057e-02
4.6136583e-02
5.1738968e-02
6.5596122e-02
7.3715927e-02
6.2003045e-02
3.3528783e-02
4.8507537e-04
-2.6168787e-02
-4.3963440e-02
-5.9519815e-02
-7.0682001e-02
-6.5986902e-02
-4.6387631e-02
-2.5769018e-02
-1.2932334e-02
-2.6586357e-03
1.1705261e-02
2.6734565e-02
3.2734561e-02
2.3141463e-02
6.1636605e-03
-4.7742503e-03
-7.9061384e-03
-1.1964127e-02
-2.2491136e-02
-3.0169181e-02
-2.2906505e-02
-1.1407122e-03
2.4264021e-02
4.3575667e-02
6.1560478e-02
8.8574914e-02
1.1878126e-01
1.3585335e-01
1.3105371e-01
1.0514578e-01
5.6863976e-02
-9.1216894e-03
-7.2155968e-02
-1.1507234e-01
-1.3161836e-01
-1.2628510e-01
-1.1119404e-01
-9.5505055e-02
-8.2320268e-02
-6.6073791e-02
-4.1159236e-02
-1.4090991e-02
6.1994023e-03
2.0958403e-02
3.7809199e-02
5.7718616e-02
6.6380273e-02
4.9528652e-02
1.3197548e-02
-2.4484220e-02
-5.1635856e-02
-6.7400341e-02
-7.5072972e-02
-7.1097716e-02
-4.2874536e-02
2.4254888e-02
1.1770488e-01
1.9799214e-01
2.4830381e-01
2.7617478e-01
2.9135908e-01
3.0315411e-01
3.1347610e-01
3.1782328e-01
3.2000848e-01
3.3543034e-01
3.6584324e-01
3.8222933e-01
3.4094408e-01
2.2217989e-01
4.7149348e-02
-1.5761180e-01
-3.9868349e-01
-7.0227583e-01
-1.0570360e+00
-1.3974110e+00
-1.6581987e+00
-1.7958171e+00
-1.7566386e+00
-1.4812914e+00
-9.1583292e-01
-2.1172103e-01
2.9143143e-01
5.0396284e-01
5.5823275e-01
5.6229494e-01
5.7317298e-01
5.7972184e-01
5.4154457e-01
4.6482318e-01
4.1410076e-01
4.3226132e-01
4.9408063e-01
5.4714342e-01
5.6251557e-01
5.3549777e-01
4.6614578e-01
3.7228605e-01
2.9411266e-01
2.6277359e-01
2.8919987e-01
3.5796127e-01
4.2318078e-01
4.3526549e-01
3.4189670e-01
4.5330389e-02
-3.8073695e-01
-6.4821002e-01
-6.8298372e-01
-6.0998231e-01
-5.0076885e-01
-3.8192955e-01
-2.6715454e-01
-1.6544882e-01
-6.9723830e-02
3.0517708e-02
1.2950507e-01
2.0657366e-01
2.3378656e-01
1.9854835e-01
1.1790592e-01
1.7472223e-02
-9.2720436e-02
-2.2223408e-01
-3.7307368e-01
-5.1648619e-01
-6.2424693e-01
-6.9334276e-01
-7.1587412e-01
-6.4060479e-01
-3.6113322e-01
6.1812277e-02
3.7052957e-01
4.9008659e-01
5.0790445e-01
4.7782023e-01
4.3738531e-01
4.0097703e-01
3.5795857e-01
2.9517348e-01
2.1593486e-01
1.3743112e-01
7.3623722e-02
2.7069259e-02
-5.3268769e-03
-2.6077212e-02
-4.1472105e-02
-6.1873300e-02
-8.8654525e-02
-1.1641752e-01
-1.3621540e-01
-1.3676478e-01
-1.2059231e-01
-1.0074057e-01
-7.5154990e-02
-1.0601383e-02
8.8312363e-02
1.5746094e-01
1.7558823e-01
1.5956659e-01
1.2285599e-01
8.9693127e-02
7.6377750e-02
7.3491768e-02
6.2691300e-02
4.2348125e-02
2.3381861e-02
1.2364140e-02
5.5871957e-03
-1.2734752e-02
-5.1869049e-02
-9.9722298e-02
-1.4306507e-01
-1.8327107e-01
-2.2969786e-01
-2.8505816e-01
-3.3521427e-01
-3.6087550e-01
-3.5277944e-01
-2.9600364e-01
-1.4051523e-01
9.0688081e-02
2.7048760e-01
3.5321292e-01
3.6844758e-01
3.3570346e-01
2.8231738e-01
2.2817646e-01
1.7408396e-01
1.1703122e-01
6.3623201e-02
2.6360874e-02
9.0970239e-03
2.7079745e-03
-3.5853087e-03
-9.1141574e-03
-3.0506276e-03
1.7925277e-02
4.5675035e-02
6.9054823e-02
8.2923942e-02
9.3067802e-02
1.0171651e-01
9.7810444e-02
6.6942759e-02
4.6801557e-03
-6.3074459e-02
-9.7936059e-02
-9.8709105e-02
-8.8046753e-02
-7.6286314e-02
-5.8785805e-02
-2.7249447e-02
1.3997757e-02
4.8831522e-02
6.8705535e-02
8.3200446e-02
1.0562156e-01
1.3423352e-01
1.5599782e-01
1.6522675e-01
1.7384806e-01
1.9870101e-01
2.3921594e-01
2.7385059e-01
2.7845721e-01
2.4231555e-01
1.7308543e-01
8.9304652e-02
-3.4500409e-03
-1.2788839e-01
-2.6343769e-01
-3.3498889e-01
-3.3402147e-01
-3.0636969e-01
-2.8071924e-01
-2.6499727e-01
-2.4739158e-01
-2.1571594e-01
-1.7176599e-01
-1.2423229e-01
-7.7266078e-02
-3.1011389e-02
9.7263268e-03
3.6493448e-02
5.1576422e-02
7.3230036e-02
1.1768589e-01
1.8020480e-01
2.4061656e-01
2.8208871e-01
3.0220584e-01
3.0893958e-01
3.0075000e-01
2.4715005e-01
9.1068761e-02
-1.3029168e-01
-2.7465561e-01
-3.0170594e-01
-2.7282135e-01
-2.3240065e-01
-1.9267896e-01
-1.4642254e-01
-9.4155557e-02
-5.0312189e-02
-2.5908365e-02
-1.8650482e-02
-1.9189505e-02
-2.1917086e-02
-2.8984059e-02
-4.2742907e-02
-5.5529322e-02
-5.3552115e-02
-3.3883182e-02
-9.3438980e-03
6.1238824e-03
1.4815125e-02
3.0192652e-02
5.5640264e-02
7.5742301e-02
6.7261678e-02
3.1728472e-02
-2.3866355e-03
-2.1316356e-02
-3.4683654e-02
-5.2044116e-02
-6.9891260e-02
-7.7471367e-02
-6.7678169e-02
-4.5688069e-02
-2.5381792e-02
-1.1866643e-02
1.4560890e-03
2.0835217e-02
4.3562365e-02
5.9797772e-02
6.5572639e-02
6.9487619e-02
7.5344198e-02
7.4194723e-02
5.9447275e-02
3.5834215e-02
1.6765713e-02
1.0843845e-02
8.6144776e-03
-1.2894477e-02
-5.2065197e-02
-7.4426906e-02
-6.4603128e-02
-3.6699970e-02
-7.8780715e-03
1.1138223e-02
2.1487440e-02
3.0991408e-02
3.8241225e-02
3.1617823e-02
5.3102125e-03
-2.8295433e-02
-4.8600568e-02
-4.9724847e-02
-4.4240062e-02
-4.3056862e-02
-4.1429228e-02
-2.8568177e-02
-4.2214008e-03
1.8023952e-02
2.9078578e-02
3.5153440e-02
4.3531201e-02
4.9989265e-02
4.0553595e-02
1.0864020e-02
-2.3867196e-02
-4.8894972e-02
-6.3261627e-02
-7.4036037e-02
-8.3328740e-02
-8.1862293e-02
-6.2053146e-02
-2.9951790e-02
3.0377235e-03
3.2141498e-02
5.7470846e-02
7.8231880e-02
9.3921447e-02
1.0105021e-01
9.2764120e-02
7.3348658e-02
5.7094195e-02
5.2419919e-02
5.3600045e-02
5.0860215e-02
4.8555261e-02
5.4780161e-02
5.8552557e-02
2.8431739e-02
-3.2081863e-02
-7.0140566e-02
-6.3030478e-02
-3.0472277e-02
5.3831169e-03
2.9989202e-02
3.5512750e-02
2.2659482e-02
1.4220257e-03
-1.8718776e-02
-3.4539963e-02
-4.0919446e-02
-3.0060704e-02
-2.4572049e-03
3.1997132e-02
6.0041536e-02
8.0347549e-02
1.1354656e-01
1.7735402e-01
2.5990768e-01
3.3116176e-01
3.7145925e-01
3.7981818e-01
3.5286228e-01
2.4261586e-01
4.2796190e-02
-1.4033995e-01
-2.3606341e-01
-2.5550282e-01
-2.3316517e-01
-2.0979195e-01
-2.0300782e-01
-2.0165882e-01
-1.9109026e-01
-1.7315823e-01
-1.5500018e-01
-1.3396257e-01
-1.0273180e-01
-7.0119470e-02
-6.0700585e-02
-9.0185814e-02
-1.5095513e-01
-2.1846083e-01
-2.7058076e-01
-3.0265361e-01
-3.2515523e-01
-3.4277960e-01
-3.3630971e-01
-2.6976099e-01
-1.0264708e-01
1.2467826e-01
2.9174407e-01
3.6772937e-01
3.9754472e-01
4.0133413e-01
3.8474947e-01
3.5434919e-01
3.2704454e-01
3.2182279e-01
3.3814809e-01
3.5915122e-01
3.7042324e-01
3.6731990e-01
3.4575874e-01
2.9168577e-01
1.8972194e-01
3.8950999e-02
-1.5445993e-01
-4.0057052e-01
-7.2523890e-01
-1.1320053e+00
-1.5585471e+00
-1.8550199e+00
-1.7641094e+00
-8.6462509e-01
5.8531481e-01
1.5348140e+00
1.7084303e+00
1.5169674e+00
1.1982022e+00
8.7226819e-01
5.8529079e-01
3.4051494e-01
1.3559221e-01
-2.1546553e-02
-1.4225809e-01
-2.6326398e-01
-3.9731874e-01
-5.2350328e-01
-6.3278599e-01
-7.4412023e-01
-8.7349800e-01
-1.0057735e+00
-1.1226055e+00
-1.2358049e+00
-1.3580977e+00
-1.4711592e+00
-1.5146623e+00
-1.3589800e+00
-7.8029185e-01
7.1849146e-02
6.2451182e-01
7.2638167e-01
5.9872546e-01
3.8425205e-01
1.7585293e-01
3.5481147e-02
2.0187886e-02
1.7469785e-01
4.7351301e-01
8.2667462e-01
1.1589094e+00
1.4369438e+00
1.6441252e+00
1.7616019e+00
1.7711554e+00
1.6701166e+00
1.4773965e+00
1.2336822e+00
9.9415256e-01
8.0580775e-01
6.7832499e-01
5.6857409e-01
3.7476323e-01
-8.1411809e-02
-7.5701119e-01
-1.3053430e+00
-1.5698372e+00
-1.6095686e+00
-1.4761984e+00
-1.2186766e+00
-8.7979680e-01
-5.0913736e-01
-1.4861112e-01
1.8985979e-01
5.0671827e-01
7.9509156e-01
1.0475594e+00
1.2571078e+00
1.4067975e+00
1.4565259e+00
1.3415964e+00
1.0111013e+00
4.7362856e-01
-1.8901463e-01
-8.3776363e-01
-1.3467129e+00
-1.6688229e+00
-1.8215255e+00
-1.8674429e+00
-1.7580204e+00
-1.3359631e+00
-6.6961677e-01
6.0736170e-03
5.5268488e-01
9.3100064e-01
1.1388966e+00
1.1920382e+00
1.1405030e+00
1.0401836e+00
9.0606162e-01
7.2909685e-01
5.0672011e-01
2.4190800e-01
-5.4917170e-02
-3.5979090e-01
-6.3792803e-01
-8.6016839e-01
-1.0243848e+00
-1.1528311e+00
-1.2643585e+00
-1.3494183e+00
-1.3582149e+00
-1.1842180e+00
-6.1803385e-01
2.1167300e-01
7.7156824e-01
9.4570375e-01
9.7180770e-01
9.7818047e-01
1.0111617e+00
1.0644719e+00
1.1176486e+00
1.1659982e+00
1.2137688e+00
1.2474206e+00
1.2321515e+00
1.1352286e+00
9.5177726e-01
7.0102014e-01
3.9499004e-01
3.0173011e-02
-3.9094734e-01
-8.4568552e-01
-1.2966510e+00
-1.7027455e+00
-2.0151307e+00
-2.1558324e+00
-1.9784947e+00
-1.2235387e+00
-1.1181747e-01
6.0073859e-01
7.2572438e-01
5.6723075e-01
3.1781927e-01
8.0068307e-02
-1.1446275e-01
-2.6874781e-01
-3.8358567e-01
-4.5355434e-01
-4.8480905e-01
-4.9715282e-01
-5.0934927e-01
-5.2659188e-01
-5.3772172e-01
-5.3370878e-01
-5.2801347e-01
-5.3862580e-01
-5.5732973e-01
-5.5561345e-01
-5.1242974e-01
-4.2606180e-01
-3.0266545e-01
-1.2981611e-01
1.4065681e-01
4.6392419e-01
6.7940846e-01
7.3818993e-01
7.1014791e-01
6.5653780e-01
6.0639023e-01
5.5669974e-01
4.9502806e-01
4.1645704e-01
3.2848076e-01
2.4398759e-01
1.6429249e-01
8.1618819e-02
-2.4275034e-03
-7.4219284e-02
-1.2017089e-01
-1.3819390e-01
-1.3792730e-01
-1.3116183e-01
-1.2399921e-01
-1.1942773e-01
-1.1899357e-01
-1.1219554e-01
-6.7428326e-02
6.8374270e-02
2.5640211e-01
3.5549543e-01
3.2731453e-01
2.3300362e-01
1.2611951e-01
4.4609173e-02
-1.2133204e-03
-2.1706261e-02
-2.5782659e-02
-1.2461428e-02
1.5124743e-02
4.1451654e-02
5.3079661e-02
4.8209928e-02
3.4817139e-02
2.0446424e-02
-4.8091494e-03
-6.2115194e-02
-1.5846986e-01
-2.8010525e-01
-4.0669401e-01
-5.2305376e-01
-6.1271240e-01
-6.3204302e-01
-5.0128681e-01
-2.4089992e-01
2.8593896e-03
1.6938584e-01
2.8489551e-01
3.6366250e-01
4.1747146e-01
4.4732225e-01
4.3618075e-01
3.6988659e-01
2.6325037e-01
1.5385457e-01
6.9887933e-02
1.2741013e-02
-2.4359428e-02
-4.0003998e-02
-3.6631757e-02
-2.6888202e-02
-1.9188679e-02
-7.3998482e-03
2.3126245e-02
7.9623379e-02
1.5341357e-01
2.3022955e-01
3.0863668e-01
4.0603407e-01
5.1512908e-01
5.7678399e-01
5.3499845e-01
3.8316819e-01
1.6569541e-01
-5.1912184e-02
-2.2760583e-01
-3.5008328e-01
-4.1577515e-01
-4.1923214e-01
-3.6542412e-01
-2.8234981e-01
-2.1438562e-01
-1.9486527e-01
-2.2263606e-01
-2.6537744e-01
-2.8713102e-01
-2.7709884e-01
-2.4505375e-01
-1.9704321e-01
-1.3505173e-01
-6.7295141e-02
-7.2345319e-03
3.8594775e-02
8.2167950e-02
1.2999126e-01
1.6551216e-01
1.7552894e-01
1.6342646e-01
1.4168227e-01
1.2147402e-01
1.0540681e-01
8.7404502e-02
5.7682615e-02
1.7086207e-02
-1.9918803e-02
-4.4459536e-02
-6.4525866e-02
-8.9604180e-02
-1.1555886e-01
-1.3232467e-01
-1.3585347e-01
-1.2898912e-01
-1.1636356e-01
-9.6990097e-02
-6.8430603e-02
-4.0682705e-02
-2.9753667e-02
-3.7335342e-02
-4.7140542e-02
-5.0719876e-02
-5.5683236e-02
-6.1210462e-02
-6.1547674e-02
-5.1099575e-02
-2.2966017e-02
1.3900690e-02
3.6449207e-02
2.9449223e-02
-5.6473993e-03
-6.0413069e-02
-1.3133905e-01
-2.2400951e-01
-3.3723768e-01
-4.4778185e-01
-5.2601851e-01
-5.5422071e-01
-5.2549882e-01
-4.3442636e-01
-2.6870699e-01
-8.6427798e-03
3.4684700e-01
7.3256106e-01
9.9542596e-01
9.0089290e-01
5.2090113e-01
2.7269259e-01
2.4323252e-01
2.5373016e-01
2.3377756e-01
1.7757643e-01
1.0777996e-01
5.0864940e-02
1.8670679e-02
9.5765191e-03
1.6845583e-02
