-2.0105685e-03
4.2557144e-03
1.0283795e-02
1.4143145e-02
1.3978999e-02
9.4611305e-03
2.9246039e-04
-1.1035877e-02
-2.0260247e-02
-2.4489134e-02
-2.2543389e-02
-1.4665644e-02
-1.4022543e-03
1.4142162e-02
2.5838535e-02
2.7715349e-02
1.8401810e-02
1.9460001e-03
-1.7370526e-02
-3.6834751e-02
-5.3828616e-02
-6.5302592e-02
-6.8826931e-02
-6.3582960e-02
-4.6521429e-02
-2.0935086e-02
3.2492920e-04
1.3074975e-02
2.2557908e-02
3.2436968e-02
4.1133364e-02
4.7131310e-02
5.2119143e-02
5.3562286e-02
4.7302841e-02
3.4507509e-02
1.8291123e-02
2.6399355e-03
-8.2591069e-03
-1.4887809e-02
-1.8571833e-02
-1.7417418e-02
-1.2390209e-02
-7.1821976e-03
-2.5748147e-03
5.3108164e-05
-1.1950644e-03
-2.9179701e-03
-1.5046021e-03
-1.6714707e-03
-6.9264749e-03
-1.2914209e-02
-1.7609304e-02
-2.1490468e-02
-2.3009475e-02
-2.0888111e-02
-1.7197867e-02
-1.2330615e-02
-4.3001826e-03
4.3141894e-03
1.1486310e-02
1.9334633e-02
2.8653481e-02
3.5768190e-02
3.7867721e-02
3.7306211e-02
3.5051327e-02
2.9298848e-02
1.9876506e-02
9.4326602e-03
1.6102228e-03
-2.6687624e-03
-4.4800673e-03
-3.7621570e-03
-7.5121123e-05
3.7789990e-03
5.9732885e-03
8.9045027e-03
1.3963053e-02
1.9912139e-02
2.5307155e-02
3.0306016e-02
3.3479654e-02
3.0183855e-02
1.7210480e-02
-1.0177514e-03
-1.5806309e-02
-2.4223644e-02
-2.8238499e-02
-2.9742374e-02
-2.9566551e-02
-2.9915676e-02
-3.2357621e-02
-3.2870747e-02
-2.7000855e-02
-1.4446252e-02
1.4225866e-03
1.5446122e-02
2.4678586e-02
2.9369632e-02
2.9106575e-02
2.2611324e-02
1.1314918e-02
-2.0050661e-03
-1.5069008e-02
-2.5194081e-02
-2.9303409e-02
-2.7369739e-02
-2.2269681e-02
-1.5380584e-02
-8.6422897e-03
-3.7264323e-03
1.4687542e-03
7.2186459e-03
1.0560857e-02
6.8580053e-03
-7.2375342e-03
-2.6826148e-02
-4.3862913e-02
-5.5499438e-02
-6.0630158e-02
-5.5623722e-02
-3.9833908e-02
-1.8812037e-02
2.5282932e-03
2.3441725e-02
4.3487397e-02
5.9972063e-02
7.1331730e-02
7.7429683e-02
7.8597780e-02
7.4662629e-02
6.3120401e-02
4.4565212e-02
2.1937131e-02
-2.9042598e-03
-2.6565322e-02
-4.4249020e-02
-5.2485364e-02
-5.3289229e-02
-4.9932183e-02
-4.2733605e-02
-3.4749914e-02
-2.8441780e-02
-2.1115537e-02
-1.1636888e-02
-2.1979661e-03
3.0734606e-03
-1.0592459e-04
-8.9415327e-03
-1.6418877e-02
-2.0305975e-02
-2.1932325e-02
-2.1107944e-02
-1.8258636e-02
-1.5105628e-02
-1.1101395e-02
-3.5718807e-03
7.8974323e-03
1.7983694e-02
2.3056222e-02
2.5898564e-02
2.6553831e-02
2.2140095e-02
1.5109140e-02
8.6520808e-03
4.6872680e-03
5.5363659e-03
1.0355947e-02
1.6603033e-02
2.2762015e-02
2.8968697e-02
3.3911224e-02
3.3983225e-02
2.3582301e-02
4.5446330e-03
-9.5307183e-03
-1.3155835e-02
-1.1394996e-02
-9.8874890e-03
-1.3635757e-02
-2.2529653e-02
-3.0601201e-02
-3.3264182e-02
-3.1883711e-02
-3.0422885e-02
-2.9195900e-02
-2.6387686e-02
-2.2739965e-02
-1.7662533e-02
-1.0701342e-02
-5.6644394e-03
-3.9268133e-03
-2.6210972e-03
-2.7139735e-03
-6.4117495e-03
-1.1959142e-02
-1.7448999e-02
-1.9744037e-02
-1.2622236e-02
1.1669583e-03
9.6228993e-03
1.1937900e-02
1.4224039e-02
1.6439242e-02
1.8666910e-02
2.3991835e-02
3.0564720e-02
3.3208215e-02
3.1002566e-02
2.3770365e-02
1.2695086e-02
8.4549167e-04
-8.8334552e-03
-1.4400514e-02
-1.7510952e-02
-1.8601739e-02
-1.7334983e-02
-1.4240318e-02
-7.5653576e-03
7.6223443e-04
6.9446687e-03
1.2324772e-02
1.6351976e-02
1.7315466e-02
1.6218371e-02
1.2652805e-02
7.1442550e-03
9.8521786e-04
-5.4753964e-03
-1.1163336e-02
-1.3801397e-02
-1.2949441e-02
-1.0662823e-02
-8.0487086e-03
-5.5418183e-03
-2.6179687e-03
1.0821436e-03
5.7911288e-03
1.2471760e-02
1.9870283e-02
2.4568183e-02
2.4690777e-02
1.9927484e-02
9.9695784e-03
-2.8625342e-03
-1.4133042e-02
-2.1238261e-02
-2.3470803e-02
-1.9909918e-02
-1.2528522e-02
-5.6064305e-03
-5.1359629e-04
2.8408918e-03
5.2326411e-03
7.4457012e-03
9.4699191e-03
1.2350974e-02
1.4016149e-02
1.1020049e-02
4.8939577e-03
-2.5542223e-03
-1.0450270e-02
-1.5495578e-02
-1.5213745e-02
-1.0897372e-02
-4.7565614e-03
1.6403358e-03
6.8561372e-03
1.1348871e-02
1.7049212e-02
2.4617169e-02
3.3140412e-02
4.0003440e-02
4.0355181e-02
3.2506572e-02
1.9655246e-02
5.5460776e-03
-7.1258105e-03
-1.7492347e-02
-2.4763273e-02
-2.8389686e-02
-2.8769093e-02
-2.6394067e-02
-2.3672900e-02
-2.0738163e-02
-1.4793688e-02
-8.3407910e-03
-5.2699119e-03
-3.7418565e-03
-9.8001522e-04
1.8781073e-03
8.4502052e-04
-6.2826329e-03
-1.6768978e-02
-2.6145058e-02
-3.2118503e-02
-3.4375143e-02
-3.1602008e-02
-2.1292315e-02
-6.4584580e-03
6.7235566e-03
1.7586930e-02
2.5423172e-02
2.9380328e-02
3.2649331e-02
3.5197013e-02
3.3406174e-02
2.6720713e-02
1.7631540e-02
8.1016505e-03
-1.3063617e-03
-9.5862509e-03
-1.5127072e-02
-1.7212663e-02
-1.4795393e-02
-8.5572966e-03
-6.2331915e-04
7.7155266e-03
1.4785768e-02
2.0689405e-02
2.4880392e-02
2.4926165e-02
2.1144631e-02
1.4026607e-02
4.9105808e-03
-3.6794942e-03
-1.2254512e-02
-2.0371315e-02
-2.4547660e-02
-2.3989112e-02
-2.1482118e-02
-1.7325333e-02
-1.0184441e-02
-1.4573964e-03
6.2531621e-03
1.1170887e-02
1.2590418e-02
1.2484283e-02
1.1904188e-02
8.7129785e-03
2.9625043e-03
-3.1202467e-03
-7.6965618e-03
-9.7352271e-03
-1.0339429e-02
-9.8485543e-03
-6.6143381e-03
-1.9338253e-03
1.1370388e-03
3.4083398e-03
7.5633697e-03
1.3049246e-02
1.7912707e-02
2.0446141e-02
1.8853654e-02
1.3494772e-02
5.2830856e-03
-3.9976529e-03
-1.1442481e-02
-1.6037749e-02
-1.7250715e-02
-1.7173901e-02
-1.7418330e-02
-1.5864936e-02
-1.1407836e-02
-3.9053169e-03
5.7907123e-03
1.4701326e-02
2.0096264e-02
2.3701587e-02
2.7091574e-02
2.7435149e-02
2.1592103e-02
7.9332572e-03
-8.7491385e-03
-2.0619452e-02
-2.7103865e-02
-3.0012385e-02
-2.9698493e-02
-2.7052149e-02
-2.0587302e-02
-1.0924835e-02
-2.0287082e-03
5.7537480e-03
1.1609261e-02
1.3396751e-02
1.2725589e-02
1.1665560e-02
9.6360991e-03
5.2869335e-03
8.1680807e-04
-1.6785722e-03
-3.9856924e-03
-6.1191642e-03
-5.8654976e-03
-1.7373260e-03
4.5637117e-03
9.1435482e-03
1.0645129e-02
1.1685275e-02
1.4433994e-02
1.7280815e-02
1.9015366e-02
1.7811025e-02
1.0682469e-02
3.7469452e-04
-7.3445347e-03
-1.1698459e-02
-1.4697058e-02
-1.8305511e-02
-2.1320385e-02
-2.0871882e-02
-1.7670428e-02
-1.3297541e-02
-7.3273247e-03
1.4117355e-03
1.0325280e-02
1.6277994e-02
1.9238486e-02
1.8923942e-02
1.5897766e-02
1.3130498e-02
9.2377337e-03
8.3731837e-04
-8.7730003e-03
-1.5533430e-02
-1.9145550e-02
-2.0225467e-02
-1.9982420e-02
-1.8780293e-02
-1.6486431e-02
-1.3176338e-02
-7.9236470e-03
-1.3297354e-03
4.5443061e-03
9.1885799e-03
1.4278709e-02
2.1104772e-02
2.7789745e-02
2.9873556e-02
2.6055657e-02
1.9345383e-02
1.0115998e-02
-1.8789184e-03
-1.2676706e-02
-1.9373907e-02
-2.1559011e-02
-2.0738970e-02
-2.0309950e-02
-1.9549912e-02
-1.5920446e-02
-9.2645790e-03
-1.2477968e-03
5.1516029e-03
9.6479996e-03
1.3879740e-02
1.7177234e-02
1.7172635e-02
1.1901677e-02
3.2112238e-03
-5.4751497e-03
-1.3036646e-02
-1.7690521e-02
-1.8135470e-02
-1.5466748e-02
-1.1049003e-02
-4.7202441e-03
3.2179532e-03
1.1282554e-02
1.8274629e-02
2.3966674e-02
2.8920162e-02
3.0863442e-02
2.6337148e-02
1.8609963e-02
1.2823816e-02
6.4300001e-03
-3.0832923e-03
-1.3063739e-02
-2.0601940e-02
-2.4667710e-02
-2.5652089e-02
-2.4219137e-02
-2.1561212e-02
-1.9019912e-02
-1.6249801e-02
-1.1309188e-02
-3.4556198e-03
5.0716494e-03
1.1460980e-02
1.4693608e-02
1.4539225e-02
1.2221537e-02
9.5439089e-03
4.6721224e-03
-4.3920057e-03
-1.4554345e-02
-2.0459742e-02
-1.8271351e-02
-1.0233479e-02
-3.4729339e-03
-9.0808785e-04
-7.3531673e-04
4.3915796e-04
5.0548912e-03
1.1096758e-02
1.5778524e-02
1.9430151e-02
2.1645923e-02
1.9461785e-02
1.2402360e-02
3.8121138e-03
-3.7175444e-03
-9.2262012e-03
-1.2224950e-02
-1.4095656e-02
-1.5611685e-02
-1.4794806e-02
-9.6162532e-03
-1.8448298e-03
4.9286161e-03
1.0359761e-02
1.6551247e-02
2.3348558e-02
2.7516479e-02
2.7912225e-02
2.4121887e-02
1.5218275e-02
3.2329971e-03
-8.1211532e-03
-1.5478759e-02
-1.9058820e-02
-2.1137081e-02
-2.1524112e-02
-1.9531185e-02
-1.5000478e-02
-8.6104267e-03
-2.1871668e-03
3.2173024e-03
6.3375128e-03
6.0629012e-03
3.7700645e-03
1.6949462e-03
6.2285467e-04
-4.4685977e-04
-2.5188706e-03
-5.9883442e-03
-1.0003005e-02
-1.0624141e-02
-5.9083299e-03
1.9532362e-04
4.6253551e-03
8.1944754e-03
1.1646780e-02
1.6516237e-02
2.2046770e-02
2.3646254e-02
2.1071700e-02
1.6931356e-02
1.0560062e-02
1.2273769e-04
-1.1815413e-02
-1.9937988e-02
-2.1696927e-02
-1.8079831e-02
-1.2639628e-02
-8.3837994e-03
-5.0470728e-03
-1.3299550e-03
3.0425534e-03
8.5708305e-03
1.2975908e-02
1.2337923e-02
7.5668028e-03
2.5681960e-03
-1.7209750e-03
-6.0511135e-03
-9.7329188e-03
-1.2044740e-02
-1.2156259e-02
-1.1011176e-02
-9.5900515e-03
-6.5398258e-03
-1.4554529e-03
4.7163223e-03
9.7116237e-03
1.2263890e-02
1.3727376e-02
1.5884004e-02
1.7158097e-02
1.3966665e-02
6.8323057e-03
-2.0902169e-03
-1.1931464e-02
-2.0628040e-02
-2.5053011e-02
-2.4112928e-02
-1.9149485e-02
-1.1047578e-02
-1.7396270e-03
5.6747275e-03
1.0382699e-02
1.3060544e-02
1.4129193e-02
1.4444191e-02
1.4056404e-02
1.1352418e-02
5.4737176e-03
-2.1230812e-03
-8.4832617e-03
-1.3208422e-02
-1.6503115e-02
-1.7281854e-02
-1.5720196e-02
-1.1742636e-02
-4.6784025e-03
3.3953790e-03
8.5241202e-03
1.1648913e-02
1.7314450e-02
2.6050298e-02
3.1572985e-02
2.7604941e-02
1.5281394e-02
9.6986607e-04
-1.0255874e-02
-1.7484585e-02
-2.1689313e-02
-2.3940995e-02
-2.4058534e-02
-2.1732166e-02
-1.8156633e-02
-1.2740020e-02
-4.9181989e-03
2.3599131e-03
7.7158714e-03
1.0035428e-02
8.5773814e-03
5.9927907e-03
3.0445795e-03
-9.0024674e-04
-6.5825873e-03
-1.5064696e-02
-2.4089704e-02
-2.9525973e-02
-2.9782863e-02
-2.4159798e-02
-1.3792986e-02
-6.8999672e-04
1.3732476e-02
2.4290655e-02
2.9026154e-02
3.1087096e-02
3.0890129e-02
2.7556218e-02
2.1451716e-02
1.4099723e-02
6.4542683e-03
-1.6504883e-03
-8.8808318e-03
-1.3550284e-02
-1.5317002e-02
-1.5050451e-02
-1.2842800e-02
-8.2861883e-03
-2.9089167e-03
2.1915928e-03
8.4900185e-03
1.5975959e-02
2.1975953e-02
2.5159880e-02
2.3907359e-02
1.5887599e-02
2.2111127e-03
-1.0460527e-02
-1.6543926e-02
-1.7873294e-02
-1.7536392e-02
-1.6195109e-02
-1.4226132e-02
-1.1377196e-02
-6.5910486e-03
-3.1989513e-04
5.6609420e-03
1.1037185e-02
1.5696349e-02
1.6806672e-02
1.2351484e-02
4.8272009e-03
-2.3322453e-03
-6.1937738e-03
-6.3509330e-03
-4.5746997e-03
-1.9725366e-03
5.3334072e-04
2.4527768e-03
4.3432458e-03
7.6895501e-03
1.0264654e-02
8.8588596e-03
5.8022019e-03
3.7622059e-03
2.1232597e-03
-2.4844389e-04
-5.1208071e-03
-1.2245790e-02
-1.8042589e-02
-2.0139740e-02
-1.8287301e-02
-1.3368099e-02
-7.6145400e-03
-3.1889079e-03
-1.4874445e-04
2.3047296e-03
5.4766845e-03
1.0475345e-02
1.4526339e-02
1.3968645e-02
8.1146146e-03
-2.0551221e-03
-1.3611671e-02
-2.2212948e-02
-2.5144307e-02
-2.0641879e-02
-1.1078112e-02
-3.2836022e-03
1.5057615e-03
4.7283724e-03
6.2985282e-03
7.8497770e-03
1.0411493e-02
1.5194526e-02
2.2561635e-02
2.8633913e-02
3.0611992e-02
2.8016470e-02
2.0849418e-02
1.0364039e-02
-1.4969286e-03
-1.0481780e-02
-1.3964533e-02
-1.3763600e-02
-1.2089540e-02
-9.9538797e-03
-7.2230032e-03
-3.6116541e-03
-5.4887025e-04
-6.7768132e-05
-1.8270285e-03
-3.9795618e-03
-6.8148873e-03
-1.0398675e-02
-1.3016751e-02
-1.3952052e-02
-1.4393993e-02
-1.5521741e-02
-1.3743768e-02
-6.2282490e-03
2.7111493e-03
8.8239247e-03
1.1490435e-02
1.2394549e-02
1.5819652e-02
2.2530403e-02
2.8508640e-02
3.1236689e-02
3.0704838e-02
2.7969295e-02
2.2341074e-02
1.3727843e-02
5.6712109e-03
-4.9571468e-04
-6.1324875e-03
-1.3329333e-02
-2.2835634e-02
-2.9740373e-02
-3.0091580e-02
-2.5201039e-02
-1.8020282e-02
-1.1014404e-02
-4.8526704e-03
7.1910562e-04
5.8145952e-03
8.5777841e-03
6.8534390e-03
1.9119636e-03
-4.2641344e-03
-1.0293411e-02
-1.3973088e-02
-1.3756465e-02
-1.0908218e-02
-7.6544804e-03
-4.4941001e-03
-1.2272061e-03
3.0066233e-03
8.1768121e-03
1.3672943e-02
1.8127713e-02
2.0387603e-02
2.2258183e-02
2.2584498e-02
1.7566126e-02
7.8283540e-03
-2.4030898e-03
-9.8838994e-03
-1.4673530e-02
-1.8068880e-02
-1.8488700e-02
-1.6028913e-02
-1.3609300e-02
-1.1028505e-02
-7.4695672e-03
-2.6477772e-03
3.5731534e-03
9.7744212e-03
1.4253726e-02
1.4585115e-02
9.7335840e-03
2.1761315e-03
-6.5771416e-03
-1.5083239e-02
-2.1363671e-02
-2.5548593e-02
-2.7174776e-02
-2.5925132e-02
-2.2507888e-02
-1.7701892e-02
-1.3469771e-02
-1.3347603e-02
-2.0784868e-02
-3.5529191e-02
-4.8072336e-02
-4.3523240e-02
-2.0733547e-02
4.5204731e-03
1.8932047e-02
2.1979318e-02
2.0916610e-02
2.2033789e-02
2.6392764e-02
3.2776393e-02
4.0562068e-02
4.7915437e-02
5.2481213e-02
5.4890077e-02
5.5602692e-02
5.1955563e-02
4.1607482e-02
2.3516771e-02
1.1926058e-03
-1.7437748e-02
-2.8956330e-02
-3.5365967e-02
-3.8471328e-02
-3.6049633e-02
-2.8325697e-02
-1.9839153e-02
-9.4144425e-03
3.9769322e-03
1.6461859e-02
2.7089677e-02
3.6585158e-02
4.4085469e-02
4.8373030e-02
4.8370961e-02
4.3492641e-02
3.2411442e-02
1.1689612e-02
-2.0288089e-02
-6.1269028e-02
-1.0758577e-01
-1.4915753e-01
-1.6225282e-01
-1.2193143e-01
-4.4723226e-02
1.8331916e-02
4.6774490e-02
5.5319572e-02
5.8942884e-02
6.2501457e-02
6.1957382e-02
5.3054791e-02
3.7148422e-02
1.7152372e-02
-1.1809797e-03
-1.3568379e-02
-2.2348504e-02
-2.8403534e-02
-3.0593043e-02
-3.0655660e-02
-3.0262511e-02
-2.8091483e-02
-2.2579515e-02
-1.4280427e-02
-5.0747350e-03
3.8926215e-03
1.2273341e-02
1.9423373e-02
2.6489665e-02
3.4474272e-02
3.8067899e-02
3.2627825e-02
2.1384133e-02
8.9595713e-03
-5.6989373e-04
-5.3486969e-03
-7.5508916e-03
-8.7704836e-03
-9.2576721e-03
-7.3440950e-03
-1.3450294e-03
6.6358212e-03
1.3482162e-02
1.8336646e-02
2.1033635e-02
2.3149336e-02
2.7159381e-02
3.2350612e-02
3.8272803e-02
4.6128206e-02
5.4832160e-02
5.9320396e-02
5.2971796e-02
2.7177400e-02
-1.1942040e-02
-3.8834302e-02
-4.4935185e-02
-4.0261889e-02
-3.2412703e-02
-2.4714933e-02
-1.8211317e-02
-1.4638131e-02
-1.5408527e-02
-1.9628577e-02
-2.4186379e-02
-2.6139643e-02
-2.5532924e-02
-2.4202516e-02
-2.1724658e-02
-1.7274464e-02
-1.1188480e-02
-4.3033753e-03
2.7749397e-03
1.0318928e-02
1.7356624e-02
2.3429083e-02
2.6835295e-02
2.4893835e-02
1.8162953e-02
8.3531150e-03
-1.4691903e-03
-9.2849389e-03
-1.5726130e-02
-2.0465191e-02
-2.3164967e-02
-2.3893319e-02
-2.2120731e-02
-1.8503662e-02
-1.4316304e-02
-9.7852389e-03
-4.9738721e-03
4.7369820e-04
5.9811524e-03
1.0262850e-02
1.3422117e-02
1.6835153e-02
2.2320698e-02
2.6756242e-02
2.5287225e-02
1.9838701e-02
1.2503510e-02
1.9382227e-03
-9.3830549e-03
-1.7114601e-02
-2.1520084e-02
-2.3864031e-02
-2.2582712e-02
-1.8181024e-02
-1.3447138e-02
-9.3170264e-03
-4.3123504e-03
2.9218368e-03
9.6180951e-03
1.3289771e-02
1.4788830e-02
1.4299250e-02
1.2075156e-02
8.9125943e-03
4.3193851e-03
-2.5767487e-03
-1.0047427e-02
-1.4395929e-02
-1.4670031e-02
-1.2309986e-02
-8.9961016e-03
-4.4870494e-03
1.6860709e-03
7.2227543e-03
1.0902784e-02
1.4795672e-02
1.9976416e-02
2.3277571e-02
2.1475168e-02
1.3163790e-02
5.4322433e-04
-1.0110582e-02
-1.5280347e-02
-1.6570014e-02
-1.6429656e-02
-1.6049524e-02
-1.4832046e-02
-1.2039676e-02
-8.5483984e-03
-4.2153049e-03
7.7563980e-04
4.5262887e-03
6.0643245e-03
6.7000302e-03
7.3513096e-03
7.7396408e-03
9.2969994e-03
1.0706546e-02
8.3255701e-03
4.1378807e-03
1.2478986e-03
-1.2150624e-03
-4.7670778e-03
-9.3337627e-03
-1.2067167e-02
-1.1235144e-02
-8.7614534e-03
-4.8632757e-03
6.5464136e-04
5.5735519e-03
9.0123666e-03
1.1274867e-02
1.2120027e-02
1.1295758e-02
8.9175150e-03
5.4044188e-03
2.1283119e-03
4.0679068e-04
-5.6441401e-04
-2.0819276e-03
-2.9717208e-03
-9.9387995e-04
5.1207356e-03
1.2677285e-02
1.5080830e-02
1.2938263e-02
1.2100393e-02
1.2460865e-02
1.2655038e-02
1.2831438e-02
1.0604236e-02
3.9729298e-03
-4.9621447e-03
-1.2794494e-02
-1.8185825e-02
-2.1890184e-02
-2.4148606e-02
-2.3664849e-02
-2.0943261e-02
-1.8622727e-02
-1.7398149e-02
-1.4883681e-02
-9.4317889e-03
-1.9214693e-03
5.9054055e-03
1.1857169e-02
1.3567621e-02
1.2086986e-02
1.0159542e-02
7.0601411e-03
1.6975581e-03
-3.6776503e-03
-6.2437566e-03
-6.4260881e-03
-6.1478928e-03
-5.2875536e-03
-2.9758819e-03
-1.0882834e-04
2.3006500e-03
5.0114879e-03
9.0389243e-03
1.3408136e-02
1.6259645e-02
1.7428883e-02
1.6805895e-02
1.2757782e-02
3.1415130e-03
-1.2286158e-02
-3.1477427e-02
-5.1612124e-02
-6.9442167e-02
-8.2782838e-02
-8.9179968e-02
-8.3232793e-02
-5.7571744e-02
-1.8621489e-02
1.2607087e-02
2.9067112e-02
3.7648355e-02
4.2524159e-02
4.5196880e-02
4.5767524e-02
4.2924836e-02
3.6840685e-02
2.9254535e-02
2.0889759e-02
1.3069991e-02
7.2793529e-03
3.0840062e-03
1.9114454e-04
-1.5761055e-03
-1.8616156e-03
1.6948754e-03
9.7793156e-03
1.9866541e-02
2.9361161e-02
3.7403313e-02
4.3183324e-02
4.3752754e-02
3.5919717e-02
2.2193076e-02
8.7943867e-03
-2.6840201e-03
-1.2090618e-02
-1.8687729e-02
-2.3108744e-02
-2.5169544e-02
-2.6015989e-02
-2.5777518e-02
-2.3971409e-02
-2.2725618e-02
-2.2004676e-02
-2.0470979e-02
-1.5489952e-02
-4.8878217e-03
6.8720374e-03
1.2429751e-02
9.3593789e-03
1.9425932e-03
-7.1232830e-03
-1.8783276e-02
-3.0712699e-02
-3.8878655e-02
-3.9430290e-02
-2.6496356e-02
-3.7199116e-03
1.5071520e-02
2.5685116e-02
3.0623035e-02
3.0833648e-02
2.7690678e-02
2.2255049e-02
1.7567094e-02
1.6163588e-02
1.6220301e-02
1.5453228e-02
1.4091775e-02
1.1679967e-02
6.6171221e-03
-1.1468586e-03
-9.8534036e-03
-1.6405976e-02
-1.8992728e-02
-2.0480899e-02
-2.4334110e-02
-2.8821246e-02
-3.0815837e-02
-2.9535810e-02
-2.5139957e-02
-1.5533913e-02
-9.4027471e-04
1.1191789e-02
1.6919343e-02
1.8896595e-02
1.7990823e-02
1.3379272e-02
5.3506500e-03
-5.5789419e-03
-1.6329712e-02
-2.2707338e-02
-2.3076169e-02
-1.7560703e-02
-7.6995482e-03
4.5269357e-03
1.5809327e-02
2.2782617e-02
2.6581369e-02
3.1228810e-02
3.8148064e-02
4.6229209e-02
5.5907100e-02
6.4562311e-02
6.6099755e-02
5.7580867e-02
3.4312989e-02
7.7019845e-04
-2.5297933e-02
-3.7715313e-02
-4.1508899e-02
-4.0846674e-02
-3.8675661e-02
-3.5099221e-02
-2.9704953e-02
-2.3490920e-02
-1.7021136e-02
-1.0795392e-02
-5.5206699e-03
-1.0750211e-03
2.6491417e-03
6.1996238e-03
1.0089465e-02
1.1397485e-02
7.4489032e-03
-2.2074799e-04
-9.0864009e-03
-1.6358234e-02
-2.0360028e-02
-2.1360368e-02
-2.0136343e-02
-1.6629827e-02
-1.1008131e-02
-5.4179399e-03
-1.0252299e-03
1.8505925e-03
4.1497898e-03
7.4377335e-03
1.1714032e-02
1.6537086e-02
2.1241548e-02
2.5900102e-02
2.8205221e-02
2.5445966e-02
1.9210711e-02
8.5630896e-03
-7.1957461e-03
-2.2926638e-02
-3.6260451e-02
-4.9592651e-02
-6.1661996e-02
-6.8249148e-02
-6.9888977e-02
-6.8579913e-02
-6.3746807e-02
-5.1956464e-02
-2.2624754e-02
1.9561857e-02
5.0029187e-02
6.1871688e-02
6.2336488e-02
5.4681229e-02
4.2014165e-02
2.8965349e-02
1.9104000e-02
1.2184861e-02
7.2614659e-03
4.2236086e-03
3.5019171e-03
4.5602409e-03
5.5375691e-03
7.8530293e-03
1.2691235e-02
1.7484000e-02
2.0480628e-02
2.1365479e-02
1.9592091e-02
1.3686146e-02
4.8542897e-03
-2.5922665e-03
-6.5376510e-03
-8.0641735e-03
-9.7920217e-03
-1.2257842e-02
-1.2679799e-02
-1.0064432e-02
-6.4315337e-03
-1.9531989e-03
4.1618819e-03
9.5056877e-03
1.0600146e-02
7.4208620e-03
2.8866284e-03
-1.9735639e-03
-7.2251826e-03
-1.0706301e-02
-1.1612057e-02
-1.1278946e-02
-9.1173265e-03
-5.0817097e-03
-1.5975027e-03
9.7626826e-04
4.1964010e-03
8.4618846e-03
1.2906975e-02
1.6462578e-02
1.9554097e-02
2.1677701e-02
1.8662283e-02
9.1153918e-03
-3.6049656e-03
-1.6606640e-02
-2.6582664e-02
-3.0425584e-02
-2.8182030e-02
-2.2299965e-02
-1.5414317e-02
-7.9112480e-03
1.2526335e-04
9.0334199e-03
2.0531784e-02
3.3500567e-02
4.5493106e-02
5.4805477e-02
6.0350555e-02
6.4257633e-02
6.8506271e-02
7.2488802e-02
7.5993424e-02
7.5556265e-02
6.2705528e-02
2.3375269e-02
-3.4692117e-02
-7.4219698e-02
-8.2740987e-02
-7.4565949e-02
-6.0907579e-02
-4.7138914e-02
-3.3233700e-02
-2.1011129e-02
-1.4316588e-02
-1.3755448e-02
-1.7747239e-02
-2.2925269e-02
-2.4628878e-02
-2.2031556e-02
-1.7686755e-02
-1.3953866e-02
-1.0951106e-02
-6.9816558e-03
-1.4403041e-03
5.3782273e-03
1.1915934e-02
1.6213036e-02
1.7661111e-02
1.6075510e-02
1.0871679e-02
2.4579332e-03
-6.7171530e-03
-1.3535016e-02
-1.6208151e-02
-1.6437874e-02
-1.7342287e-02
-1.9070500e-02
-1.8883533e-02
-1.5081692e-02
-8.1682851e-03
6.1657452e-04
8.3119971e-03
1.3436853e-02
1.7253680e-02
1.9413737e-02
1.9177249e-02
1.6283362e-02
1.0431430e-02
2.4759511e-03
-5.1804535e-03
-9.5192913e-03
-1.1057149e-02
-1.0715945e-02
-7.8540680e-03
-5.5030515e-03
-5.2382851e-03
-4.6189510e-03
-1.2362469e-03
4.4846025e-03
8.5200161e-03
1.0052862e-02
1.0531788e-02
8.7607140e-03
4.6837741e-03
-4.7223259e-04
-6.0064991e-03
-1.0566352e-02
-1.4189195e-02
-1.7662451e-02
-1.8854373e-02
-1.5794219e-02
-1.0260412e-02
-4.2481773e-03
2.8476149e-03
1.0826811e-02
1.6997249e-02
1.8565733e-02
1.5073033e-02
9.3716469e-03
4.5547563e-03
-6.6513509e-05
-5.8508693e-03
-1.0499896e-02
-1.2313241e-02
-1.2554869e-02
-1.2046391e-02
-1.0404731e-02
-7.4797854e-03
-2.2890985e-03
5.2813939e-03
1.2539140e-02
1.6609599e-02
1.6524025e-02
1.4633100e-02
1.1537260e-02
5.2841922e-03
-2.4027747e-03
-7.5344691e-03
-8.3600609e-03
-6.5984170e-03
-5.1483858e-03
-5.2138255e-03
-5.5332226e-03
-5.0408445e-03
-3.6611277e-03
5.0986877e-05
6.7801149e-03
1.3694167e-02
1.7662221e-02
1.7133778e-02
1.1099820e-02
1.1181555e-03
-9.8291732e-03
-1.7751462e-02
-1.9446086e-02
-1.6833282e-02
-1.2962516e-02
-1.0405838e-02
-9.0945837e-03
-6.8980704e-03
-3.9139712e-03
3.9616782e-04
5.0501056e-03
9.1681561e-03
1.4603730e-02
1.9432714e-02
2.0705112e-02
1.8959358e-02
1.5364556e-02
1.0464523e-02
4.0524042e-03
-3.7417085e-03
-1.1381495e-02
-1.6277278e-02
-1.7695627e-02
-1.7035465e-02
-1.5007803e-02
-1.1981910e-02
-8.7205832e-03
-4.8859351e-03
1.2056039e-03
7.9356015e-03
1.1805576e-02
1.2610554e-02
1.0501270e-02
6.0052820e-03
1.7654125e-03
-1.2133848e-03
-3.6111141e-03
-5.4982858e-03
-6.0240884e-03
-3.8198478e-03
-8.9011176e-05
3.3568652e-03
7.1075034e-03
1.2347592e-02
1.8027365e-02
2.0584423e-02
1.8549809e-02
1.2646118e-02
5.1084154e-03
-1.7215612e-03
-8.4741499e-03
-1.5450643e-02
-2.0259492e-02
-2.1645139e-02
-2.0130145e-02
-1.5051751e-02
-6.9168523e-03
9.9172894e-04
7.3437658e-03
1.2201245e-02
1.5169558e-02
1.6078066e-02
1.3876318e-02
9.7042080e-03
5.1654758e-03
-1.3944383e-03
-9.4406539e-03
-1.5197315e-02
-1.7312361e-02
-1.6346130e-02
-1.3404542e-02
-1.0677767e-02
-8.8326641e-03
-5.9948632e-03
-4.1883564e-04
6.9125873e-03
1.3169478e-02
1.7230766e-02
1.9361456e-02
1.7747985e-02
1.1533345e-02
3.5286492e-03
-4.2492813e-03
-9.9263114e-03
-1.1737792e-02
-1.2120657e-02
-1.2616277e-02
-1.2259111e-02
-1.0561282e-02
-5.3411969e-03
2.6816552e-03
1.0045265e-02
1.5197474e-02
1.7129607e-02
1.6448029e-02
1.3062786e-02
6.7569247e-03
-5.4986272e-04
-6.7035147e-03
-1.0463850e-02
-1.3071624e-02
-1.4871532e-02
-1.4649615e-02
-1.2798223e-02
-9.6469724e-03
-5.1627353e-03
2.1099237e-05
5.6932265e-03
1.1822635e-02
1.7827641e-02
2.1251771e-02
1.9729284e-02
1.3955179e-02
5.4866059e-03
-3.9512182e-03
-1.2439316e-02
-1.7463870e-02
-1.8584477e-02
-1.7645620e-02
-1.4353538e-02
-9.7288279e-03
-6.7895292e-03
-4.8446506e-03
-6.7932984e-04
6.0680119e-03
1.2325368e-02
1.5388652e-02
1.4855242e-02
1.1476186e-02
7.5467415e-03
4.0973721e-03
-3.0326406e-04
-4.7133270e-03
-7.5902632e-03
-7.9543611e-03
-5.2418578e-03
-1.2507072e-03
2.5659419e-03
5.9978011e-03
1.0302137e-02
1.6354745e-02
2.0533410e-02
1.8223757e-02
1.1072670e-02
4.6865542e-03
-5.9358734e-04
-7.9070595e-03
-1.5143237e-02
-1.9627223e-02
-2.1902708e-02
-2.0782099e-02
-1.7248191e-02
-1.4583760e-02
-1.2286101e-02
-7.4765951e-03
2.3385411e-04
7.2335054e-03
1.0570503e-02
1.0833254e-02
9.5238722e-03
7.0960450e-03
2.5248793e-03
-3.5514627e-03
-8.5867687e-03
-1.2117842e-02
-1.3041516e-02
-1.0374590e-02
-6.3639374e-03
-2.0868152e-03
2.6692292e-03
7.8117961e-03
1.3933244e-02
1.9513726e-02
2.2260914e-02
2.1825527e-02
1.8140477e-02
1.2212183e-02
4.8596035e-03
-3.5812894e-03
-1.0974696e-02
-1.4680593e-02
-1.4982721e-02
-1.4582705e-02
-1.4570644e-02
-1.4099243e-02
-1.0852537e-02
-4.8744768e-03
7.5096932e-04
5.0398214e-03
8.2810972e-03
9.7876821e-03
9.3577503e-03
9.1638101e-03
9.1777463e-03
5.0719102e-03
-1.8256810e-03
-6.2146909e-03
-7.6353808e-03
-6.1674326e-03
-2.4539251e-03
-4.0546893e-04
-4.7829842e-04
3.6855169e-04
2.8731127e-03
7.2897920e-03
1.1270799e-02
1.1573566e-02
9.6903944e-03
7.0260327e-03
2.4942567e-03
-4.0482645e-03
-9.7403120e-03
-1.1969451e-02
-1.1169965e-02
-8.8620619e-03
-6.1378482e-03
-3.3847935e-03
-1.2053255e-04
4.0774480e-03
8.6118199e-03
1.3407912e-02
1.7847215e-02
2.0477649e-02
2.0719599e-02
1.7220396e-02
9.8060062e-03
7.1201169e-04
-7.1331228e-03
-1.2696079e-02
-1.7124923e-02
-1.9771039e-02
-1.9052598e-02
-1.5432611e-02
-1.1066862e-02
-7.2421157e-03
-2.9761357e-03
2.8293320e-03
9.8801070e-03
1.5759296e-02
1.8211724e-02
1.6833637e-02
1.1628227e-02
3.4609132e-03
-5.7365231e-03
-1.3863629e-02
-2.0190461e-02
-2.3093528e-02
-2.1746289e-02
-1.8157547e-02
-1.3132500e-02
-6.8757343e-03
1.5964925e-04
7.3914450e-03
1.4453417e-02
2.0655290e-02
2.5006908e-02
2.6564074e-02
2.3303705e-02
1.6051895e-02
5.8043130e-03
-6.3267458e-03
-1.5276843e-02
-1.8625606e-02
-1.8981129e-02
-1.9955583e-02
-2.0848872e-02
-1.8361347e-02
-1.3393691e-02
-8.0058643e-03
-2.2850015e-03
3.7397390e-03
9.1350699e-03
1.3143797e-02
1.5662241e-02
1.5706210e-02
1.2347125e-02
6.3494353e-03
3.0706223e-04
-4.9594943e-03
-9.5364821e-03
-1.2256670e-02
-1.2773476e-02
-1.0824473e-02
-6.5821208e-03
-1.3130472e-03
4.3837154e-03
9.6558975e-03
1.2810037e-02
1.3273958e-02
1.0988950e-02
6.2170404e-03
-1.1202001e-04
-4.4665908e-03
-5.3807551e-03
-7.5468629e-03
-1.1357935e-02
-1.2590700e-02
-1.0347701e-02
-7.2783838e-03
-4.8538470e-03
-1.3075036e-03
2.9027962e-03
5.2857591e-03
6.5729940e-03
8.2968516e-03
9.0384498e-03
8.3634736e-03
6.1670716e-03
1.4356049e-03
-3.6056206e-03
-4.8434318e-03
-1.9942579e-03
2.0812046e-03
6.8758152e-03
1.3348073e-02
1.9960823e-02
2.1998534e-02
1.6188113e-02
7.2364419e-03
2.1539466e-03
7.8750476e-04
9.3959371e-04
1.6350372e-03
8.7018125e-04
-1.5043711e-03
-3.8087945e-03
-6.2393619e-03
-8.3027105e-03
-7.1276072e-03
-2.4733137e-03
1.4940227e-03
7.3784296e-05
-6.2441678e-03
-1.0238529e-02
-7.0215308e-03
-6.7042104e-04
3.3389480e-03
3.1848891e-03
-1.0115488e-03
-7.2958434e-03
-1.3463922e-02
-1.7486296e-02
-1.6470687e-02
-1.1860370e-02
-8.6816226e-03
-8.6752951e-03
-1.0641339e-02
-1.1073455e-02
-7.8600269e-03
-1.9189599e-03
5.5267385e-03
1.2981121e-02
2.0530042e-02
2.7710612e-02
3.2381122e-02
3.3440330e-02
3.0732314e-02
2.4667232e-02
1.5846587e-02
5.9576415e-03
-3.7059022e-03
-1.2199400e-02
-1.7180716e-02
-1.8622815e-02
-1.8319377e-02
-1.6385515e-02
-1.2653428e-02
-9.0367659e-03
-6.1428644e-03
-2.8346602e-03
7.1751976e-04
4.3906151e-03
7.4669253e-03
7.6254069e-03
4.1766341e-03
-1.4257114e-03
-8.5566930e-03
-1.4960130e-02
-1.7610685e-02
-1.6549613e-02
-1.4307096e-02
-1.2562243e-02
-9.9953700e-03
-7.3735879e-03
-6.3536003e-03
-6.7565878e-03
-7.8475970e-03
-9.1328905e-03
-1.2323599e-02
-1.6459608e-02
-2.0841679e-02
-2.3717915e-02
-1.6583057e-02
-9.6634739e-04
1.1339108e-02
1.6727376e-02
1.8002817e-02
1.7464074e-02
1.5883467e-02
1.3329500e-02
1.1622885e-02
1.2078836e-02
1.3405066e-02
1.4074008e-02
1.2319007e-02
7.7545946e-03
1.1480522e-03
-7.5259282e-03
-1.5968438e-02
-2.1460048e-02
-2.3551207e-02
-2.2979392e-02
-2.0738501e-02
-1.7943745e-02
-1.6859806e-02
-1.6602013e-02
-1.2065594e-02
2.6163373e-03
2.4279564e-02
4.0454909e-02
4.7405780e-02
4.7242895e-02
4.1323572e-02
3.2472676e-02
2.2024337e-02
1.0207718e-02
-1.8367268e-03
-1.0111513e-02
-1.3242064e-02
-1.4415378e-02
-1.4249435e-02
-1.2055303e-02
-8.1060510e-03
-4.3390809e-03
-1.3257515e-03
4.2380952e-03
1.2536768e-02
2.0985852e-02
2.6454343e-02
2.7133322e-02
2.4259391e-02
1.7973405e-02
6.9810874e-03
-7.4628498e-03
-2.0188770e-02
-2.5991063e-02
-2.4790275e-02
-2.1248179e-02
-1.7663627e-02
-1.3242405e-02
-7.7542292e-03
-2.3757250e-03
2.7051858e-03
8.0724910e-03
1.1829995e-02
1.3281517e-02
1.2970788e-02
9.3600905e-03
3.1791724e-03
-2.4234569e-03
-6.0101859e-03
-7.6301019e-03
-9.2123052e-03
-1.0593729e-02
-8.7386840e-03
-4.0406397e-03
5.7024425e-04
2.6759794e-03
2.9041014e-03
4.5157466e-03
7.9277429e-03
1.1217612e-02
1.2155519e-02
9.3049416e-03
3.4134296e-03
-4.3117825e-03
-1.1363165e-02
-1.5019088e-02
-1.5199020e-02
-1.3120654e-02
-1.0724732e-02
-8.5373266e-03
-6.2815730e-03
-3.4857028e-03
1.7068580e-03
7.9372364e-03
1.1632596e-02
1.1355341e-02
7.6421216e-03
1.8766133e-03
-5.2642854e-03
-1.1422189e-02
-1.3111148e-02
-1.1308002e-02
-8.3707616e-03
-5.2067596e-03
-2.3251636e-03
6.4429814e-04
3.6593700e-03
6.4531995e-03
9.1695709e-03
1.2345202e-02
1.5323628e-02
1.5937037e-02
1.3000800e-02
6.3638726e-03
-1.7520837e-03
-7.5600266e-03
-1.0511907e-02
-1.1403584e-02
-1.1274865e-02
-1.1183187e-02
-1.0011466e-02
-6.3955561e-03
-4.3429482e-04
5.8222332e-03
1.1629171e-02
1.7619677e-02
2.1464335e-02
2.0479006e-02
1.4112168e-02
2.9708395e-03
-1.0090921e-02
-2.1533771e-02
-3.0144871e-02
-3.4649248e-02
-3.2958546e-02
-2.6079536e-02
-1.6269423e-02
-5.1392130e-03
4.2304758e-03
1.0659771e-02
1.6927801e-02
2.3505625e-02
2.7630514e-02
2.8019849e-02
2.5447941e-02
2.1197737e-02
1.5811966e-02
9.0104391e-03
9.5215044e-04
-5.9899647e-03
-1.1242443e-02
-1.4438739e-02
-1.4578562e-02
-1.3593540e-02
-1.0813084e-02
-4.5631334e-03
3.8075520e-03
1.0284718e-02
1.2474023e-02
1.2061221e-02
9.3927648e-03
3.8835471e-03
-1.6463157e-03
-4.6158189e-03
-7.2892207e-03
-1.1635852e-02
-1.4832243e-02
-1.3693015e-02
-8.5064111e-03
-9.1294061e-04
7.5942086e-03
1.6396594e-02
2.3755784e-02
2.7414140e-02
2.7051716e-02
2.0341175e-02
8.5110888e-03
-2.0039901e-03
-1.0502157e-02
-1.7685574e-02
-2.0543693e-02
-1.9032379e-02
-1.6798776e-02
-1.4949275e-02
-1.1025100e-02
-5.6290417e-03
-9.8845661e-04
2.9419130e-03
6.6559574e-03
1.1293099e-02
1.6540945e-02
1.9246556e-02
1.8230964e-02
1.4844899e-02
1.0064646e-02
5.2865673e-03
1.0423288e-03
-2.9907587e-03
-5.9129465e-03
-7.2504250e-03
-9.3095090e-03
-1.2870709e-02
-1.4188245e-02
-1.1237807e-02
-5.2420742e-03
2.4226560e-03
9.1920729e-03
1.1150308e-02
8.0455928e-03
2.8434534e-03
-2.3808256e-03
-7.2463234e-03
-1.2038255e-02
-1.5376649e-02
-1.7417265e-02
-1.8890288e-02
-1.8724549e-02
-1.7373114e-02
-1.6323671e-02
-1.5976689e-02
-1.5068710e-02
-1.1701789e-02
-7.3371013e-03
-4.7451565e-03
-2.6060339e-03
1.2687351e-03
7.7891141e-03
1.7156396e-02
2.7464709e-02
3.5633149e-02
3.9281566e-02
3.8294338e-02
3.4372430e-02
2.7599931e-02
1.6945526e-02
3.6808908e-03
-8.0718245e-03
-1.5625286e-02
-1.9617396e-02
-2.1018541e-02
-2.1091143e-02
-2.1120750e-02
-1.9419566e-02
-1.4772951e-02
-9.7678788e-03
-4.8000582e-03
8.1802853e-04
6.3337396e-03
1.2063942e-02
1.6763865e-02
1.8060527e-02
1.5280318e-02
8.5795710e-03
-1.6890295e-04
-7.7572242e-03
-1.2724818e-02
-1.4857879e-02
-1.4132921e-02
-1.1498476e-02
-8.4392332e-03
-5.3983268e-03
-2.6280548e-03
-1.3869760e-03
3.1873702e-05
5.2483626e-03
1.3105436e-02
1.8932396e-02
2.0519741e-02
1.9588954e-02
1.7746288e-02
1.3838051e-02
6.8720708e-03
-1.2648871e-03
-7.8628333e-03
-1.2117848e-02
-1.4386527e-02
-1.4738759e-02
-1.3348262e-02
-1.1194657e-02
-8.1960258e-03
-3.0695364e-03
3.0451021e-03
8.2539901e-03
1.1445840e-02
1.1856010e-02
9.9749424e-03
5.5282993e-03
-1.6133827e-03
-8.9310483e-03
-1.4121490e-02
-1.6369228e-02
-1.6511056e-02
-1.6900224e-02
-1.5566691e-02
-9.6182474e-03
-1.6626492e-03
5.2966703e-03
1.0709834e-02
1.4618559e-02
1.7674167e-02
2.0526072e-02
2.1109626e-02
1.6220022e-02
6.8555632e-03
-2.6174437e-03
-8.9903307e-03
-1.2081668e-02
-1.4504580e-02
-1.6342986e-02
-1.5466398e-02
-1.1656868e-02
-6.3132993e-03
-1.1574664e-03
4.2665047e-03
1.0227708e-02
1.5786151e-02
1.9444693e-02
1.9578839e-02
1.5303772e-02
7.8706655e-03
2.3797185e-04
-6.4553198e-03
-1.2791218e-02
-1.8519689e-02
-2.0775719e-02
-1.8791112e-02
-1.4580016e-02
-8.5714896e-03
-2.3470324e-03
2.5762720e-03
6.1102430e-03
8.4757516e-03
9.7623730e-03
8.3978598e-03
5.2031543e-03
2.2981192e-03
-2.1223116e-04
-3.1252382e-03
-6.4282779e-03
-7.8297685e-03
-5.9224821e-03
-1.7812147e-03
2.7702242e-03
7.1313413e-03
1.2854255e-02
2.0817931e-02
2.8962247e-02
3.3933676e-02
3.3167157e-02
2.6279430e-02
1.3762791e-02
-2.9208893e-03
-1.7630691e-02
-2.5383349e-02
-2.7914210e-02
-2.8142296e-02
-2.6755602e-02
-2.3808506e-02
-1.9358736e-02
-1.3238504e-02
-7.1599819e-03
-1.8802901e-03
4.2527600e-03
1.0734411e-02
1.6505225e-02
2.0111928e-02
1.8173546e-02
1.0706452e-02
1.2967640e-03
-8.0427881e-03
-1.6541935e-02
-2.3702128e-02
-2.8757661e-02
-3.0871928e-02
-2.8813731e-02
-2.0820029e-02
-9.6758578e-03
-1.5702788e-03
1.4983300e-03
2.9923939e-03
5.7130984e-03
8.8522571e-03
1.2494361e-02
1.6255329e-02
1.8432531e-02
2.0516823e-02
2.3555721e-02
2.6225908e-02
2.7595289e-02
2.7069050e-02
2.4213474e-02
1.7463491e-02
6.2954432e-03
-7.4664333e-03
-2.2580370e-02
-3.7185654e-02
-4.9727019e-02
-5.8744748e-02
-6.0500756e-02
-5.2723510e-02
-3.2313796e-02
-2.7236439e-03
2.2356210e-02
3.7001689e-02
4.3911983e-02
4.5501578e-02
4.1354238e-02
3.0591698e-02
1.5778429e-02
1.3599405e-03
-9.2014424e-03
-1.5517210e-02
-1.9482779e-02
-2.2644472e-02
-2.4389013e-02
-2.2971860e-02
-1.8800005e-02
-1.2723474e-02
-3.9330641e-03
6.3837000e-03
1.6690450e-02
2.5840811e-02
3.0826659e-02
3.0919861e-02
2.7558381e-02
2.1010862e-02
1.4043628e-02
1.0984199e-02
1.0822650e-02
1.1172672e-02
1.1816602e-02
1.0828539e-02
5.2755041e-03
-3.9186118e-03
-1.2147753e-02
-1.7472240e-02
-2.0283313e-02
-2.0735136e-02
-2.0103746e-02
-1.9391877e-02
-1.8315127e-02
-1.7466134e-02
-1.7360750e-02
-1.8049917e-02
-1.9355082e-02
-1.9609079e-02
-1.8791585e-02
-1.8121740e-02
-1.6272921e-02
-9.9679484e-03
4.0411937e-03
2.2860972e-02
3.7566515e-02
4.5129315e-02
4.6209864e-02
4.0570217e-02
3.1364730e-02
2.1219569e-02
1.0072355e-02
-6.0929061e-04
-8.2796854e-03
-1.3386207e-02
-1.8226430e-02
-2.2911266e-02
-2.5454956e-02
-2.3767389e-02
-1.9005031e-02
-1.6286316e-02
-1.6535240e-02
-1.7266093e-02
-1.7425033e-02
-1.6251797e-02
-1.4750941e-02
-1.3450320e-02
-1.0306202e-02
3.5744113e-04
1.6211587e-02
2.4301218e-02
2.3034868e-02
1.8938663e-02
1.3815604e-02
8.6846166e-03
5.2141425e-03
3.5349354e-03
3.7583154e-03
7.3958300e-03
1.2367366e-02
1.5245750e-02
1.6138233e-02
1.4016034e-02
8.0325128e-03
5.1662202e-04
-6.2689053e-03
-1.0839247e-02
-1.3715513e-02
-1.7013253e-02
-2.0424764e-02
-2.1987205e-02
-2.1403327e-02
-1.8209552e-02
-8.0642799e-03
8.4584229e-03
2.2180563e-02
2.9507065e-02
3.2538751e-02
3.1494770e-02
2.6766532e-02
1.9809810e-02
1.1748944e-02
3.0737236e-03
-4.3484289e-03
-8.4465051e-03
-1.0357095e-02
-1.1038843e-02
-1.0234426e-02
-8.1260655e-03
-4.3043179e-03
7.7922461e-04
7.4628072e-03
1.4734305e-02
1.8381607e-02
1.7969932e-02
1.6480309e-02
1.4713797e-02
9.9593948e-03
-6.7793058e-04
-1.3631345e-02
-2.1664896e-02
-2.4011614e-02
-2.3924480e-02
-2.1963833e-02
-1.6281160e-02
-6.4984697e-03
3.6969219e-03
1.0323698e-02
1.3033412e-02
1.3624240e-02
1.1615233e-02
5.9299893e-03
-1.9386737e-03
-1.0520172e-02
-1.8659354e-02
-2.3719602e-02
-2.4256438e-02
-2.2602375e-02
-1.9263063e-02
-1.1900250e-02
-1.5591242e-03
9.6963949e-03
2.1212219e-02
2.9076527e-02
3.0403965e-02
2.9272821e-02
2.7798003e-02
2.4236245e-02
1.7902498e-02
8.4711494e-03
-1.9164226e-03
-9.3780802e-03
-1.2948424e-02
-1.5098157e-02
-1.8422210e-02
-2.1995902e-02
-2.2362260e-02
-1.8016731e-02
-8.8989688e-03
4.0983237e-03
1.6729983e-02
2.4748001e-02
2.9045322e-02
3.0652062e-02
2.8520099e-02
2.4412563e-02
2.0248155e-02
1.3545138e-02
-8.1490488e-04
-1.9733834e-02
-3.1308324e-02
-3.1138624e-02
-2.5554109e-02
-2.0085810e-02
-1.3866618e-02
-5.4930520e-03
1.8655576e-03
5.5704766e-03
6.8926955e-03
5.5803532e-03
4.3764381e-04
-6.4277349e-03
-1.2790811e-02
-1.7829384e-02
-1.9279587e-02
-1.6333067e-02
-1.1572863e-02
-7.0719824e-03
-3.3052170e-03
3.2404372e-04
4.4234241e-03
9.5092334e-03
1.5187469e-02
1.9426150e-02
1.9904824e-02
1.5569764e-02
8.0342707e-03
-8.4142219e-04
-9.4511699e-03
-1.5164695e-02
-1.7443388e-02
-1.6838596e-02
-1.2984495e-02
-7.0505942e-03
-1.3340152e-03
2.3369220e-03
3.7887917e-03
5.9712442e-03
1.0053689e-02
1.3683722e-02
1.6078099e-02
1.5574019e-02
1.1786578e-02
8.0551904e-03
4.4562975e-03
3.4729708e-04
-2.9444807e-03
-5.3489063e-03
-8.1754788e-03
-1.1704427e-02
-1.3219317e-02
-1.0984493e-02
-5.3342155e-03
2.7020665e-03
1.0524237e-02
1.5965994e-02
1.7793442e-02
1.5965612e-02
1.0754425e-02
2.1871124e-03
-6.8673786e-03
-1.3081074e-02
-1.5690261e-02
-1.5922990e-02
-1.4514607e-02
-1.1488016e-02
-6.9317322e-03
-5.5797922e-04
4.6969237e-03
7.6715775e-03
1.0436776e-02
1.1964286e-02
1.2444341e-02
1.1505707e-02
6.0998166e-03
-1.7941793e-03
-8.6746805e-03
-1.3873629e-02
-1.6887695e-02
-1.7217430e-02
-1.4036087e-02
-8.7147646e-03
-3.7536550e-03
9.3462885e-04
5.5646900e-03
9.8053841e-03
1.3080206e-02
1.4414769e-02
1.4809972e-02
1.4634616e-02
1.1994555e-02
6.9251575e-03
1.9177224e-03
-2.0140095e-03
-5.2907145e-03
-6.9212869e-03
-5.5434211e-03
-1.2519689e-03
2.2024182e-03
2.4504030e-03
2.4633721e-03
4.6272741e-03
7.6198043e-03
8.7355070e-03
8.3210217e-03
6.6499908e-03
1.7232160e-03
-5.1646090e-03
-1.0671807e-02
-1.4172368e-02
-1.5854122e-02
-1.5030949e-02
-1.1242092e-02
-4.4729205e-03
3.3328275e-03
1.0388731e-02
1.8539028e-02
2.9132933e-02
4.0224974e-02
4.8147898e-02
4.9675272e-02
4.2911216e-02
2.7133343e-02
4.0820282e-03
-1.9924783e-02
-3.6485287e-02
-4.4439989e-02
-4.6551714e-02
-4.3227886e-02
-3.6458156e-02
-2.9134303e-02
-2.0718307e-02
-1.0761266e-02
-2.1474855e-03
3.9177984e-03
8.1700356e-03
1.1068145e-02
1.2377083e-02
1.0592887e-02
6.0011308e-03
2.4920426e-04
-6.1197675e-03
-1.0477207e-02
-1.0922071e-02
-9.8830248e-03
-8.6001551e-03
-6.2429609e-03
-3.3299115e-03
-1.1132932e-04
4.3236922e-03
8.4873021e-03
1.0879686e-02
1.2473078e-02
1.2771171e-02
1.0940139e-02
6.1341766e-03
-1.1252632e-03
-7.5568114e-03
-1.2239752e-02
-1.5845664e-02
-1.8020974e-02
-1.7891728e-02
-1.4247976e-02
-8.7405134e-03
-5.2895636e-03
-4.5567300e-03
-5.0039399e-03
-8.1544474e-03
-1.6825383e-02
-3.0345746e-02
-4.6168815e-02
-5.9802664e-02
-6.2352607e-02
-4.1685343e-02
-4.1303931e-03
2.2916805e-02
3.1429071e-02
3.1847104e-02
2.9970042e-02
2.7921823e-02
2.6351329e-02
2.6252609e-02
2.7859427e-02
2.9732787e-02
2.9456706e-02
2.5409959e-02
1.8148337e-02
9.1898544e-03
-6.3014136e-05
-9.3975714e-03
-1.9137596e-02
-2.7068926e-02
-3.0505436e-02
-3.0438792e-02
-2.8247056e-02
-2.3394770e-02
-1.5355919e-02
-2.7449918e-03
1.6997138e-02
4.0753744e-02
5.8179772e-02
6.5354549e-02
6.6408610e-02
6.4476702e-02
5.9740692e-02
5.0002107e-02
3.6243210e-02
2.2236318e-02
8.8647308e-03
-5.1189464e-03
-1.9525303e-02
-3.0669708e-02
-3.5354080e-02
-3.4175997e-02
-2.7884452e-02
-1.7645870e-02
-7.7200973e-03
-2.1904868e-03
-1.4437707e-03
-4.9635913e-03
-1.1966784e-02
-1.9354458e-02
-2.4921784e-02
-2.6737082e-02
-2.3136354e-02
-1.6970461e-02
-1.3209328e-02
-1.3852562e-02
-1.4914640e-02
-1.0348426e-02
-5.2217005e-04
9.9424603e-03
1.7770599e-02
2.2920699e-02
2.6821079e-02
2.8003851e-02
2.6021237e-02
2.4326609e-02
2.3656204e-02
2.1467428e-02
1.6157956e-02
7.5293438e-03
-2.5681000e-03
-1.2696380e-02
-2.1491454e-02
-2.6432177e-02
-2.5659458e-02
-1.9026369e-02
-1.0455945e-02
-1.6375920e-03
8.1506650e-03
1.0566791e-02
3.2854315e-04
-1.4896050e-02
-2.7581521e-02
-3.4411728e-02
-3.7248877e-02
-3.8934500e-02
-3.7490529e-02
-3.3141265e-02
-2.7540836e-02
-1.9744271e-02
-9.8499443e-03
1.8022688e-03
1.3430021e-02
2.0452635e-02
2.0397944e-02
1.4172694e-02
3.7621202e-03
-8.5826627e-03
-1.8882247e-02
-2.3732037e-02
-2.1785021e-02
-1.1544836e-02
3.6496199e-03
1.5666808e-02
2.1426569e-02
2.3146313e-02
2.2998057e-02
2.2582667e-02
2.2748332e-02
2.2479195e-02
2.0431268e-02
1.5095157e-02
4.1722518e-03
-1.1319458e-02
-2.7554430e-02
-4.0411939e-02
-4.6378267e-02
-4.6024393e-02
-4.0692947e-02
-3.0156016e-02
-1.8350925e-02
-9.7823259e-03
-2.9589080e-03
4.8267370e-03
1.2782634e-02
1.9486971e-02
2.6538623e-02
3.3743484e-02
3.5874169e-02
3.0967932e-02
2.2247391e-02
1.3633396e-02
9.1444840e-03
8.5773731e-03
7.8677931e-03
7.1783108e-03
9.2935262e-03
1.4178125e-02
2.0674442e-02
2.7350656e-02
3.2196337e-02
3.4438051e-02
3.3797055e-02
2.8826872e-02
2.0410780e-02
1.1139995e-02
2.0982165e-03
-3.7983742e-03
-4.6436830e-03
-4.6953004e-03
-7.7930023e-03
-1.4482816e-02
-2.2450595e-02
-2.6214104e-02
-2.5278752e-02
-2.2071112e-02
-1.5999735e-02
-6.6092993e-03
4.2127438e-03
1.1884881e-02
1.3071020e-02
9.0847027e-03
2.9035192e-03
-4.3968742e-03
-1.1608430e-02
-1.6135610e-02
-1.6977702e-02
-1.5785706e-02
-1.4858422e-02
-1.4230546e-02
-1.2103495e-02
-8.3353201e-03
-5.2337926e-03
-2.5344524e-03
1.7168091e-03
6.3266341e-03
1.0004445e-02
1.1498579e-02
9.8979550e-03
6.0247273e-03
1.3817250e-03
-2.0632731e-03
-4.3792639e-03
-6.1407588e-03
-6.7495721e-03
-6.2192887e-03
-4.2072288e-03
-2.0595478e-04
4.7736648e-03
1.0819638e-02
1.7554383e-02
2.1596581e-02
2.2223082e-02
1.9778039e-02
1.3343947e-02
4.6595777e-03
-4.6037317e-03
-1.2757300e-02
-1.7982991e-02
-2.0997399e-02
-2.1379799e-02
-1.8106122e-02
-1.3088274e-02
-8.4383934e-03
-3.3504898e-03
3.7554018e-03
1.1076329e-02
1.4994810e-02
1.4224656e-02
9.7738708e-03
4.1886538e-03
-7.1024364e-04
-5.1968069e-03
-8.6635506e-03
-1.0024643e-02
-1.0619357e-02
-1.0917076e-02
-8.8537066e-03
-5.1278646e-03
-1.9110447e-03
7.5621216e-04
3.3291692e-03
5.7853940e-03
8.1651427e-03
9.5248117e-03
7.9216696e-03
5.1157409e-03
3.2695289e-03
1.0375165e-03
-2.1854243e-03
-5.9637486e-03
-8.5919926e-03
-8.2136878e-03
-6.1599106e-03
-4.2063385e-03
-1.3061954e-03
4.2435694e-03
1.1810296e-02
1.8686510e-02
2.3225152e-02
2.5083757e-02
2.2409369e-02
1.4533724e-02
5.0899827e-03
-4.2879063e-03
-1.4555659e-02
-2.3143376e-02
-2.7842134e-02
-2.8289406e-02
-2.4765778e-02
-1.8884482e-02
-1.0440872e-02
4.9721647e-04
1.1068054e-02
1.8732109e-02
2.3043784e-02
2.4869065e-02
2.3126042e-02
1.7049414e-02
9.2857241e-03
9.4086325e-04
-7.4453116e-03
-1.2846461e-02
-1.3810751e-02
-1.2449575e-02
-1.1613128e-02
-1.0486726e-02
-6.3339118e-03
6.9984455e-04
8.6403429e-03
1.4731477e-02
1.6701876e-02
1.5312218e-02
1.2112854e-02
6.7113567e-03
-1.7376792e-04
-6.0230105e-03
-1.0163667e-02
-1.2725737e-02
-1.2790014e-02
-1.1145645e-02
-9.6566892e-03
-7.3673427e-03
-3.0675099e-03
2.4576572e-03
8.5996616e-03
1.2800700e-02
1.2419659e-02
9.7047012e-03
5.9861231e-03
-2.6065397e-04
-7.5845092e-03
-1.2874560e-02
-1.5069469e-02
-1.5574511e-02
-1.6402461e-02
-1.7745766e-02
-1.8247880e-02
-1.7144658e-02
-1.4181868e-02
-7.8528887e-03
2.0276234e-03
1.1752052e-02
1.8718408e-02
2.3067222e-02
2.3152615e-02
1.8331944e-02
1.2335292e-02
7.2616900e-03
3.1829559e-03
1.1282262e-03
1.6215254e-03
4.7812513e-03
