0.0000000e+00
-2.2166289e-09
1.2098158e-06
5.7945393e-06
1.6133759e-05
3.3982265e-05
5.9296441e-05
8.9299241e-05
1.1814208e-04
1.3726804e-04
1.3658531e-04
1.0671622e-04
4.2359890e-05
-5.3993672e-05
-1.6955314e-04
-2.8160261e-04
-3.6169729e-04
-3.8305471e-04
-3.2878246e-04
-1.9786640e-04
-6.7326859e-06
2.1397504e-04
4.2607150e-04
5.9178753e-04
6.8093361e-04
6.7660881e-04
5.7920374e-04
4.0181917e-04
1.6625625e-04
-9.9447549e-05
-3.6328435e-04
-5.9202860e-04
-7.5464197e-04
-8.2613819e-04
-7.9168135e-04
-6.5043079e-04
-4.1797112e-04
-1.2578401e-04
1.8309921e-04
4.6163630e-04
6.6758949e-04
7.7119648e-04
7.5968066e-04
6.3787901e-04
4.2575596e-04
1.5425458e-04
-1.3935484e-04
-4.1612787e-04
-6.3969674e-04
-7.7935946e-04
-8.2071499e-04
-7.6282537e-04
-6.1578928e-04
-3.9999747e-04
-1.4458853e-04
1.1599330e-04
3.4740717e-04
5.2156122e-04
6.2156049e-04
6.4368521e-04
5.9562733e-04
4.9181591e-04
3.4804334e-04
1.7780177e-04
-8.3156409e-06
-2.0041431e-04
-3.8601589e-04
-5.4792194e-04
-6.6470118e-04
-7.1402004e-04
-6.7814276e-04
-5.5031909e-04
-3.4032560e-04
-7.5007165e-05
2.1183828e-04
4.7566262e-04
6.6585149e-04
7.3769720e-04
6.6567597e-04
4.5347691e-04
1.3669001e-04
-2.2375571e-04
-5.5590732e-04
-7.9439457e-04
-8.9567817e-04
-8.4637263e-04
-6.6298518e-04
-3.8454475e-04
-6.1326336e-05
2.5690932e-04
5.3015538e-04
7.3269179e-04
8.5245500e-04
8.8706244e-04
8.3947850e-04
7.1568269e-04
5.2708201e-04
2.9462712e-04
4.4555004e-05
-1.8896130e-04
-3.6855918e-04
-4.6100588e-04
-4.4565645e-04
-3.2144311e-04
-1.1011429e-04
1.4606793e-04
3.9297660e-04
5.7843109e-04
6.6717715e-04
6.5123490e-04
5.5113540e-04
4.0751425e-04
2.6648074e-04
1.6425392e-04
1.1637839e-04
1.1499103e-04
1.3492717e-04
1.4641011e-04
1.2936271e-04
8.3202755e-05
2.6462564e-05
-1.5161134e-05
-1.9043981e-05
2.2669779e-05
9.8263219e-05
1.8118253e-04
2.4097043e-04
2.5458624e-04
2.1293760e-04
1.2065842e-04
-9.1880108e-06
-1.6161771e-04
-3.2379830e-04
-4.8520264e-04
-6.3484822e-04
-7.5792809e-04
-8.3416819e-04
-8.3963148e-04
-7.5247320e-04
-5.6137695e-04
-2.7371395e-04
8.0439194e-05
4.5159915e-04
7.8181682e-04
1.0188897e-03
1.1280676e-03
1.0990976e-03
9.4915632e-04
7.1512250e-04
4.4080971e-04
1.6519164e-04
-8.4752003e-05
-2.9542901e-04
-4.6330935e-04
-5.8926271e-04
-6.7309802e-04
-7.1024701e-04
-6.9188430e-04
-6.0872763e-04
-4.5695571e-04
-2.4325218e-04
1.3745677e-05
2.8635199e-04
5.4343006e-04
7.5592979e-04
9.0053618e-04
9.6134336e-04
9.3062874e-04
8.1169914e-04
6.2266920e-04
3.8665387e-04
1.2982296e-04
-1.2075131e-04
-3.3961370e-04
-5.0520643e-04
-6.0196296e-04
-6.2201665e-04
-5.6625440e-04
-4.4450888e-04
-2.7461000e-04
-7.9860143e-05
1.1523492e-04
2.9012774e-04
4.3233867e-04
5.3851082e-04
6.1165304e-04
6.5568325e-04
6.6991747e-04
6.4654753e-04
5.7302931e-04
4.3895018e-04
2.4446356e-04
6.0066907e-06
-2.4438171e-04
-4.6783995e-04
-6.2309952e-04
-6.7515470e-04
-6.0637123e-04
-4.2353950e-04
-1.5799886e-04
1.4115948e-04
4.1823089e-04
6.2268462e-04
7.1840334e-04
6.8868434e-04
5.3705254e-04
2.8507585e-04
-3.1521170e-05
-3.6769871e-04
-6.7472726e-04
-9.0661046e-04
-1.0269342e-03
-1.0150978e-03
-8.7050763e-04
-6.1348569e-04
-2.8219654e-04
7.2534756e-05
3.9301083e-04
6.3375346e-04
7.7024205e-04
8.0007951e-04
7.3863864e-04
6.1119585e-04
4.4475182e-04
2.6218530e-04
8.0043103e-05
-9.0358379e-05
-2.4018282e-04
-3.6072939e-04
-4.4282679e-04
-4.7811564e-04
-4.6141039e-04
-3.9279176e-04
-2.7820931e-04
-1.2837230e-04
4.3017339e-05
2.2022293e-04
3.8519014e-04
5.1719964e-04
5.9420764e-04
5.9772395e-04
5.2070872e-04
3.7059282e-04
1.6560357e-04
-6.8243926e-05
-3.0047808e-04
-4.9979950e-04
-6.3790918e-04
-6.9363720e-04
-6.5696570e-04
-5.3191818e-04
-3.3718763e-04
-1.0361851e-04
1.3154699e-04
3.3226725e-04
4.7068805e-04
5.3138668e-04
5.1210191e-04
4.2158563e-04
2.7592809e-04
9.4733706e-05
-1.0177955e-04
-2.9429089e-04
-4.6486984e-04
-5.9788769e-04
-6.8190739e-04
-7.1314830e-04
-6.9062461e-04
-6.1469694e-04
-4.8900255e-04
-3.2213891e-04
-1.2726820e-04
8.0339224e-05
2.8605907e-04
4.7718155e-04
6.4224018e-04
7.6933202e-04
8.4498397e-04
8.5483727e-04
7.8670129e-04
6.3562107e-04
4.0934492e-04
1.3158259e-04
-1.5922797e-04
-4.1641866e-04
-5.9576859e-04
-6.6738023e-04
-6.2458614e-04
-4.8674662e-04
-2.9417246e-04
-9.2107727e-05
7.9507896e-05
1.9456203e-04
2.4490800e-04
2.3831996e-04
1.9184123e-04
1.2400882e-04
4.9325529e-05
-2.3568337e-05
-9.0540170e-05
-1.4904195e-04
-1.9560893e-04
-2.2526893e-04
-2.3313587e-04
-2.1732168e-04
-1.8157101e-04
-1.3593602e-04
-9.4717832e-05
-7.2383575e-05
-7.9276167e-05
-1.1896453e-04
-1.8808017e-04
-2.7817851e-04
-3.7673858e-04
-4.6857569e-04
-5.4389181e-04
-5.9995418e-04
-6.3661486e-04
-6.5061109e-04
-6.3209730e-04
-5.6555403e-04
-4.3530255e-04
-2.3374459e-04
3.1330150e-05
3.3412406e-04
6.3443027e-04
8.8588865e-04
1.0456669e-03
1.0828534e-03
9.8423507e-04
7.5697143e-04
4.2807306e-04
4.1038064e-05
-3.4983459e-04
-6.8715501e-04
-9.1977461e-04
-1.0119631e-03
-9.4811453e-04
-7.4063573e-04
-4.2804881e-04
-6.5528939e-05
2.8663507e-04
5.7471288e-04
7.6055648e-04
8.2594445e-04
7.7195638e-04
6.1470649e-04
3.7943100e-04
9.4842567e-05
-2.1087238e-04
-5.1190486e-04
-7.8486754e-04
-1.0079510e-03
-1.1603227e-03
-1.2226608e-03
-1.1792363e-03
-1.0214913e-03
-7.5237768e-04
-3.8980559e-04
3.2784296e-05
4.6835506e-04
8.5977848e-04
1.1573053e-03
1.3308471e-03
1.3739164e-03
1.2997150e-03
1.1327669e-03
9.0082606e-04
6.3012317e-04
3.4427974e-04
6.5503597e-05
-1.8390600e-04
-3.8164842e-04
-5.0814486e-04
-5.5131082e-04
-5.1121261e-04
-4.0189237e-04
-2.4870829e-04
-8.1775081e-05
7.1872555e-05
1.9407392e-04
2.7697160e-04
3.2012124e-04
3.2576904e-04
2.9671832e-04
2.3533123e-04
1.4517266e-04
2.9716805e-05
-1.0763593e-04
-2.6066336e-04
-4.1748060e-04
-5.5891777e-04
-6.5887448e-04
-6.8777687e-04
-6.1979434e-04
-4.4244776e-04
-1.6502664e-04
1.7850500e-04
5.3485450e-04
8.4413855e-04
1.0553205e-03
1.1380831e-03
1.0867951e-03
9.1636402e-04
6.5340133e-04
3.2754241e-04
-3.3212069e-05
-4.0193211e-04
-7.4873777e-04
-1.0395499e-03
-1.2473397e-03
-1.3417366e-03
-1.2936994e-03
-1.0914155e-03
-7.5296465e-04
-3.2779753e-04
1.1427139e-04
5.0154679e-04
7.7852915e-04
9.1699048e-04
9.1745227e-04
8.0248649e-04
6.0575666e-04
3.6148606e-04
9.7968885e-05
-1.6376497e-04
-4.0739850e-04
-6.1730399e-04
-7.7576106e-04
-8.6372422e-04
-8.6573204e-04
-7.7688276e-04
-6.0772326e-04
-3.8205886e-04
-1.2780188e-04
1.2462446e-04
3.4715787e-04
5.1921613e-04
6.2912825e-04
6.7201272e-04
6.4643047e-04
5.5299483e-04
3.9630362e-04
1.8857531e-04
-4.7667118e-05
-2.7952316e-04
-4.6705278e-04
-5.7041547e-04
-5.6004473e-04
-4.2698119e-04
-1.8897485e-04
1.1106854e-04
4.1450842e-04
6.6117256e-04
8.0371303e-04
8.1799867e-04
7.0678904e-04
4.9471917e-04
2.2191740e-04
-6.6803378e-05
-3.3146677e-04
-5.4262013e-04
-6.8279092e-04
-7.4485278e-04
-7.2894959e-04
-6.3970274e-04
-4.8511238e-04
-2.7748750e-04
-3.5193867e-05
2.1675995e-04
4.4856458e-04
6.2965339e-04
7.3370110e-04
7.4327553e-04
6.5310972e-04
4.7109190e-04
2.1659055e-04
-8.3138038e-05
-3.9685127e-04
-6.9231964e-04
-9.3892057e-04
-1.1091046e-03
-1.1831305e-03
-1.1490831e-03
-1.0041907e-03
-7.5776871e-04
-4.3369414e-04
-7.0094804e-05
2.8536305e-04
5.8424533e-04
7.8749419e-04
8.7313173e-04
8.3891148e-04
6.9987601e-04
4.8269101e-04
2.1907658e-04
-5.9725085e-05
-3.2612157e-04
-5.5660710e-04
-7.3042072e-04
-8.2844237e-04
-8.3430662e-04
-7.3846898e-04
-5.4400193e-04
-2.7124915e-04
4.4443395e-05
3.6389473e-04
6.4519438e-04
8.5045105e-04
9.5409573e-04
9.4794054e-04
8.4139102e-04
6.5701622e-04
4.2340264e-04
1.6807865e-04
-8.6993903e-05
-3.2618631e-04
-5.3789920e-04
-7.1116533e-04
-8.3328812e-04
-8.9008313e-04
-8.6928064e-04
-7.6605400e-04
-5.8807074e-04
-3.5703859e-04
-1.0497228e-04
1.3397440e-04
3.3263786e-04
4.7525985e-04
5.5390537e-04
5.7372509e-04
5.4882328e-04
4.9569310e-04
4.2781819e-04
3.5268776e-04
2.7177095e-04
1.8305986e-04
8.5002236e-05
-1.9816389e-05
-1.2280920e-04
-2.1031845e-04
-2.6733669e-04
-2.8279423e-04
-2.5408234e-04
-1.8850765e-04
-1.0103514e-04
-9.6880659e-06
6.9188038e-05
1.2402725e-04
1.4881330e-04
1.4203224e-04
1.0520585e-04
4.3246711e-05
-3.5120378e-05
-1.2066353e-04
-2.0135560e-04
-2.6276622e-04
-2.9084240e-04
-2.7595753e-04
-2.1649210e-04
-1.2006102e-04
-1.7863365e-06
1.1944096e-04
2.2509573e-04
3.0015797e-04
3.3458304e-04
3.2324960e-04
2.6513460e-04
1.6272430e-04
2.2399906e-05
-1.4432278e-04
-3.1969864e-04
-4.8000160e-04
-5.9789263e-04
-6.4712123e-04
-6.0906535e-04
-4.7934566e-04
-2.6942564e-04
-1.9809011e-06
2.8667056e-04
5.5334570e-04
7.5861760e-04
8.7555252e-04
8.9386752e-04
8.1921382e-04
6.6916494e-04
4.6793284e-04
2.4141273e-04
1.3528878e-05
-1.9592169e-04
-3.7229158e-04
-5.0630974e-04
-5.9370773e-04
-6.3457889e-04
-6.3270240e-04
-5.9456626e-04
-5.2789305e-04
-4.4032495e-04
-3.3921665e-04
-2.3257613e-04
-1.3022056e-04
-4.5270096e-05
1.1639168e-05
3.2298392e-05
1.2550181e-05
-4.4321589e-05
-1.2524821e-04
-2.0773677e-04
-2.6374001e-04
-2.6650529e-04
-1.9857179e-04
-5.8416745e-05
1.3657868e-04
3.5227351e-04
5.4496866e-04
6.7188184e-04
7.0188136e-04
6.2335011e-04
4.4702359e-04
2.0328423e-04
-6.4958110e-05
-3.1171712e-04
-4.9752429e-04
-5.9726466e-04
-6.0475825e-04
-5.3243588e-04
-4.0774670e-04
-2.6204514e-04
-1.2119449e-04
-1.2212573e-06
9.1714459e-05
1.5841545e-04
2.0274862e-04
2.2835689e-04
2.3682495e-04
2.2760830e-04
1.9962145e-04
1.5355988e-04
9.3271482e-05
2.4955757e-05
-4.5311584e-05
-1.1367596e-04
-1.7818315e-04
-2.3585190e-04
-2.7940877e-04
-2.9679988e-04
-2.7483187e-04
-2.0543896e-04
-9.2168014e-05
4.7026788e-05
1.8919182e-04
3.1091724e-04
3.9243336e-04
4.2098974e-04
3.9200355e-04
3.0896405e-04
1.8315999e-04
3.3064689e-05
-1.1762107e-04
-2.4379914e-04
-3.2406411e-04
-3.4549795e-04
-3.0649187e-04
-2.1669297e-04
-9.4183458e-05
3.9284217e-05
1.6358069e-04
2.6413709e-04
3.3300788e-04
3.6702301e-04
3.6461865e-04
3.2357636e-04
2.4244909e-04
1.2561600e-04
-2.1051675e-05
-1.9067380e-04
-3.7356965e-04
-5.5525442e-04
-7.1546760e-04
-8.2986578e-04
-8.7458010e-04
-8.3235358e-04
-6.9832667e-04
-4.8358671e-04
-2.1495270e-04
6.9699771e-05
3.2967008e-04
5.3062682e-04
6.5172591e-04
6.8861425e-04
6.5178227e-04
5.6129779e-04
4.4030680e-04
3.0988004e-04
1.8653786e-04
8.2060878e-05
3.5827210e-06
-4.4647345e-05
-6.2712955e-05
-5.4817549e-05
-2.8314451e-05
6.1984894e-06
3.5959018e-05
4.9022627e-05
3.8433382e-05
5.5941700e-06
-3.9441966e-05
-8.1832738e-05
-1.0856527e-04
-1.1453232e-04
-1.0516003e-04
-9.4552592e-05
-9.9674125e-05
-1.3227289e-04
-1.9157025e-04
-2.6130068e-04
-3.1331245e-04
-3.1700500e-04
-2.5113179e-04
-1.1330269e-04
7.7138592e-05
2.8444418e-04
4.6992990e-04
6.0007847e-04
6.5274462e-04
6.2107788e-04
5.1339864e-04
3.5005207e-04
1.5847788e-04
-3.2405102e-05
-1.9712192e-04
-3.1651752e-04
-3.7832207e-04
-3.7644678e-04
-3.1039555e-04
-1.8551094e-04
-1.3790424e-05
1.8573138e-04
3.8816240e-04
5.6584082e-04
6.9248587e-04
7.4704298e-04
7.1629004e-04
5.9618663e-04
3.9415611e-04
1.3133523e-04
-1.6671035e-04
-4.7186258e-04
-7.5529932e-04
-9.9000533e-04
-1.1526220e-03
-1.2249563e-03
-1.1958331e-03
-1.0634791e-03
-8.3771020e-04
-5.4079928e-04
-2.0608285e-04
1.2609595e-04
4.1456320e-04
6.2418950e-04
7.3182419e-04
7.2996645e-04
6.2752725e-04
4.4791040e-04
2.2508320e-04
-1.8973930e-06
-1.9552300e-04
-3.2668901e-04
-3.8005543e-04
-3.5165610e-04
-2.5184514e-04
-1.0407432e-04
6.2349187e-05
2.1943436e-04
3.4612370e-04
4.3109654e-04
4.7246442e-04
4.7507286e-04
4.4679759e-04
3.9516575e-04
3.2500993e-04
2.3747396e-04
1.3077713e-04
2.9550353e-06
-1.4410864e-04
-3.0105069e-04
-4.4976471e-04
-5.6574519e-04
-6.2386184e-04
-6.0585664e-04
-5.0685798e-04
-3.3835655e-04
-1.2641929e-04
9.1946045e-05
2.7979834e-04
4.0941516e-04
4.6590032e-04
4.4746026e-04
3.6293738e-04
2.2818301e-04
6.2750214e-05
-1.1222797e-04
-2.7507712e-04
-4.0434388e-04
-4.8025821e-04
-4.8752884e-04
-4.1905951e-04
-2.7896019e-04
-8.3117941e-05
1.4324047e-04
3.7012827e-04
5.6778777e-04
7.1043741e-04
7.7814607e-04
7.5754958e-04
6.4293780e-04
4.4010676e-04
1.7135158e-04
-1.3344969e-04
-4.3538275e-04
-6.9002923e-04
-8.5638186e-04
-9.0638709e-04
-8.3193509e-04
-6.4694828e-04
-3.8411077e-04
-8.7658810e-05
1.9547318e-04
4.2400656e-04
5.6861024e-04
6.1520662e-04
5.6506475e-04
4.3223674e-04
2.3951795e-04
1.4242434e-05
-2.1515779e-04
-4.2149655e-04
-5.8025786e-04
-6.7067144e-04
-6.7730226e-04
-5.9405411e-04
-4.2879054e-04
-2.0055842e-04
6.1229069e-05
3.2132789e-04
5.4577304e-04
7.0911756e-04
7.9897566e-04
8.1605663e-04
7.7007325e-04
6.7388862e-04
5.3890325e-04
3.7373144e-04
1.8626698e-04
-1.2608761e-05
-2.0621139e-04
-3.7216833e-04
-4.8617055e-04
-5.2844299e-04
-4.9053481e-04
-3.7941031e-04
-2.1674896e-04
-3.3502641e-05
1.3815645e-04
2.7159126e-04
3.4598892e-04
3.5574279e-04
3.0923304e-04
2.2275675e-04
1.1429929e-04
-1.3336224e-06
-1.1482829e-04
-2.2178257e-04
-3.1976495e-04
-4.0455356e-04
-4.6762228e-04
-4.9647195e-04
-4.7822457e-04
-4.0541535e-04
-2.8144091e-04
-1.2262394e-04
4.4715921e-05
1.9112972e-04
2.9177826e-04
3.3185374e-04
3.0808604e-04
2.2684672e-04
1.0072512e-04
-5.3566307e-05
-2.1345046e-04
-3.5623206e-04
-4.6265589e-04
-5.1779743e-04
-5.1145030e-04
-4.3919421e-04
-3.0438918e-04
-1.1991346e-04
9.1963711e-05
3.0230144e-04
4.8034775e-04
5.9947761e-04
6.4292032e-04
6.0765985e-04
5.0474489e-04
3.5521699e-04
1.8296030e-04
7.4967140e-06
-1.6009905e-04
-3.1638391e-04
-4.6055586e-04
-5.8847195e-04
-6.8939694e-04
-7.4729554e-04
-7.4578191e-04
-6.7548297e-04
-5.4065122e-04
-3.5992404e-04
-1.6174953e-04
2.2499192e-05
1.6515358e-04
2.4725228e-04
2.6130389e-04
2.1139107e-04
1.1078342e-04
-2.1674533e-05
-1.6461557e-04
-2.9566119e-04
-3.9196808e-04
-4.3155508e-04
-3.9698254e-04
-2.8106887e-04
-9.1889033e-05
1.4630428e-04
3.9746606e-04
6.2175588e-04
7.8408825e-04
8.6050290e-04
8.4235154e-04
7.3799205e-04
5.6583158e-04
3.4878021e-04
1.1146705e-04
-1.2095611e-04
-3.2370616e-04
-4.7405858e-04
-5.5419565e-04
-5.5476412e-04
-4.7795737e-04
-3.3862029e-04
-1.6233200e-04
1.9555137e-05
1.7677191e-04
2.8676791e-04
3.3877109e-04
3.3391077e-04
2.8199138e-04
1.9708637e-04
9.4135638e-05
-1.2571808e-05
-1.0954353e-04
-1.8424635e-04
-2.2678123e-04
-2.3442447e-04
-2.0677028e-04
-1.4407453e-04
-4.9366235e-05
6.8711720e-05
1.9457979e-04
3.0725095e-04
3.8432237e-04
4.0702508e-04
3.6483116e-04
2.5834692e-04
9.9671908e-05
-8.9805660e-05
-2.8341711e-04
-4.5388285e-04
-5.7747111e-04
-6.3668121e-04
-6.2116605e-04
-5.2768410e-04
-3.6034527e-04
-1.3148561e-04
1.3803658e-04
4.1984102e-04
6.7983470e-04
8.8919845e-04
1.0303264e-03
1.0977211e-03
1.0949447e-03
1.0296314e-03
9.0872216e-04
7.3599142e-04
5.1311864e-04
2.4394857e-04
-6.0009987e-05
-3.7566170e-04
-6.6855719e-04
-8.9837201e-04
-1.0283759e-03
-1.0355448e-03
-9.1743137e-04
-6.9337802e-04
-4.0012136e-04
-8.3739818e-05
2.0947545e-04
4.4105527e-04
5.8601083e-04
6.3552600e-04
5.9402251e-04
4.8065546e-04
3.2147155e-04
1.4114333e-04
-4.0965990e-05
-2.1038170e-04
-3.5420679e-04
-4.5795120e-04
-5.0525827e-04
-4.8149038e-04
-3.7973709e-04
-2.0613905e-04
1.8418035e-05
2.6131310e-04
4.8472655e-04
6.5324104e-04
7.4015007e-04
7.3122684e-04
6.2595511e-04
4.3684850e-04
1.8739570e-04
-9.1197831e-05
-3.6440167e-04
-5.9799698e-04
-7.5916293e-04
-8.2514252e-04
-7.9008251e-04
-6.6672198e-04
-4.8388408e-04
-2.7995278e-04
-9.3287033e-05
4.7807341e-05
1.3201097e-04
1.6599421e-04
1.6896618e-04
1.6307231e-04
1.6357548e-04
1.7251364e-04
1.7808122e-04
1.5998892e-04
9.8993838e-05
-1.2701404e-05
-1.6409807e-04
-3.2457931e-04
-4.5119012e-04
-5.0232241e-04
-4.5277359e-04
-3.0292741e-04
-7.6014088e-05
1.8931496e-04
4.4452531e-04
6.4115330e-04
7.4199413e-04
7.2885097e-04
6.0522788e-04
3.9380600e-04
1.2991718e-04
-1.4677340e-04
-3.9986619e-04
-6.0099476e-04
-7.3071226e-04
-7.7629713e-04
-7.2912596e-04
-5.8457757e-04
-3.4565679e-04
-2.8592525e-05
3.3351251e-04
6.9251731e-04
9.9327197e-04
1.1854418e-03
1.2352620e-03
1.1342203e-03
9.0194416e-04
5.7963437e-04
2.2005830e-04
-1.2264459e-04
-4.0177787e-04
-5.8437061e-04
-6.5492330e-04
-6.1672672e-04
-4.9038257e-04
-3.0894144e-04
-1.1009950e-04
7.2241744e-05
2.1385120e-04
3.0158732e-04
3.3105271e-04
3.0295793e-04
2.2067968e-04
9.0244955e-05
-7.7671171e-05
-2.6545315e-04
-4.4799549e-04
-5.9511123e-04
-6.7686868e-04
-6.7161483e-04
-5.7191185e-04
-3.8272003e-04
-1.2574612e-04
1.6439455e-04
4.4841723e-04
6.9092311e-04
8.6618730e-04
9.5992129e-04
9.6777619e-04
8.9241000e-04
7.4101271e-04
5.2440980e-04
2.5764961e-04
-3.8960507e-05
-3.3965560e-04
-6.1475969e-04
-8.3417667e-04
-9.7225499e-04
-1.0128113e-03
-9.5282413e-04
-8.0349135e-04
-5.8793543e-04
-3.3601508e-04
-7.9800752e-05
1.4501655e-04
3.1154150e-04
4.0831445e-04
4.3755621e-04
4.0989848e-04
3.3828297e-04
2.3366967e-04
1.0400447e-04
-4.3788035e-05
-2.0044875e-04
-3.5182533e-04
-4.7870323e-04
-5.5948665e-04
-5.7509981e-04
-5.1469202e-04
-3.8008454e-04
-1.8675204e-04
3.9586201e-05
2.6938986e-04
4.7580245e-04
6.3852424e-04
7.4407375e-04
7.8374610e-04
7.5323526e-04
6.5555737e-04
4.9276264e-04
2.6833655e-04
-8.2152746e-06
-3.1741064e-04
-6.2748909e-04
-8.9613016e-04
-1.0771170e-03
-1.1306868e-03
-1.0342649e-03
-7.8951600e-04
-4.2302056e-04
1.9377964e-05
4.8216613e-04
9.1025477e-04
1.2565831e-03
1.4860217e-03
1.5763730e-03
1.5181042e-03
1.3137007e-03
9.7659781e-04
5.3009305e-04
7.4869235e-06
-5.4554737e-04
-1.0709566e-03
-1.5165339e-03
-1.8295112e-03
-1.9615337e-03
-1.8825247e-03
-1.5943333e-03
-1.1373785e-03
-5.8549017e-04
-2.9263330e-05
4.4665587e-04
7.8435989e-04
9.6436286e-04
1.0045017e-03
9.4702069e-04
8.3922831e-04
7.1569519e-04
5.8894817e-04
4.5139136e-04
2.8633474e-04
8.2712876e-05
-1.5291758e-04
-3.9212056e-04
-5.8989563e-04
-6.9812040e-04
-6.8060070e-04
-5.2488597e-04
-2.5176077e-04
8.8687106e-05
4.3152417e-04
7.1400442e-04
8.8906252e-04
9.3236544e-04
8.4327622e-04
6.4165130e-04
3.6258408e-04
5.0598374e-05
-2.4629275e-04
-4.8293998e-04
-6.2374610e-04
-6.4867111e-04
-5.5690983e-04
-3.6697742e-04
-1.1326184e-04
1.5973626e-04
4.0413712e-04
5.7561656e-04
6.4025503e-04
5.8165919e-04
4.0334470e-04
1.2340497e-04
-2.2202863e-04
-5.8218978e-04
-8.9917088e-04
-1.1175141e-03
-1.1947306e-03
-1.1106275e-03
-8.7278472e-04
-5.1605495e-04
-9.5503162e-05
3.2577447e-04
6.9060972e-04
9.5931178e-04
1.1154818e-03
1.1647183e-03
1.1270882e-03
1.0263914e-03
8.8037390e-04
6.9546332e-04
4.6794159e-04
1.9132235e-04
-1.3281816e-04
-4.8668588e-04
-8.3410033e-04
-1.1278714e-03
-1.3148845e-03
-1.3502001e-03
-1.2146621e-03
-9.2539252e-04
-5.3426284e-04
-1.1485532e-04
2.5713357e-04
5.2315939e-04
6.5449704e-04
6.5472807e-04
5.5232076e-04
3.8712168e-04
1.9638890e-04
5.4736943e-06
-1.7421682e-04
-3.4062604e-04
-4.9310670e-04
-6.2539432e-04
-7.2281197e-04
-7.6463810e-04
-7.3030113e-04
-6.0825607e-04
-4.0297830e-04
-1.3409114e-04
1.6370524e-04
4.4788407e-04
6.7876808e-04
8.2872445e-04
8.8686669e-04
8.5823799e-04
7.5870321e-04
6.0850449e-04
4.2740637e-04
2.3268707e-04
3.9410278e-05
-1.3847439e-04
-2.8764235e-04
-3.9640819e-04
-4.5716236e-04
-4.6913225e-04
-4.3990078e-04
-3.8425580e-04
-3.1975887e-04
-2.6017608e-04
-2.0975544e-04
-1.6241182e-04
-1.1056779e-04
-4.7335959e-05
2.8510145e-05
1.0700787e-04
1.6768185e-04
1.8654696e-04
1.4641332e-04
4.5720848e-05
-9.8156053e-05
-2.5258191e-04
-3.7883614e-04
-4.4339432e-04
-4.2744510e-04
-3.3159703e-04
-1.7449602e-04
1.3838403e-05
2.0152705e-04
3.6390686e-04
4.8889540e-04
5.7677761e-04
6.3511294e-04
6.7161510e-04
6.8847420e-04
6.8194782e-04
6.4694177e-04
5.7768086e-04
4.6756978e-04
3.1098069e-04
1.0825821e-04
-1.2885423e-04
-3.7418146e-04
-5.8903278e-04
-7.3000305e-04
-7.6109900e-04
-6.6607342e-04
-4.5559241e-04
-1.6537367e-04
1.5436969e-04
4.5363094e-04
6.9552100e-04
8.6299442e-04
9.5776364e-04
9.9263122e-04
9.8092333e-04
9.2792140e-04
8.2816418e-04
6.6956739e-04
4.4279274e-04
1.5092031e-04
-1.9074847e-04
-5.4715985e-04
-8.6766365e-04
-1.0995858e-03
-1.2037046e-03
-1.1659127e-03
-1.0009658e-03
-7.4714760e-04
-4.5417606e-04
-1.6922464e-04
7.3904640e-05
2.5935434e-04
3.8708099e-04
4.6591242e-04
5.0511040e-04
5.0795062e-04
4.6992932e-04
3.8237979e-04
2.3988671e-04
4.8053917e-05
-1.7200531e-04
-3.8474848e-04
-5.4822285e-04
-6.2452069e-04
-5.9042959e-04
-4.4392010e-04
-2.0442194e-04
9.1616095e-05
3.9905535e-04
6.7380414e-04
8.8101426e-04
9.9960613e-04
1.0225160e-03
9.5371143e-04
8.0409824e-04
5.8834387e-04
3.2369688e-04
3.0705129e-05
-2.6540722e-04
-5.3455513e-04
-7.4426628e-04
-8.6512039e-04
-8.7805707e-04
-7.8112174e-04
-5.9264145e-04
-3.4891944e-04
-9.7490914e-05
1.0916269e-04
2.3253511e-04
2.5699446e-04
1.8918965e-04
5.2632723e-05
-1.2050738e-04
-2.9712123e-04
-4.4861718e-04
-5.5389879e-04
-6.0021235e-04
-5.8238962e-04
-5.0139547e-04
-3.6328825e-04
-1.7913457e-04
3.4687357e-05
2.5705498e-04
4.6436763e-04
6.3409122e-04
7.4816851e-04
7.9503735e-04
7.7006606e-04
6.7505080e-04
5.1749325e-04
3.1048124e-04
7.4597312e-05
-1.7002428e-04
-4.0246598e-04
-6.0062201e-04
-7.4297302e-04
-8.1101328e-04
-7.9220081e-04
-6.8322770e-04
-4.9289898e-04
-2.4299609e-04
3.4482984e-05
3.0362842e-04
5.3224431e-04
6.9771330e-04
7.8900919e-04
8.0479180e-04
7.4931666e-04
6.2860958e-04
4.4870706e-04
2.1631322e-04
-5.8787865e-05
-3.6054420e-04
-6.6416072e-04
-9.3699155e-04
-1.1432143e-03
-1.2533379e-03
-1.2490710e-03
-1.1277042e-03
-9.0492449e-04
-6.1295734e-04
-2.9400486e-04
9.0659014e-06
2.6174168e-04
4.4364903e-04
5.4937012e-04
5.8451510e-04
5.5931141e-04
4.8304992e-04
3.6204679e-04
2.0169498e-04
1.0998385e-05
-1.9325899e-04
-3.8545292e-04
-5.3453343e-04
-6.1130246e-04
-5.9723218e-04
-4.9154829e-04
-3.1293677e-04
-9.2196024e-05
1.3878130e-04
3.4899280e-04
5.1203200e-04
6.1004042e-04
6.3525621e-04
5.8958509e-04
4.8286112e-04
3.3054854e-04
1.5165278e-04
-3.2703678e-05
-2.0037315e-04
-3.2992047e-04
-4.0364540e-04
-4.1134136e-04
-3.5326687e-04
-2.4083706e-04
-9.4437503e-05
6.1025699e-05
2.0126578e-04
3.0683062e-04
3.6558841e-04
3.7345190e-04
3.3441236e-04
2.5902422e-04
1.5941180e-04
4.6050800e-05
-7.4305400e-05
-1.9794078e-04
-3.2189320e-04
-4.4109939e-04
-5.4610059e-04
-6.2235037e-04
-6.5174861e-04
-6.1626900e-04
-5.0285719e-04
-3.0844811e-04
-4.3777004e-05
2.6545288e-04
5.8117307e-04
8.5942447e-04
1.0592928e-03
1.1516517e-03
1.1249225e-03
9.8620288e-04
7.5792103e-04
4.7177027e-04
1.6196585e-04
-1.3834960e-04
-3.9974193e-04
-5.9911116e-04
-7.2133790e-04
-7.6071781e-04
-7.2191307e-04
-6.1978194e-04
-4.7722886e-04
-3.2078517e-04
-1.7489775e-04
-5.6954661e-05
2.5092799e-05
7.2008169e-05
9.0384911e-05
8.9151029e-05
7.6743044e-05
5.9571633e-05
4.1788832e-05
2.5883136e-05
1.3375731e-05
5.0880692e-06
9.8319212e-07
0.0000000e+00
