8
7
6
5
5
5
5
5
3
3
3
2
2
1
0
1
1
1
1
1
0
0
0
-2
-2
-2
-3
-3
-3
-3
-2
-2
-2
-3
-3
-4
-4
-5
-7
-8
-8
-8
-8
-5
-4
0
3
8
13
21
27
35
42
48
55
57
57
53
47
40
30
18
8
0
-8
-14
-18
-20
-19
-19
-18
-15
-12
0
17
47
95
158
238
323
396
436
425
363
260
143
40
-33
-72
-82
-75
-67
-59
-53
-49
-48
-47
-47
-45
-45
-45
-45
-44
-43
-42
-42
-39
-40
-40
-42
-42
-42
-40
-40
-40
-42
-42
-43
-44
-44
-43
-43
-43
-43
-42
-40
-42
-42
-40
-42
-40
-40
-42
-43
-44
-45
-47
-49
-52
-53
-55
-59
-60
-63
-67
-69
-72
-74
-75
-77
-78
-79
-82
-82
-83
-83
-82
-82
-82
-79
-77
-73
-68
-63
-57
-49
-42
-34
-27
-22
-15
-9
-4
0
5
10
15
18
23
26
28
32
35
36
38
40
41
42
42
42
41
40
38
38
36
36
36
33
32
28
26
23
21
20
18
18
17
17
16
15
12
11
10
8
7
7
7
7
6
6
5
3
2
2
2
2
3
3
2
1
0
0
0
1
1
1
1
-2
-3
-5
-5
-7
-7
-5
-5
-4
-2
2
7
13
22
31
42
52
61
65
66
63
57
48
38
28
17
6
-2
-10
-15
-19
-22
-23
-22
-20
-18
-13
-4
12
37
81
140
218
305
386
437
443
395
300
180
67
-17
-67
-85
-84
-77
-68
-63
-60
-59
-58
-58
-57
-55
-55
-54
-53
-52
-52
-52
-52
-52
-52
-50
-49
-49
-49
-49
-49
-48
-47
-47
-47
-47
-47
-48
-48
-48
-48
-47
-45
-45
-45
-44
-45
-47
-47
-48
-50
-52
-54
-57
-59
-62
-64
-68
-72
-75
-79
-83
-87
-89
-90
-92
-94
-95
-97
-97
-98
-97
-95
-93
-90
-87
-82
-78
-73
-68
-62
-55
-48
-40
-33
-27
-20
-14
-9
-4
0
5
10
13
18
21
25
28
31
33
36
38
37
38
40
40
41
41
40
38
38
37
35
35
33
32
31
28
27
26
25
23
23
22
21
20
17
16
16
15
13
12
11
10
10
8
8
7
7
7
7
7
7
7
7
7
6
6
6
6
5
3
3
3
2
0
-2
-2
-3
-3
-3
-2
-2
1
3
7
12
18
26
36
47
56
63
67
67
62
55
46
36
26
16
5
-4
-12
-18
-20
-22
-20
-19
-18
-15
-9
0
20
50
97
162
242
328
401
436
418
348
241
122
21
-48
-82
-88
-83
-74
-65
-62
-59
-58
-57
-57
-57
-55
-55
-55
-55
-54
-54
-54
-53
-53
-53
-53
-53
-53
-53
-53
-53
-52
-52
-52
-52
-50
-52
-52
-52
-52
-53
-52
-53
-52
-53
-52
-52
-53
-53
-53
-53
-52
-54
-54
-57
-58
-60
-63
-64
-68
-70
-73
-77
-79
-82
-84
-85
-88
-88
-89
-89
-88
-87
-85
-82
-78
-74
-69
-63
-57
-50
-43
-35
-29
-23
-15
-9
-4
1
6
10
13
17
20
21
22
25
27
28
30
31
31
31
30
30
30
28
28
28
28
27
27
26
25
23
22
21
20
17
17
15
13
13
12
10
8
7
7
6
6
6
6
5
5
5
3
3
2
2
1
0
0
-2
-2
-3
-3
-3
-2
0
2
7
13
21
31
41
51
60
66
67
66
61
53
43
33
21
10
0
-9
-14
-18
-19
-19
-17
-17
-14
-10
-5
7
31
67
121
193
280
361
421
436
397
310
195
81
-8
-60
-80
-80
-70
-62
-54
-50
-48
-48
-47
-45
-45
-44
-43
-43
-43
-42
-42
-42
-42
-42
-42
-40
-40
-39
-39
-38
-38
-38
-38
-38
-37
-37
-37
-35
-35
-35
-34
-33
-33
-32
-32
-30
-30
-32
-32
-32
-33
-34
-35
-37
-40
-43
-45
-47
-50
-53
-57
-60
-65
-69
-72
-74
-75
-77
-77
-75
-75
-73
-70
-67
-62
-57
-52
-45
-39
-33
-27
-22
-15
-9
-2
5
10
15
18
22
25
27
30
32
35
37
37
38
38
40
40
42
42
43
43
42
41
40
38
36
35
33
32
31
31
28
26
25
23
22
22
22
21
20
17
15
12
11
11
10
10
8
8
8
8
8
6
5
2
0
0
-2
0
0
1
2
5
10
16
22
31
41
50
58
66
68
67
65
57
48
37
27
15
3
-5
-13
-19
-19
-20
-20
-19
-17
-17
-12
-2
16
47
93
157
237
323
398
437
427
363
260
142
37
-35
-74
-83
-78
-67
-59
-55
-53
-50
-49
-48
-47
-44
-43
-44
-44
-45
-47
-47
-47
-45
-44
-43
-42
-42
-43
-43
-42
-42
-42
-40
-40
-42
-42
-43
-43
-44
-44
-43
-43
-42
-40
-39
-39
-39
-38
-38
-39
-40
-43
-47
-48
-52
-54
-57
-58
-60
-63
-65
-68
-69
-72
-74
-77
-79
-80
-83
-80
-79
-77
-73
-68
-64
-59
-53
-47
-40
-34
-28
-22
-15
-10
-5
-2
2
5
8
12
15
18
21
22
25
26
26
28
30
32
33
33
35
35
33
31
28
26
23
22
20
18
18
17
17
17
15
13
12
11
10
7
7
5
3
3
2
1
1
1
1
1
0
-2
-3
-4
-5
-7
-5
-5
-7
-8
-9
-10
-12
-12
-12
-10
-7
-3
2
8
16
26
35
46
55
60
61
57
51
42
32
21
11
-2
-12
-19
-25
-29
-29
-29
-28
-27
-25
-22
-13
5
32
75
135
212
298
380
431
436
387
291
173
62
-20
-69
-88
-85
-78
-70
-65
-62
-60
-59
-57
-55
-55
-55
-54
-53
-52
-52
-52
-49
-49
-49
-49
-48
-47
-47
-47
-47
-47
-48
-48
-48
-47
-47
-45
-45
-45
-45
-45
-44
-43
-44
-43
-42
-42
-42
-43
-43
-44
-45
-47
-49
-52
-54
-58
-60
-63
-67
-69
-73
-77
-79
-83
-85
-87
-88
-89
-89
-88
-85
-84
-80
-75
-70
-65
-59
-52
-45
-38
-30
-24
-17
-10
-5
0
3
7
11
16
20
22
26
28
32
33
36
37
37
37
38
37
37
37
37
36
35
33
30
28
26
23
22
20
18
17
16
15
15
15
13
12
12
11
10
10
8
7
6
3
2
2
1
0
-3
-4
-4
-5
-7
-8
-8
-8
-8
-7
-4
0
5
12
20
30
38
46
52
56
57
55
50
42
33
23
12
1
-8
-15
-22
-25
-27
-27
-25
-24
-23
-19
-12
2
26
62
118
192
277
358
415
423
377
286
168
57
-27
-74
-90
-87
-78
-68
-62
-58
-55
-54
-53
-52
-50
-50
-49
-50
-50
-50
-52
-52
-52
-52
-52
-50
-50
-50
-50
-49
-49
-50
-50
-49
-49
-48
-48
-49
-49
-49
-49
-49
-49
-48
-48
-48
-48
-49
-49
-49
-50
-52
-53
-54
-55
-59
-60
-63
-64
-65
-68
-70
-72
-75
-77
-79
-80
-82
-83
-83
-84
-83
-82
-79
-74
-69
-64
-58
-52
-44
-35
-29
-22
-15
-8
-3
1
6
10
12
16
20
21
22
26
28
30
32
35
35
36
36
36
36
36
35
33
32
30
28
26
23
22
22
20
17
17
16
15
13
13
12
12
11
10
8
8
7
7
7
7
6
6
6
6
6
5
5
5
5
5
3
3
2
1
1
0
0
-2
-2
-2
-2
-2
0
2
5
11
17
26
35
46
56
63
67
68
66
61
52
42
32
21
11
2
-5
-10
-13
-14
-14
-13
-12
-9
-8
0
13
37
77
133
207
293
371
423
428
381
288
175
66
-14
-62
-77
-75
-67
-59
-53
-49
-48
-45
-45
-44
-44
-44
-44
-44
-44
-44
-44
-44
-43
-42
-40
-42
-40
-40
-40
-40
-42
-42
-43
-44
-44
-45
-45
-45
-44
-44
-44
-44
-43
-43
-42
-40
-40
-40
-42
-45
-48
-49
-52
-53
-54
-55
-57
-58
-59
-62
-65
-67
-70
-73
-77
-79
-82
-83
-83
-83
-80
-78
-75
-73
-70
-68
-64
-59
-54
-47
-39
-32
-23
-18
-12
-9
-5
-2
3
8
16
21
26
30
31
33
36
37
40
38
40
41
41
41
41
40
37
35
33
31
28
27
25
23
22
21
20
18
17
17
16
16
17
15
13
12
11
8
7
6
6
6
7
7
8
7
7
6
6
5
5
5
5
5
5
3
3
3
2
2
2
1
0
0
1
5
10
18
27
37
48
58
66
72
73
71
65
57
47
37
25
13
2
-7
-13
-17
-19
-19
-18
-15
-15
-12
-3
13
37
76
133
206
292
376
437
458
423
338
225
108
16
-44
-69
-72
-65
-57
-49
-45
-43
-42
-42
-42
-42
-40
-42
-42
-42
-42
-40
-40
-39
-39
-39
-38
-38
-39
-40
-40
-42
-40
-40
-40
-40
-40
-40
-40
-40
-42
-43
-42
-40
-40
-39
-39
-40
-43
-45
-48
-49
-50
-52
-53
-55
-58
-60
-63
-67
-70
-73
-77
-78
-80
-84
-85
-89
-90
-93
-94
-95
-94
-92
-89
-85
-82
-77
-72
-65
-58
-52
-44
-37
-29
-25
-19
-14
-9
-3
2
7
12
17
21
23
27
30
32
35
37
38
40
40
41
40
38
38
36
33
32
30
28
26
26
23
22
20
20
20
18
18
17
17
16
15
15
13
13
12
12
11
10
11
11
11
10
10
10
10
8
7
7
6
5
2
2
2
1
1
1
1
2
5
7
11
17
25
33
43
53
63
70
72
71
66
60
51
40
28
17
6
-4
-13
-17
-20
-20
-20
-19
-15
-13
-9
2
22
53
103
171
253
341
412
445
425
352
242
123
22
-44
-75
-82
-74
-64
-55
-50
-48
-47
-47
-47
-45
-44
-44
-44
-43
-43
-43
-43
-42
-42
-42
-42
-42
-42
-42
-42
-42
-40
-42
-42
-43
-43
-44
-45
-45
-44
-45
-44
-44
-43
-44
-43
-44
-45
-44
-45
-48
-50
-52
-54
-55
-58
-60
-64
-67
-70
-73
-75
-78
-80
-82
-83
-84
-85
-87
-87
-88
-87
-87
-85
-84
-80
-75
-69
-64
-58
-50
-43
-37
-28
-22
-15
-9
-4
1
5
8
12
16
21
25
28
32
35
37
40
41
41
41
41
41
41
40
38
36
33
32
28
25
22
20
18
17
16
16
16
15
15
15
13
12
11
11
10
8
8
7
7
6
5
5
5
3
5
3
3
2
2
2
2
1
1
1
0
0
-2
-2
-3
-4
-4
-4
-4
-4
-3
1
5
11
20
28
40
50
58
63
65
63
60
52
43
33
22
12
2
-7
-12
-17
-18
-18
-17
-15
-13
-10
-5
6
28
62
115
185
268
351
413
436
403
320
208
93
2
-55
-79
-79
-72
-62
-55
-50
-49
-48
-48
-47
-47
-45
-45
-45
-45
-44
-44
-44
-44
-44
-43
-43
-43
-43
-43
-43
-42
-42
-43
-43
-44
-44
-45
-45
-45
-45
-44
-45
-44
-43
-43
-43
-43
-43
-44
-45
-47
-49
-50
-53
-54
-57
-59
-63
-65
-68
-72
-74
-77
-79
-82
-83
-84
-85
-87
-85
-84
-83
-82
-79
-78
-75
-72
-67
-62
-55
-49
-43
-37
-29
-23
-17
-12
-5
0
5
11
16
21
25
28
31
35
37
40
41
42
42
42
41
41
40
38
37
36
33
33
32
31
28
27
25
23
20
17
15
12
11
10
8
7
7
7
6
3
2
1
1
1
1
0
0
0
-2
-2
-3
-3
-3
-2
-2
-3
-3
-3
-2
0
0
0
-2
-3
-3
-3
-4
-4
-5
-7
-8
-9
-9
-9
-9
-7
-4
0
3
10
17
26
36
47
57
65
68
67
62
55
46
37
26
15
3
-7
-13
-17
-18
-18
-17
-15
-15
-14
-9
2
21
55
103
170
252
336
407
441
425
356
251
133
33
-34
-67
-75
-69
-62
-54
-52
-50
-50
-49
-48
-47
-44
-42
-42
-42
-43
-43
-42
-40
-39
-38
-38
-39
-39
-39
-39
-38
-38
-38
-37
-37
-37
-37
-38
-37
-35
-35
-34
-34
-37
-37
-37
-37
-37
-37
-38
-39
-42
-43
-44
-47
-49
-53
-57
-59
-63
-65
-69
-73
-75
-79
-80
-82
-83
-84
-85
-87
-87
-87
-85
-85
-83
-80
-78
-73
-67
-60
-54
-45
-39
-32
-23
-15
-8
-3
2
7
10
15
20
25
30
35
40
43
46
48
50
48
47
47
46
46
45
43
41
38
36
33
32
28
26
23
21
20
18
18
17
17
18
17
15
13
12
10
8
8
7
7
7
6
5
3
2
1
1
1
2
2
2
1
1
0
0
-2
0
0
-2
-2
-3
-4
-5
-5
-5
-5
-5
-4
-2
1
5
11
18
27
38
48
58
66
68
70
65
57
47
36
25
13
2
-8
-13
-17
-19
-20
-19
-17
-15
-14
-8
6
27
65
118
190
273
358
423
445
412
331
217
100
6
-53
-79
-82
-75
-67
-59
-55
-52
-50
-49
-48
-47
-45
-44
-44
-43
-43
-43
-43
-43
-42
-42
-42
-42
-42
-43
-43
-43
-43
-43
-44
-44
-43
-43
-43
-43
-40
-40
-39
-39
-38
-38
-39
-40
-43
-44
-47
-49
-52
-54
-57
-59
-62
-65
-68
-72
-75
-79
-83
-85
-88
-90
-92
-94
-95
-97
-97
-98
-98
-98
-95
-94
-90
-87
-82
-75
-69
-63
-54
-47
-38
-30
-23
-17
-9
-2
3
10
15
20
25
30
33
37
41
43
45
46
47
48
48
48
48
47
45
43
40
37
35
32
30
27
26
25
23
22
22
21
21
18
17
16
15
15
13
12
12
11
10
8
8
7
8
7
7
7
7
6
6
6
6
5
5
3
2
1
1
0
0
0
0
0
0
1
3
6
11
17
25
35
43
53
62
68
71
70
65
57
47
37
25
15
3
-5
-12
-15
-17
-17
-15
-14
-13
-9
-4
8
32
68
123
196
280
361
418
435
395
307
192
80
-7
-62
-82
-79
-70
-62
-54
-50
-48
-48
-47
-47
-47
-45
-45
-45
-45
-45
-44
-44
-44
-44
-44
-44
-44
-44
-45
-45
-45
-45
-45
-45
-45
-45
-45
-44
-45
-45
-45
-45
-44
-43
-43
-43
-44
-44
-45
-48
-50
-52
-54
-57
-59
-62
-64
-67
-69
-72
-74
-78
-82
-84
-85
-88
-89
-90
-90
-90
-90
-89
-87
-84
-80
-77
-72
-67
-60
-54
-50
-43
-37
-28
-22
-14
-9
-3
3
6
10
15
20
23
27
30
32
35
37
38
40
40
40
40
38
38
37
37
36
35
32
30
28
26
25
25
23
21
20
16
13
11
8
7
6
3
3
3
3
3
3
3
3
2
2
2
1
0
-2
-2
-2
-2
0
0
0
0
1
0
0
0
0
-2
-4
-4
-4
-3
-3
-3
-3
-4
-4
-5
-4
-3
-3
-2
-2
0
3
8
16
25
36
47
57
66
70
70
66
60
50
41
28
16
3
-4
-9
-13
-14
-14
-14
-13
-13
-10
-5
7
28
62
113
180
260
345
413
446
428
358
251
135
36
-32
-65
-74
-69
-63
-55
-52
-49
-48
-45
-43
-40
-39
-39
-38
-38
-38
-37
-35
-35
-37
-37
-37
-37
-37
-37
-37
-38
-38
-38
-38
-38
-37
-37
-38
-39
-39
-39
-39
-38
-38
-39
-40
-42
-43
-43
-43
-43
-44
-47
-50
-53
-55
-57
-58
-60
-64
-68
-69
-73
-77
-79
-80
-82
-83
-84
-85
-87
-87
-85
-85
-84
-80
-78
-74
-69
-64
-58
-52
-45
-38
-33
-28
-22
-14
-7
1
10
17
21
21
17
13
10
7
5
2
-4
-12
-20
-23
-17
0
17
36
51
61
65
65
65
60
56
51
47
45
40
35
27
21
15
11
10
11
11
12
10
7
3
0
-2
-2
1
2
3
3
1
-2
-3
-3
0
5
8
8
6
2
-2
-4
-4
-4
-4
-5
-7
-5
-3
0
2
2
2
3
7
15
26
38
51
61
70
76
80
77
72
63
51
37
22
7
-5
-19
-29
-37
-35
-30
-23
-19
-15
-13
-8
3
27
66
120
188
265
341
392
403
366
281
170
60
-24
-74
-88
-78
-59
-43
-32
-28
-28
-28
-29
-28
-28
-29
-32
-34
-35
-35
-35
-34
-33
-33
-32
-32
-32
-32
-32
-32
-30
-35
-45
-62
-80
-95
-100
-93
-77
-55
-34
-22
-17
-15
-15
-20
-24
-27
-32
-35
-38
-39
-39
-38
-38
-39
-43
-48
-54
-58
-63
-64
-67
-69
-72
-75
-80
-82
-85
-89
-95
-100
-104
-104
-97
-88
-74
-63
-57
-55
-59
-70
-84
-98
-100
-89
-60
-22
13
40
55
58
57
56
55
53
52
50
50
48
51
51
53
53
51
48
42
37
30
25
21
20
18
17
15
11
5
-2
-2
1
11
21
28
31
26
17
6
0
-7
-14
-22
-32
-40
-45
-40
-29
-12
7
22
30
30
27
23
21
22
26
28
28
26
22
21
22
27
37
50
63
75
81
82
80
73
65
53
42
28
13
2
-8
-19
-34
-47
-54
-53
-38
-18
1
20
35
51
80
126
192
270
346
401
411
366
277
162
55
-25
-69
-83
-75
-64
-53
-47
-44
-45
-48
-49
-49
-43
-38
-33
-30
-32
-37
-45
-50
-54
-53
-49
-44
-40
-40
-43
-48
-52
-53
-54
-58
-64
-70
-74
-70
-58
-40
-23
-13
-9
-13
-22
-27
-30
-33
-35
-38
-39
-42
-43
-45
-48
-52
-55
-63
-69
-74
-78
-78
-77
-74
-73
-73
-72
-72
-70
-70
-72
-73
-74
-75
-74
-70
-67
-62
-55
-50
-44
-39
-30
-22
-13
-3
6
12
17
22
26
28
31
32
33
33
35
35
35
33
32
30
28
27
25
25
23
22
20
17
17
20
22
23
22
20
16
13
12
11
10
7
3
1
1
2
5
8
10
10
8
5
-2
-9
-14
-18
-15
-9
-2
5
6
5
2
0
-3
-2
-2
0
2
6
10
16
25
32
41
51
60
66
67
66
60
52
41
28
15
2
-9
-17
-20
-22
-22
-20
-19
-18
-15
-13
-7
5
22
55
102
167
241
312
358
362
315
226
117
18
-49
-79
-82
-67
-53
-43
-39
-37
-37
-38
-39
-39
-40
-40
-39
-38
-35
-34
-33
-33
-33
-33
-33
-32
-33
-33
-33
-33
-33
-33
-33
-34
-35
-38
-40
-45
-48
-50
-49
-48
-42
-38
-33
-29
-28
-27
-27
-28
-29
-33
-35
-38
-39
-42
-47
-48
-50
-53
-57
-59
-64
-68
-70
-73
-74
-75
-75
-77
-77
-77
-75
-74
-72
-69
-65
-59
-54
-47
-39
-32
-23
-15
-9
-2
5
11
13
17
21
25
27
28
30
30
30
27
27
26
25
25
23
23
21
20
18
17
16
15
15
15
13
13
12
13
12
11
11
10
10
8
8
7
6
5
5
5
5
3
3
2
2
1
0
-2
-4
-4
-5
-7
-7
-7
-8
-8
-7
-4
-3
1
5
7
13
22
32
43
55
62
66
67
63
56
46
35
22
10
0
-8
-14
-18
-20
-20
-20
-20
-20
-19
-15
-4
15
43
87
148
221
298
363
395
381
320
223
116
25
-39
-73
-82
-77
-69
-60
-55
-50
-49
-48
-47
-47
-45
-44
-43
-42
-40
-42
-43
-43
-42
-40
-39
-38
-38
-38
-39
-40
-40
-40
-38
-37
-38
-38
-39
-40
-43
-43
-44
-44
-43
-42
-40
-39
-39
-40
-43
-45
-49
-52
-57
-59
-62
-64
-65
-69
-72
-73
-75
-77
-79
-83
-85
-89
-90
-90
-88
-85
-85
-83
-82
-80
-78
-73
-67
-60
-54
-45
-38
-30
-22
-14
-7
0
5
8
12
16
21
27
32
37
41
42
42
43
42
42
40
37
36
35
33
32
30
28
26
25
25
23
23
22
21
21
22
22
22
21
21
20
20
20
18
17
15
13
12
12
13
15
15
15
13
12
10
7
7
7
8
10
11
13
16
20
23
27
32
40
48
58
68
77
83
85
81
73
62
51
37
25
13
6
0
-4
-7
-7
-7
-7
-4
-3
1
11
30
60
107
171
251
336
411
452
443
382
278
160
53
-22
-62
-74
-72
-63
-55
-50
-48
-48
-47
-47
-47
-45
-44
-43
-43
-43
-43
-42
-42
-40
-40
-40
-40
-40
-40
-39
-40
-42
-42
-42
-43
-43
-44
-43
-43
-43
-42
-43
-44
-44
-44
-44
-45
-47
-48
-50
-54
-58
-60
-65
-68
-72
-75
-80
-84
-88
-92
-94
-98
-100
-103
-105
-108
-109
-110
-110
-109
-107
-107
-104
-103
-99
-94
-88
-83
-78
-73
-69
-64
-57
-49
-42
-32
-19
-7
7
20
30
37
41
45
46
47
48
50
51
52
53
53
53
52
50
47
45
42
40
37
36
33
32
31
32
32
32
31
30
27
26
25
26
30
31
32
31
28
25
21
18
17
16
15
15
16
18
21
26
32
41
50
58
67
73
75
75
70
62
52
45
33
21
10
1
-8
-12
-13
-10
-9
-8
-8
-8
-7
0
12
36
73
130
203
291
373
431
442
396
303
185
70
-15
-67
-84
-82
-73
-64
-59
-57
-55
-53
-50
-49
-49
-49
-50
-52
-53
-53
-52
-48
-47
-45
-45
-47
-48
-50
-52
-53
-55
-57
-57
-58
-57
-55
-55
-53
-53
-50
-49
-50
-52
-53
-54
-54
-52
-52
-52
-53
-54
-58
-59
-63
-67
-70
-75
-79
-82
-85
-89
-93
-97
-99
-102
-103
-104
-104
-104
-104
-104
-102
-100
-98
-94
-88
-80
-72
-63
-54
-45
-35
-27
-18
-9
-3
2
8
13
18
22
26
28
32
33
36
37
40
41
41
42
41
41
40
38
37
37
36
35
32
30
27
25
22
20
20
18
17
17
15
15
13
12
11
10
8
6
6
3
1
0
-3
-3
-3
-3
-3
-2
0
2
6
12
18
27
36
43
51
55
56
53
48
41
32
21
10
-2
-12
-19
-24
-28
-29
-29
-28
-27
-27
-23
-15
-3
20
55
108
180
262
346
407
426
391
307
195
83
-5
-58
-77
-74
-60
-47
-37
-30
-30
-35
-40
-45
-48
-48
-45
-43
-42
-40
-42
-44
-45
-47
-48
-48
-48
-48
-48
-47
-47
-47
-47
-47
-47
-45
-45
-45
-45
-45
-45
-47
-47
-48
-48
-48
-49
-49
-49
-50
-53
-55
-57
-60
-64
-68
-72
-75
-78
-80
-83
-84
-88
-89
-92
-93
-95
-97
-97
-97
-95
-94
-92
-90
-87
-82
-75
-69
-63
-55
-48
-40
-30
-23
-15
-8
-3
5
11
17
22
26
27
30
32
35
37
38
40
41
43
45
46
47
46
45
42
41
40
40
38
37
36
36
36
35
33
28
25
21
18
16
13
11
8
6
6
6
6
6
5
3
1
-2
-3
-3
0
3
10
15
21
30
38
46
55
62
66
66
63
58
50
40
28
16
6
-4
-10
-14
-17
-19
-19
-19
-19
-17
-14
-5
8
33
72
131
203
286
362
410
411
360
265
152
47
-27
-69
-80
-78
-69
-62
-57
-54
-52
-52
-50
-50
-50
-49
-49
-48
-48
-48
-48
-48
-47
-45
-45
-44
-43
-43
-43
-43
-44
-45
-47
-47
-45
-44
-43
-43
-43
-44
-45
-43
-43
-40
-40
-39
-40
-42
-40
-42
-43
-47
-52
-54
-58
-62
-64
-69
-70
-74
-77
-79
-82
-84
-85
-85
-85
-84
-82
-82
-80
-78
-77
-72
-67
-60
-55
-50
-44
-39
-32
-27
-20
-14
-8
-3
2
6
10
12
15
17
22
25
27
30
32
32
31
32
32
35
35
36
36
33
32
31
28
28
28
27
26
23
21
21
20
22
22
22
21
20
18
16
13
13
11
10
7
5
3
5
5
7
10
11
12
15
16
20
26
33
42
52
62
72
78
80
77
70
61
50
38
26
15
6
-2
-7
-9
-12
-13
-14
-14
-12
-4
7
23
50
90
145
215
297
373
425
432
388
298
186
77
-8
-57
-77
-77
-68
-59
-53
-48
-45
-44
-43
-43
-43
-43
-44
-43
-43
-40
-39
-35
-34
-33
-34
-35
-38
-40
-43
-44
-43
-42
-40
-40
-40
-42
-43
-45
-45
-44
-43
-40
-37
-35
-34
-35
-34
-37
-38
-40
-44
-47
-48
-52
-54
-59
-64
-69
-75
-79
-83
-87
-88
-88
-88
-89
-89
-90
-90
-89
-88
-87
-85
-83
-80
-77
-69
-60
-50
-39
-29
-24
-19
-15
-10
-2
6
13
20
23
23
21
21
21
23
28
33
38
42
43
43
42
38
35
32
31
31
31
32
31
31
28
26
25
23
21
21
22
21
22
23
26
28
30
31
28
23
17
10
7
6
6
6
6
5
3
3
2
2
2
5
10
16
23
32
41
51
60
68
75
78
77
71
63
53
43
32
20
8
0
-8
-13
-15
-15
-15
-15
-14
-13
-7
6
28
62
115
183
268
357
428
462
443
371
261
140
36
-35
-72
-79
-75
-65
-57
-52
-49
-48
-47
-47
-47
-45
-44
-43
-44
-44
-43
-43
-43
-44
-43
-43
-44
-44
-44
-43
-42
-42
-43
-44
-47
-48
-48
-48
-48
-47
-48
-47
-45
-45
-44
-44
-47
-48
-52
-54
-57
-59
-62
-64
-68
-72
-77
-80
-85
-90
-94
-99
-103
-105
-108
-108
-109
-109
-109
-109
-108
-107
-105
-103
-100
-97
-93
-88
-82
-73
-65
-55
-47
-39
-30
-24
-19
-13
-7
0
5
11
17
21
26
28
31
33
35
37
37
37
36
36
35
35
33
32
31
28
27
25
22
21
21
21
18
20
18
17
17
17
17
16
15
13
12
12
11
10
7
5
3
2
1
0
0
0
1
1
1
2
5
7
12
18
26
36
46
56
62
67
68
67
65
60
52
43
30
16
1
-8
-13
-13
-10
-7
-5
-3
1
10
26
48
81
125
183
253
333
405
446
441
386
288
171
66
-13
-57
-69
-65
-54
-44
-35
-27
-17
-7
2
5
0
-13
-27
-39
-47
-49
-48
-52
-60
-69
-78
-83
-82
-75
-69
-63
-59
-57
-55
-54
-54
-54
-54
-55
-55
-55
-54
-53
-50
-49
-50
-49
-45
-37
-23
-9
-2
-3
-14
-30
-49
-67
-84
-99
-114
-125
-132
-132
-127
-120
-115
-112
-112
-112
-110
-109
-107
-100
-92
-82
-73
-68
-65
-63
-57
-45
-32
-18
-10
-13
-20
-28
-32
-25
-14
2
16
23
28
27
23
17
16
23
36
48
58
60
55
45
33
22
12
5
-2
-4
-3
2
7
10
13
17
23
31
36
41
41
33
21
7
-4
-13
-14
-13
-9
-7
-3
1
5
10
12
13
13
11
6
-2
-9
-14
-13
-3
11
31
53
75
93
107
117
117
106
85
53
22
-4
-22
-30
-34
-33
-30
-28
-23
-17
-8
1
8
13
18
28
43
72
115
177
252
336
407
447
437
375
266
140
23
-58
-100
-107
-93
-77
-63
-58
-55
-49
-38
-24
-13
-12
-23
-42
-62
-77
-82
-78
-69
-59
-50
-45
-44
-44
-48
-50
-50
-48
-44
-39
-34
-28
-23
-18
-18
-23
-34
-50
-65
-77
-79
-78
-73
-67
-65
-63
-62
-59
-57
-53
-50
-49
-52
-58
-67
-75
-83
-88
-93
-95
-97
-97
-94
-89
-85
-88
-93
-103
-113
-119
-119
-114
-107
-95
-85
-74
-65
-58
-53
-47
-40
-30
-18
-3
8
21
27
32
32
30
27
22
18
17
17
22
30
36
43
48
52
55
56
55
51
42
31
21
15
12
13
17
22
25
27
25
16
1
-17
-35
-45
-40
-25
-7
10
17
18
16
15
15
17
21
23
25
22
20
17
13
13
16
23
35
48
67
85
97
102
101
93
85
76
66
52
35
16
-2
-13
-20
-22
-19
-14
-8
1
7
12
18
28
48
86
141
210
288
363
417
438
413
342
241
131
35
-29
-63
-68
-60
-45
-28
-15
-10
-13
-25
-45
-70
-95
-114
-120
-108
-82
-50
-25
-12
-10
-17
-25
-32
-35
-35
-35
-34
-34
-34
-39
-44
-49
-49
-43
-34
-27
-23
-25
-35
-44
-50
-53
-47
-39
-32
-24
-17
-13
-15
-23
-37
-54
-70
-84
-94
-98
-102
-107
-112
-115
-114
-112
-108
-105
-102
-95
-88
-79
-70
-62
-57
-54
-50
-47
-40
-37
-33
-30
-27
-19
-10
-2
5
7
6
3
5
8
16
30
45
58
66
63
53
40
25
16
12
10
7
3
0
-2
0
1
2
1
0
0
6
13
22
26
23
17
11
8
13
22
33
40
37
28
13
1
-5
-7
-2
7
15
18
17
12
6
7
15
26
36
43
48
48
50
51
52
48
41
31
22
16
16
17
21
25
26
20
8
-4
-14
-22
-23
-19
-10
2
20
40
68
111
171
248
332
400
426
395
310
187
66
-28
-83
-99
-92
-73
-58
-47
-42
-39
-37
-34
-32
-28
-23
-19
-12
-3
2
1
-12
-35
-62
-79
-85
-78
-65
-57
-53
-52
-49
-40
-30
-24
-28
-40
-55
-62
-49
-25
-4
3
-10
-38
-65
-85
-89
-82
-68
-52
-37
-20
-9
-8
-22
-43
-69
-90
-103
-105
-99
-85
-65
-45
-29
-20
-24
-44
-74
-107
-134
-149
-148
-135
-117
-95
-74
-48
-17
15
37
43
31
6
-17
-27
-19
-3
12
22
25
23
21
25
32
42
55
63
68
66
57
43
33
27
27
30
32
33
33
32
31
31
30
25
17
8
3
7
18
31
38
35
22
13
11
13
18
16
2
-15
-28
-25
-14
-2
1
-2
-7
-5
3
15
26
31
32
36
46
62
82
95
97
86
70
51
36
25
15
-2
-22
-43
-59
-64
-57
-44
-29
-18
-12
-7
3
23
63
120
191
267
336
378
378
333
245
135
26
-58
-105
-117
-104
-79
-55
-38
-28
-24
-24
-23
-24
-24
-24
-23
-24
-29
-38
-48
-58
-63
-68
-69
-70
-68
-59
-45
-29
-17
-14
-20
-27
-30
-29
-27
-27
-38
-53
-65
-72
-68
-54
-39
-32
-30
-34
-42
-50
-54
-58
-64
-72
-84
-92
-95
-89
-77
-67
-55
-48
-45
-50
-63
-83
-107
-124
-129
-122
-103
-80
-63
-54
-55
-65
-80
-90
-89
-79
-58
-34
-14
-5
-3
-2
6
18
32
40
35
22
6
-3
3
18
33
42
43
41
42
46
50
46
35
20
6
1
3
11
15
17
18
23
30
33
32
23
15
7
5
6
6
1
-9
-18
-20
-17
-8
2
5
1
-3
-5
0
10
23
36
42
42
35
22
10
1
0
7
21
40
57
72
80
77
65
41
16
-4
-18
-19
-13
-5
1
5
6
5
1
-4
-9
-10
2
30
80
151
237
320
385
410
383
308
200
83
-13
-79
-107
-103
-77
-49
-28
-25
-37
-57
-69
-68
-52
-23
0
6
-7
-38
-70
-92
-94
-82
-60
-44
-32
-22
-13
-7
-9
-24
-50
-75
-87
-79
-58
-33
-17
-17
-28
-42
-53
-62
-63
-60
-54
-43
-28
-13
0
1
-8
-27
-52
-77
-92
-99
-100
-100
-99
-99
-95
-89
-80
-77
-78
-83
-85
-87
-83
-75
-70
-64
-60
-58
-55
-50
-39
-25
-13
-10
-17
-29
-42
-45
-37
-18
3
26
45
60
66
63
56
45
37
33
32
30
23
13
8
13
27
41
48
45
36
31
32
38
45
47
43
37
30
27
26
23
20
15
8
6
6
7
7
8
10
12
18
26
31
32
30
28
30
32
37
41
40
33
25
17
17
27
43
67
87
97
93
82
68
57
46
32
18
7
-2
-8
-12
-18
-27
-33
-33
-24
-3
30
75
136
216
307
391
442
443
391
297
187
86
7
-38
-60
-67
-60
-48
-32
-20
-17
-22
-32
-44
-55
-63
-67
-64
-54
-43
-34
-30
-30
-35
-38
-38
-35
-32
-28
-24
-24
-25
-33
-45
-58
-69
-74
-75
-74
-68
-60
-48
-39
-37
-39
-44
-48
-49
-50
-57
-68
-85
-103
-109
-107
-98
-92
-92
-102
-114
-125
-130
-129
-123
-113
-104
-100
-103
-113
-125
-137
-144
-142
-134
-123
-112
-102
-92
-83
-74
-65
-54
-45
-35
-27
-20
-15
-9
-2
5
11
17
22
28
36
45
52
55
53
48
41
36
35
37
40
40
36
31
25
21
21
21
23
25
26
26
27
27
27
26
25
25
26
28
31
32
31
27
22
18
12
8
7
8
12
18
27
35
42
50
58
67
77
83
87
87
83
78
72
65
53
38
23
8
-3
-9
-12
-12
-10
-10
-9
-5
1
15
36
68
116
183
265
353
427
465
451
381
270
147
41
-35
-72
-80
-74
-62
-52
-44
-40
-39
-39
-39
-39
-40
-40
-40
-40
-40
-40
-39
-39
-40
-42
-42
-42
-42
-42
-42
-42
-42
-42
-42
-43
-43
-44
-44
-42
-42
-42
-40
-42
-42
-42
-43
-44
-47
-48
-49
-50
-54
-55
-58
-60
-63
-67
-68
-72
-75
-79
-82
-84
-88
-90
-93
-94
-94
-94
-93
-92
-90
-89
-87
-83
-78
-73
-67
-59
-52
-44
-37
-29
-20
-13
-5
0
5
11
16
21
26
30
33
37
40
42
43
45
45
43
43
42
40
38
37
35
33
32
30
28
26
26
23
22
20
20
18
17
16
16
16
15
15
12
10
8
8
6
6
7
8
11
15
20
26
33
42
52
62
71
76
78
77
75
67
57
46
33
21
10
0
-7
-12
-13
-13
-13
-13
-12
-9
-4
5
25
56
105
170
252
337
405
435
411
337
226
110
12
-50
-78
-80
-72
-59
-52
-47
-44
-42
-42
-40
-39
-39
-39
-39
-39
-39
-39
-40
-40
-40
-40
-40
-40
-40
-42
-42
-42
-43
-43
-43
-43
-43
-43
-43
-40
-40
-40
-40
-40
-42
-43
-43
-45
-47
-50
-52
-54
-57
-59
-62
-64
-68
-70
-72
-75
-78
-80
-84
-87
-89
-90
-92
-93
-94
-94
-94
-94
-92
-90
-87
-83
-78
-73
-68
-62
-54
-45
-38
-29
-22
-14
-9
-3
3
8
13
17
22
26
28
31
33
35
36
36
36
36
35
35
33
32
31
30
27
27
26
23
22
20
18
16
16
13
13
13
13
13
13
12
11
8
7
6
5
5
3
3
5
6
7
11
16
22
31
40
50
60
67
73
75
73
67
60
50
40
27
16
5
-4
-10
-15
-15
-17
-17
-15
-15
-13
-7
3
25
56
106
171
250
328
390
412
385
307
200
87
-4
-60
-83
-84
-72
-60
-52
-47
-44
-42
-40
-40
-39
-38
-38
-38
-39
-39
-39
-39
-40
-40
-40
-42
-42
-40
-39
-39
-39
-39
-42
-43
-44
-44
-44
-43
-43
-40
-40
-39
-40
-40
-42
-43
-45
-47
-49
-52
-53
-55
-59
-62
-65
-68
-70
-74
-77
-78
-80
-83
-85
-87
-88
-90
-90
-93
-93
-93
-92
-90
-87
-83
-79
-74
-69
-64
-58
-49
-42
-33
-25
-18
-12
-5
2
7
12
16
21
23
26
30
33
36
38
40
41
41
42
41
41
41
40
38
36
33
32
31
30
30
30
28
26
23
22
20
20
20
18
18
17
16
13
12
10
7
6
5
6
6
7
7
8
10
12
16
22
30
40
51
62
72
80
82
81
75
65
52
40
27
15
5
-3
-8
-12
-14
-15
-14
-14
-12
-10
-3
11
33
70
120
187
267
348
411
433
405
328
217
105
12
-45
-72
-75
-68
-59
-53
-49
-47
-44
-42
-40
-39
-39
-39
-39
-39
-39
-39
-39
-39
-39
-40
-40
-42
-40
-40
-39
-39
-39
-40
-42
-44
-44
-45
-44
-44
-43
-40
-39
-40
-40
-40
-39
-40
-42
-43
-45
-49
-53
-57
-60
-64
-68
-70
-73
-77
-79
-83
-87
-89
-90
-93
-94
-94
-95
-95
-95
-95
-94
-93
-89
-85
-82
-75
-70
-63
-57
-50
-43
-34
-25
-17
-8
-4
2
7
13
18
22
27
31
36
40
43
45
46
46
45
45
45
43
43
42
40
37
35
33
31
30
28
26
23
23
21
20
20
20
18
18
18
18
17
16
16
15
13
11
10
7
6
5
5
5
6
8
12
17
23
32
42
53
63
72
77
78
75
67
57
46
33
22
10
1
-8
-10
-14
-15
-17
-17
-15
-13
-10
-3
11
36
73
130
201
283
362
418
430
391
303
191
80
-7
-59
-79
-79
-72
-62
-54
-49
-47
-45
-43
-43
-43
-43
-43
-43
-44
-43
-43
-43
-43
-43
-43
-43
-44
-44
-44
-44
-43
-43
-43
-44
-44
-45
-47
-48
-48
-49
-48
-47
-47
-47
-47
-47
-48
-50
-53
-54
-58
-63
-65
-69
-72
-75
-79
-83
-85
-89
-92
-94
-97
-99
-100
-102
-102
-102
-102
-100
-99
-98
-97
-94
-90
-85
-80
-74
-65
-58
-49
-42
-32
-24
-17
-9
-2
3
7
15
18
23
28
32
36
40
41
43
45
45
46
45
45
43
42
41
38
37
35
32
31
28
28
26
25
23
23
21
20
20
18
18
17
16
16
13
12
10
10
10
7
7
7
7
7
7
10
13
18
25
32
42
52
62
71
76
78
76
71
62
52
41
30
17
7
-2
-8
-10
-13
-14
-13
-13
-10
-9
-4
6
26
58
107
173
253
336
400
425
398
322
213
100
7
-52
-77
-78
-69
-59
-50
-45
-43
-42
-42
-40
-40
-40
-40
-40
-40
-40
-40
-39
-39
-39
-40
-40
-40
-42
-42
-42
-42
-42
-43
-43
-44
-44
-45
-47
-45
-47
-47
-47
-47
-45
-47
-45
-44
-45
-47
-48
-50
-53
-55
-58
-62
-65
-69
-73
-77
-79
-83
-85
-88
-90
-93
-94
-95
-97
-97
-97
-95
-93
-90
-88
-84
-79
-74
-69
-62
-54
-47
-39
-30
-23
-13
-7
1
6
11
17
21
27
30
32
36
37
38
38
40
40
38
38
37
36
35
33
32
31
30
28
26
25
22
21
20
17
16
16
15
15
15
13
13
12
11
10
10
8
7
6
5
5
3
2
2
2
2
2
3
5
8
12
18
26
35
45
55
65
71
75
73
70
62
52
41
30
17
7
0
-8
-12
-14
-15
-15
-14
-13
-10
-5
2
21
51
96
157
235
315
382
415
397
330
228
115
17
-45
-75
-79
-72
-62
-53
-48
-45
-44
-43
-43
-42
-42
-43
-42
-43
-44
-44
-44
-44
-43
-43
-42
-42
-42
-42
-43
-43
-43
-44
-44
-45
-45
-45
-45
-45
-44
-44
-42
-42
-42
-40
-40
-40
-42
-44
-45
-48
-52
-54
-57
-59
-62
-65
-68
-72
-77
-79
-82
-84
-85
-88
-90
-93
-95
-98
-100
-99
-98
-95
-90
-85
-82
-77
-73
-65
-60
-52
-45
-37
-28
-20
-13
-5
2
8
15
18
23
27
30
32
35
36
36
37
38
37
37
38
37
36
33
31
28
27
26
26
26
26
25
22
20
17
16
15
13
13
11
11
11
11
12
13
15
15
12
12
10
7
6
2
1
0
0
1
2
5
8
11
15
20
26
35
46
57
67
75
77
76
72
65
55
42
30
17
7
-2
-8
-10
-13
-14
-14
-12
-10
-7
0
12
33
66
116
181
261
345
412
443
425
357
252
136
37
-29
-63
-70
-65
-55
-49
-44
-42
-40
-39
-38
-38
-37
-37
-37
-38
-38
-37
-37
-37
-37
-37
-38
-38
-38
-38
-38
-38
-39
-40
-42
-42
-42
-40
-38
-38
-37
-39
-39
-42
-42
-43
-42
-43
-43
-44
-47
-50
-53
-57
-60
-64
-69
-73
-77
-82
-83
-87
-90
-94
-98
-102
-103
-104
-104
-104
-104
-104
-103
-102
-100
-97
-93
-89
-82
-74
-65
-58
-49
-40
-33
-23
-14
-5
2
10
16
21
26
27
31
36
40
45
48
51
51
48
47
45
43
43
43
42
40
37
33
32
31
30
31
30
31
31
28
27
25
25
25
25
26
26
25
23
22
21
20
17
15
13
13
13
15
15
13
12
13
15
18
25
36
51
70
88
105
111
106
93
76
57
41
27
13
1
-9
-18
-23
-25
-25
-24
-20
-13
-2
13
33
55
80
110
152
211
285
357
410
417
372
277
161
51
-29
-73
-80
-72
-52
-30
-15
-7
-5
-9
-13
-12
-4
2
2
-14
-42
-74
-99
-113
-114
-107
-99
-92
-83
-73
-59
-45
-34
-30
-32
-38
-47
-50
-52
-45
-30
-10
15
35
42
32
3
-33
-69
-99
-122
-134
-140
-143
-140
-137
-132
-127
-124
-122
-123
-125
-129
-132
-134
-137
-138
-138
-139
-140
-140
-140
-139
-137
-133
-129
-125
-122
-117
-109
-100
-90
-80
-69
-60
-52
-44
-37
-28
-20
-14
-7
-2
5
11
16
21
25
26
28
30
30
30
31
30
30
30
28
27
27
25
23
22
21
17
15
13
11
11
11
10
8
8
7
7
6
5
3
2
3
3
3
3
3
5
10
15
21
28
37
45
53
60
62
63
60
56
47
38
28
18
8
-3
-12
-17
-20
-22
-19
-18
-15
-14
-10
-4
8
31
66
121
196
283
373
440
462
428
341
223
103
8
-50
-73
-73
-63
-53
-44
-38
-37
-34
-34
-33
-34
-33
-33
-34
-33
-34
-34
-33
-34
-34
-35
-35
-38
-38
-39
-39
-39
-38
-39
-39
-40
-42
-43
-44
-44
-43
-43
-40
-40
-39
-38
-38
-38
-39
-40
-43
-44
-47
-49
-53
-57
-60
-65
-69
-73
-75
-80
-83
-85
-89
-90
-92
-94
-94
-94
-93
-93
-90
-88
-87
-82
-77
-72
-64
-55
-45
-37
-28
-18
-9
0
7
13
21
26
31
35
38
41
43
46
47
50
51
52
51
51
51
51
51
50
48
46
45
42
38
36
33
31
30
28
27
26
25
25
23
22
21
20
20
18
18
17
16
13
13
11
10
10
7
6
6
5
5
6
6
8
12
18
23
32
42
51
61
67
70
71
67
60
51
40
28
17
6
-3
-9
-15
-18
-20
-20
-19
-18
-17
-14
-8
8
33
76
136
216
305
388
443
447
397
297
176
61
-22
-68
-82
-78
-67
-58
-52
-48
-45
-44
-44
-44
-43
-43
-43
-42
-40
-39
-39
-39
-39
-39
-39
-39
-39
-40
-40
-42
-42
-43
-43
-43
-44
-44
-45
-45
-47
-47
-45
-45
-45
-45
-45
-45
-45
-47
-48
-49
-50
-53
-55
-58
-60
-64
-67
-70
-75
-78
-82
-84
-88
-89
-92
-93
-93
-93
-93
-94
-92
-90
-88
-85
-82
-78
-72
-64
-58
-50
-42
-33
-25
-18
-9
-3
3
10
15
21
25
30
33
36
38
41
41
41
42
42
42
41
40
38
37
36
33
32
30
28
27
26
25
23
22
20
20
18
18
18
17
17
16
15
13
12
11
11
10
10
8
7
6
6
5
5
3
3
3
3
3
5
6
10
15
21
30
40
51
61
68
73
75
72
66
57
47
36
23
13
2
-7
-13
-17
-19
-19
-19
-18
-17
-13
-7
8
33
72
128
203
287
368
423
432
388
297
181
68
-15
-63
-80
-75
-67
-57
-50
-47
-44
-43
-42
-40
-40
-40
-39
-39
-40
-39
-39
-39
-39
-39
-40
-40
-40
-40
-40
-40
-40
-40
-40
-40
-40
-42
-42
-42
-43
-43
-42
-43
-43
-43
-44
-44
-45
-47
-48
-50
-53
-55
-59
-63
-65
-68
-73
-75
-79
-84
-87
-92
-95
-97
-98
-100
-102
-102
-102
-100
-99
-99
-98
-95
-92
-87
-82
-74
-67
-59
-50
-42
-33
-25
-18
-12
-5
1
7
13
20
26
31
36
40
41
42
42
42
43
42
41
40
38
36
35
31
30
28
27
25
25
23
21
20
16
15
13
13
13
15
15
16
17
17
17
15
15
12
11
10
10
8
8
7
6
6
5
5
3
2
2
2
3
6
11
16
23
32
42
53
63
72
78
78
76
68
60
50
37
26
13
2
-7
-12
-15
-17
-15
-13
-10
-9
-4
6
21
50
92
152
226
310
386
435
437
386
293
177
70
-10
-55
-72
-70
-62
-53
-47
-44
-42
-40
-40
-40
-40
-39
-38
-37
-34
-33
-33
-33
-34
-35
-37
-38
-38
-37
-35
-33
-33
-34
-34
-35
-35
-37
-38
-39
-39
-40
-39
-38
-39
-39
-40
-42
-42
-43
-44
-45
-48
-50
-54
-58
-60
-63
-67
-69
-74
-79
-82
-87
-88
-89
-90
-92
-92
-93
-93
-93
-93
-92
-90
-87
-84
-79
-75
-69
-62
-54
-47
-38
-28
-22
-15
-9
-2
5
11
17
23
28
32
35
37
38
41
41
40
41
40
38
38
37
36
35
33
32
31
30
28
26
23
22
20
20
18
18
18
18
18
17
17
16
16
16
16
16
15
15
15
12
12
11
10
8
7
6
5
5
5
6
7
10
13
20
27
37
47
57
66
72
75
73
68
61
52
40
27
15
5
-4
-12
-17
-17
-17
-17
-15
-15
-13
-8
2
22
53
103
172
257
347
422
458
442
370
257
135
28
-42
-75
-83
-75
-65
-55
-52
-49
-48
-47
-47
-47
-47
-47
-47
-47
-47
-45
-45
-45
-45
-45
-44
-44
-44
-45
-45
-47
-47
-47
-47
-47
-47
-47
-47
-47
-48
-48
-49
-50
-49
-49
-48
-48
-49
-52
-53
-57
-59
-63
-65
-69
-73
-78
-83
-85
-89
-92
-95
-98
-100
-102
-104
-107
-108
-108
-109
-108
-107
-104
-100
-98
-93
-89
-83
-77
-69
-60
-50
-43
-33
-25
-17
-9
-3
5
10
16
21
27
31
35
37
38
41
42
42
43
42
41
41
40
38
37
35
33
31
28
26
23
22
22
21
20
20
18
17
18
18
17
16
16
16
13
12
12
11
11
8
8
7
7
6
5
5
5
3
5
7
10
13
18
26
33
43
53
63
71
75
75
71
65
55
45
33
21
10
0
-5
-10
-13
-14
-14
-13
-12
-9
-7
2
20
46
90
150
225
308
383
425
418
360
257
141
37
-37
-74
-83
-77
-67
-55
-50
-48
-47
-45
-44
-44
-44
-44
-43
-42
-42
-42
-42
-40
-40
-40
-40
-40
-40
-40
-40
-40
-42
-42
-43
-43
-44
-44
-44
-44
-44
-44
-44
-44
-44
-44
-44
-44
-45
-48
-49
-52
-53
-55
-58
-60
-64
-68
-72
-75
-79
-83
-87
-89
-92
-94
-95
-97
-99
-99
-99
-98
-97
-94
-92
-89
-85
-80
-75
-69
-62
-54
-45
-38
-28
-20
-13
-5
1
6
12
18
22
27
32
36
40
41
43
43
45
45
43
42
41
41
38
37
36
35
33
31
30
26
25
22
21
21
20
20
18
18
17
17
16
15
13
12
12
11
10
10
10
10
10
8
8
7
7
6
6
3
3
2
1
0
1
2
6
12
20
30
41
52
62
68
72
71
67
60
51
41
31
20
10
0
-7
-12
-15
-17
-18
-18
-17
-15
-10
-3
13
38
80
135
207
286
360
407
408
360
266
155
50
-25
-67
-80
-74
-65
-55
-50
-49
-48
-48
-48
-48
-47
-45
-44
-43
-42
-40
-40
-39
-39
-39
-39
-40
-42
-44
-47
-48
-47
-45
-43
-39
-38
-38
-39
-40
-42
-43
-44
-44
-45
-44
-44
-44
-44
-44
-44
-45
-48
-52
-55
-59
-63
-67
-69
-72
-75
-79
-80
-83
-87
-90
-94
-97
-98
-99
-98
-98
-95
-94
-90
-87
-83
-79
-74
-70
-64
-57
-50
-40
-32
-23
-15
-8
-2
3
10
16
22
27
33
38
42
43
43
43
45
45
46
47
46
45
43
41
40
38
37
36
35
33
32
31
30
28
26
26
25
25
26
25
25
23
23
22
22
22
22
21
21
18
17
16
15
13
12
12
12
12
13
13
13
13
16
20
23
28
37
46
57
67
76
81
82
80
73
63
52
38
25
12
2
-7
-12
-15
-18
-18
-18
-15
-14
-12
-5
12
38
81
140
216
301
380
432
438
390
296
177
66
-18
-68
-85
-85
-77
-68
-62
-58
-55
-53
-52
-52
-50
-50
-49
-47
-47
-47
-45
-47
-47
-47
-47
-47
-47
-47
-47
-47
-48
-48
-47
-47
-48
-48
-49
-49
-49
-50
-49
-49
-49
-49
-49
-50
-52
-54
-57
-59
-62
-65
-69
-74
-78
-82
-87
-90
-95
-98
-100
-103
-105
-107
-108
-108
-108
-108
-109
-109
-108
-107
-103
-100
-95
-90
-84
-78
-69
-62
-52
-43
-34
-25
-17
-8
0
5
12
17
23
28
32
36
40
42
45
46
46
46
47
47
47
47
47
46
45
43
42
41
38
37
35
33
31
30
28
27
27
27
26
26
25
23
22
21
20
17
17
15
13
12
11
11
10
10
11
12
13
16
20
26
33
41
52
62
71
77
78
77
72
65
55
43
31
20
10
0
-7
-10
-13
-14
-14
-13
-12
-10
-5
5
23
55
102
171
255
345
421
460
442
372
258
136
30
-40
-75
-80
-73
-62
-54
-49
-48
-47
-45
-45
-44
-44
-44
-44
-44
-44
-43
-43
-43
-43
-43
-42
-42
-42
-43
-43
-44
-44
-44
-45
-45
-47
-45
-47
-47
-47
-47
-47
-47
-47
-48
-47
-48
-49
-52
-53
-55
-58
-60
-62
-64
-68
-70
-74
-78
-83
-87
-90
-93
-97
-99
-102
-104
-105
-105
-105
-104
-103
-100
-99
-95
-90
-84
-78
-69
-62
-52
-43
-33
-24
-15
-7
0
6
12
18
23
30
35
38
41
43
46
47
47
47
47
47
45
45
42
41
40
38
37
35
33
30
28
26
25
23
22
21
21
21
21
20
21
20
18
18
17
16
16
15
15
13
13
12
12
12
12
11
10
8
7
6
6
5
5
5
7
10
12
18
25
33
43
53
62
70
75
76
73
67
57
46
35
22
11
1
-5
-12
-15
-15
-17
-17
-15
-14
-12
-4
10
32
72
128
203
290
372
428
438
395
301
183
70
-15
-67
-84
-82
-72
-63
-57
-53
-52
-49
-49
-49
-48
-48
-48
-48
-47
-47
-48
-49
-48
-49
-49
-49
-48
-48
-47
-47
-48
-48
-49
-49
-49
-49
-50
-49
-50
-52
-52
-52
-52
-50
-50
-52
-52
-52
-53
-54
-55
-58
-59
-62
-65
-68
-70
-73
-75
-78
-82
-84
-88
-92
-94
-95
-97
-97
-95
-94
-93
-90
-88
-85
-83
-79
-74
-67
-62
-54
-45
-38
-29
-22
-14
-7
0
6
11
16
21
26
30
33
36
37
40
41
41
41
40
38
37
36
33
32
31
30
28
26
23
22
21
18
17
16
16
15
15
15
13
13
12
12
11
10
10
8
8
7
7
7
7
6
6
6
5
5
3
3
2
1
0
0
0
1
3
5
8
12
18
26
35
46
57
66
72
75
73
68
61
51
38
27
15
6
-2
-9
-13
-15
-17
-15
-14
-13
-9
-2
11
33
70
123
193
273
353
410
422
386
300
187
76
-9
-60
-80
-79
-69
-58
-50
-47
-45
-43
-43
-42
-40
-40
-40
-40
-40
-39
-39
-39
-39
-39
-39
-38
-38
-38
-38
-38
-38
-38
-39
-38
-39
-39
-40
-42
-42
-43
-43
-43
-43
-43
-44
-44
-47
-47
-49
-50
-53
-55
-58
-60
-63
-67
-69
-72
-75
-79
-83
-85
-89
-93
-94
-97
-98
-98
-98
-98
-97
-97
-95
-93
-90
-87
-82
-77
-69
-63
-55
-47
-38
-28
-19
-12
-3
5
11
16
22
26
30
33
37
40
42
43
43
43
42
42
41
38
37
36
35
33
31
30
27
26
23
22
20
18
17
17
16
16
15
15
13
12
13
12
12
11
11
10
10
8
8
8
8
8
7
7
7
6
6
5
5
5
5
5
5
5
7
10
15
21
28
38
48
60
68
75
77
75
68
60
48
37
26
15
6
-3
-9
-12
-14
-14
-13
-12
-10
-7
1
15
40
78
132
203
282
357
407
413
367
278
166
61
-18
-63
-79
-75
-67
-58
-52
-48
-47
-45
-44
-43
-43
-43
-44
-44
-44
-43
-43
-43
-43
-43
-40
-40
-40
-40
-42
-42
-42
-42
-43
-44
-45
-48
-48
-48
-48
-48
-47
-47
-45
-45
-45
-45
-47
-49
-52
-54
-55
-58
-60
-63
-64
-67
-70
-73
-77
-78
-80
-84
-87
-90
-94
-98
-99
-100
-100
-99
-99
-97
-95
-93
-89
-85
-82
-77
-70
-63
-55
-47
-39
-32
-23
-15
-8
0
5
11
16
21
26
30
35
38
42
42
43
41
41
40
37
35
35
32
31
30
28
27
26
23
22
20
17
15
13
12
13
12
13
13
13
16
16
16
15
12
11
10
10
11
12
15
15
15
12
11
7
6
3
3
3
6
7
7
8
10
12
13
18
23
32
40
51
61
70
75
76
73
67
58
50
37
26
13
5
-4
-9
-12
-13
-13
-13
-12
-9
-5
3
20
48
91
152
227
312
388
436
437
386
291
176
67
-14
-60
-78
-78
-70
-63
-58
-55
-54
-53
-53
-52
-52
-52
-52
-52
-50
-50
-50
-50
-49
-49
-49
-48
-48
-48
-48
-49
-49
-50
-50
-52
-52
-53
-53
-53
-53
-53
-53
-54
-53
-53
-52
-53
-54
-55
-58
-60
-64
-67
-69
-72
-74
-77
-80
-84
-85
-89
-93
-95
-98
-100
-102
-103
-103
-104
-104
-103
-102
-100
-99
-97
-93
-88
-83
-77
-69
-60
-52
-43
-33
-25
-18
-10
-3
3
8
15
20
25
28
32
35
38
38
40
40
40
40
40
38
37
37
36
35
35
32
31
30
28
27
26
25
23
21
21
21
20
20
20
21
20
20
20
17
17
16
16
15
13
12
11
10
10
8
8
7
7
7
7
7
10
13
18
26
35
45
55
62
70
73
73
70
63
55
43
32
21
10
0
-8
-14
-17
-18
-18
-17
-15
-13
-9
0
15
41
86
147
228
316
397
446
443
387
285
163
51
-27
-69
-82
-75
-67
-58
-52
-49
-47
-45
-44
-43
-43
-43
-43
-43
-43
-43
-43
-43
-43
-43
-43
-44
-44
-44
-44
-44
-44
-44
-45
-47
-47
-48
-47
-47
-48
-48
-48
-48
-47
-47
-48
-47
-48
-49
-50
-52
-54
-57
-59
-62
-64
-68
-70
-74
-77
-80
-83
-87
-90
-93
-95
-97
-98
-98
-98
-97
-97
-95
-93
-90
-87
-82
-75
-69
-59
-52
-42
-34
-25
-18
-10
-3
3
11
17
23
27
32
36
40
43
46
48
50
50
50
47
46
43
41
38
37
33
32
31
28
27
26
23
22
21
18
17
16
15
15
13
12
12
11
11
10
8
8
7
6
6
6
6
6
6
6
6
6
5
3
2
1
0
-2
-2
-2
-2
0
2
5
10
16
25
33
45
53
62
66
67
63
57
48
38
27
15
3
-4
-12
-17
-19
-20
-20
-19
-19
-17
-13
-4
11
38
80
141
217
302
377
422
418
361
261
143
40
-34
-74
-83
-78
-67
-58
-53
-52
-50
-49
-48
-47
-47
-45
-44
-44
-44
-45
-45
-45
-45
-44
-44
-44
-44
-43
-43
-43
-43
-43
-43
-43
-44
-44
-43
-44
-44
-44
-44
-44
-43
-44
-43
-44
-44
-45
-47
-48
-50
-53
-55
-58
-60
-63
-65
-68
-72
-74
-77
-80
-83
-87
-89
-90
-90
-92
-93
-92
-90
-89
-88
-84
-80
-75
-70
-64
-58
-50
-43
-34
-27
-19
-12
-5
2
7
13
18
23
28
33
37
40
42
43
45
45
45
43
42
41
40
37
36
33
32
28
27
25
23
21
20
17
16
16
15
15
15
15
13
12
12
11
11
11
11
11
12
12
12
11
11
10
10
10
8
8
7
7
6
5
3
3
2
2
2
5
6
8
12
18
23
33
43
53
63
70
73
73
71
65
56
46
33
21
11
0
-8
-13
-15
-17
-14
-14
-12
-10
-7
2
21
48
93
153
230
311
381
417
407
345
245
131
32
-34
-70
-78
-72
-62
-53
-48
-45
-44
-43
-43
-43
-43
-42
-42
-42
-42
-43
-43
-43
-42
-40
-40
-40
-42
-42
-42
-42
-43
-43
-44
-45
-45
-47
-47
-47
-45
-45
-45
-44
-44
-44
-44
-45
-45
-45
-47
-49
-52
-54
-58
-60
-64
-67
-70
-73
-77
-79
-82
-85
-89
-92
-94
-95
-97
-98
-98
-98
-95
-94
-92
-88
-85
-82
-75
-69
-63
-57
-49
-43
-34
-27
-18
-9
-2
5
10
16
20
23
28
32
35
37
40
40
41
42
43
43
43
41
38
36
33
32
31
28
26
23
22
20
18
18
17
16
16
17
16
17
17
17
17
16
15
13
12
11
8
7
6
6
6
5
6
7
7
6
6
3
3
2
1
1
2
5
8
13
20
27
36
46
56
65
70
72
71
67
60
50
38
26
13
2
-4
-12
-15
-17
-18
-18
-17
-14
-9
-3
12
37
75
131
202
286
367
425
440
402
317
203
92
3
-50
-73
-73
-65
-58
-52
-49
-47
-47
-45
-44
-44
-44
-43
-43
-42
-40
-40
-40
-42
-42
-42
-42
-40
-39
-39
-39
-39
-38
-38
-38
-39
-40
-42
-42
-43
-44
-43
-44
-43
-42
-42
-42
-43
-44
-47
-49
-52
-55
-58
-62
-65
-68
-72
-75
-79
-83
-85
-88
-88
-90
-93
-95
-98
-100
-102
-100
-100
-99
-97
-94
-90
-87
-82
-75
-69
-60
-53
-44
-37
-28
-22
-14
-8
-2
3
8
15
20
25
30
32
35
37
37
40
40
41
41
40
37
35
32
30
27
25
23
22
21
18
17
16
16
13
11
11
10
8
8
7
7
8
8
10
10
8
7
6
5
3
2
2
1
2
2
3
2
2
0
-3
-4
-3
-3
0
2
5
8
12
18
27
37
48
60
68
73
73
68
62
53
43
33
21
10
0
-8
-13
-17
-17
-17
-15
-14
-13
-8
0
18
48
95
157
235
321
401
450
452
398
302
183
73
-8
-55
-72
-70
-64
-58
-53
-49
-47
-45
-45
-45
-44
-43
-42
-40
-39
-39
-39
-39
-38
-37
-35
-34
-34
-34
-35
-37
-37
-37
-37
-37
-38
-39
-39
-40
-40
-39
-39
-38
-38
-39
-40
-40
-43
-44
-45
-47
-49
-52
-54
-57
-58
-60
-64
-67
-72
-77
-82
-85
-89
-92
-94
-94
-94
-95
-98
-99
-98
-97
-93
-89
-85
-82
-77
-70
-63
-57
-48
-40
-32
-24
-17
-10
-4
0
6
12
18
25
30
33
37
40
40
42
42
41
41
41
40
38
36
35
32
31
28
27
25
23
22
20
18
16
16
15
15
15
13
13
12
11
11
11
11
10
10
10
10
8
8
8
7
6
6
3
2
2
1
1
1
2
2
5
7
10
15
21
30
40
50
60
68
73
76
73
68
60
51
40
27
16
5
-4
-8
-13
-15
-15
-15
-15
-14
-10
-5
8
32
71
128
205
295
382
446
462
422
331
210
91
-3
-58
-80
-82
-72
-64
-58
-55
-54
-53
-52
-52
-50
-50
-50
-49
-48
-48
-48
-48
-48
-48
-49
-49
-49
-49
-49
-49
-49
-48
-48
-49
-49
-50
-50
-52
-52
-50
-52
-50
-49
-49
-50
-49
-50
-49
-50
-52
-55
-57
-59
-62
-65
-70
-74
-79
-84
-87
-89
-92
-94
-95
-99
-100
-102
-102
-103
-102
-102
-99
-98
-94
-90
-85
-80
-74
-67
-59
-50
-40
-33
-24
-15
-8
0
5
11
18
22
28
32
37
41
42
43
46
47
47
47
47
46
46
45
43
42
40
37
36
33
31
30
28
27
26
25
25
22
22
22
21
20
18
17
16
16
15
15
15
12
11
10
7
7
7
5
5
6
7
10
13
18
25
33
42
51
61
68
73
75
72
67
58
48
37
25
15
5
-4
-10
-15
-18
-19
-18
-17
-15
-12
-5
5
26
61
113
186
273
361
428
452
420
333
217
97
0
-59
-83
-84
-74
-65
-58
-54
-53
-52
-50
-50
-50
-49
-49
-49
-48
-48
-47
-47
-47
-47
-47
-47
-47
-45
-45
-45
-47
-47
-47
-47
-47
-47
-47
-47
-48
-48
-49
-48
-48
-48
-48
-47
-48
-49
-50
-52
-54
-55
-57
-59
-62
-64
-68
-72
-75
-79
-82
-85
-88
-90
-93
-97
-97
-98
-97
-97
-97
-94
-92
-89
-85
-80
-74
-68
-60
-53
-44
-37
-29
-20
-13
-3
1
8
15
20
26
31
36
40
43
46
47
48
48
47
47
45
42
41
38
37
35
33
31
30
27
26
25
23
22
21
18
17
17
17
15
15
13
13
12
12
11
11
10
10
8
8
8
8
8
8
8
7
7
6
6
3
2
1
1
1
1
1
2
5
8
15
22
31
41
51
61
68
72
72
68
61
51
40
28
16
6
-5
-12
-17
-20
-20
-20
-19
-17
-14
-9
0
17
48
95
160
240
327
402
440
426
358
252
132
28
-42
-75
-84
-77
-67
-58
-53
-49
-48
-48
-48
-48
-48
-48
-48
-45
-45
-45
-44
-44
-45
-45
-44
-44
-44
-44
-44
-44
-44
-44
-45
-44
-45
-45
-47
-47
-47
-47
-45
-44
-44
-45
-47
-47
-48
-49
-50
-52
-53
-55
-57
-59
-60
-63
-65
-68
-72
-74
-75
-77
-80
-80
-82
-84
-85
-84
-84
-83
-82
-80
-79
-75
-72
-67
-62
-55
-49
-42
-34
-25
-18
-9
-3
3
10
16
22
28
35
40
43
46
47
48
48
48
48
48
46
46
43
41
41
38
37
35
33
31
28
27
25
23
22
21
20
21
21
20
20
18
18
17
16
15
13
13
13
13
13
15
13
13
12
11
11
11
11
8
8
6
5
3
2
2
2
3
5
6
8
13
18
26
36
46
56
65
70
71
68
62
55
42
31
17
6
-4
-13
-19
-23
-24
-25
-24
-24
-22
-19
-12
2
26
65
120
190
271
348
400
407
363
273
161
53
-28
-73
-88
-84
-74
-64
-58
-54
-53
-50
-50
-50
-50
-49
-49
-48
-47
-47
-47
-45
-45
-45
-45
-45
-44
-44
-44
-43
-43
-42
-42
-42
-43
-44
-44
-45
-45
-45
-45
-45
-45
-45
-45
-47
-45
-47
-48
-49
-52
-53
-55
-58
-60
-63
-67
-69
-72
-74
-78
-80
-83
-85
-88
-89
-90
-93
-94
-93
-93
-92
-89
-87
-82
-77
-72
-65
-60
-52
-45
-38
-30
-23
-15
-9
-2
5
12
17
22
28
32
36
38
40
38
40
41
41
41
41
38
37
35
32
28
26
25
23
22
22
20
18
18
16
13
11
11
10
11
10
10
8
7
6
6
6
6
6
6
6
5
5
3
2
2
3
3
3
3
2
1
-2
-2
-3
-3
-2
-2
0
1
2
5
10
17
23
33
43
52
60
65
66
63
58
51
41
28
16
3
-5
-14
-18
-20
-22
-22
-22
-19
-15
-10
0
18
47
91
152
227
311
383
427
423
367
270
157
52
-24
-68
-82
-78
-69
-59
-53
-50
-49
-49
-49
-49
-48
-48
-49
-48
-47
-45
-44
-44
-43
-43
-43
-44
-44
-44
-43
-43
-42
-42
-43
-43
-44
-44
-43
-44
-45
-47
-47
-45
-44
-43
-43
-45
-48
-49
-50
-52
-52
-54
-57
-59
-62
-64
-67
-69
-72
-74
-75
-79
-82
-85
-88
-89
-89
-88
-87
-87
-87
-87
-85
-83
-79
-74
-69
-63
-58
-52
-43
-37
-28
-19
-12
-4
1
7
13
20
25
28
32
33
36
38
40
42
45
45
45
43
42
40
37
33
32
31
31
30
28
25
23
22
21
21
18
17
13
13
13
16
17
18
18
17
16
13
12
11
11
11
11
11
11
10
10
8
6
5
3
2
2
1
2
2
2
5
7
10
15
20
27
36
45
56
65
72
76
76
71
62
52
40
27
16
6
0
-8
-10
-13
-14
-13
-12
-9
-7
1
16
40
78
133
207
290
375
437
458
427
346
233
115
18
-43
-72
-77
-70
-62
-55
-53
-50
-50
-50
-48
-48
-49
-49
-49
-49
-48
-48
-48
-48
-47
-47
-45
-45
-45
-45
-47
-48
-48
-48
-49
-49
-49
-50
-50
-50
-52
-50
-50
-50
-50
-50
-52
-53
-55
-57
-59
-62
-64
-67
-69
-73
-77
-79
-84
-87
-90
-94
-97
-100
-102
-103
-104
-105
-107
-107
-107
-107
-105
-103
-100
-95
-90
-85
-79
-72
-64
-57
-47
-38
-29
-22
-13
-5
1
7
12
18
22
27
31
35
38
40
40
41
41
41
40
40
40
40
40
38
37
36
35
33
32
31
30
28
27
27
25
25
25
25
23
23
23
22
21
20
18
18
18
16
16
13
13
11
8
8
8
6
6
7
7
10
13
18
23
31
40
50
58
67
72
75
73
68
61
51
40
28
17
6
-3
-9
-14
-17
-18
-18
-17
-15
-13
-7
2
22
55
107
177
265
358
436
473
455
380
263
137
31
-40
-74
-82
-74
-65
-58
-54
-52
-50
-49
-48
-48
-47
-47
-47
-47
-45
-45
-45
-45
-45
-44
-44
-45
-45
-44
-44
-44
-44
-44
-44
-44
-45
-45
-47
-47
-48
-49
-49
-49
-48
-48
-49
-49
-50
-53
-54
-57
-58
-60
-63
-67
-69
-73
-77
-80
-85
-88
-93
-97
-100
-104
-105
-107
-108
-108
-108
-108
-105
-103
-99
-95
-90
-84
-78
-70
-63
-54
-45
-38
-29
-20
-13
-5
1
7
13
20
26
31
35
38
41
43
46
46
45
45
43
42
41
40
37
36
35
33
31
30
28
26
25
22
21
21
20
20
20
18
17
16
15
15
15
12
12
12
12
12
11
11
11
10
8
8
8
8
6
6
3
3
2
2
3
5
8
13
21
30
38
50
58
67
73
76
75
70
61
51
40
28
17
6
-3
-9
-14
-17
-17
-15
-14
-12
-9
-5
6
25
57
108
178
266
355
428
461
440
363
248
125
22
-44
-77
-82
-74
-64
-57
-53
-50
-49
-48
-48
-48
-48
-48
-48
-47
-47
-47
-45
-45
-45
-44
-44
-44
-44
-44
-45
-45
-45
-45
-44
-44
-45
-45
-47
-47
-47
-45
-45
-45
-47
-47
-47
-47
-48
-49
-52
-53
-54
-57
-58
-60
-63
-65
-69
-73
-75
-79
-83
-85
-89
-90
-92
-93
-93
-94
-93
-92
-90
-88
-85
-83
-78
-74
-68
-62
-54
-47
-38
-29
-22
-14
-7
0
6
12
18
23
28
33
37
41
43
46
48
50
51
50
48
48
46
45
43
42
41
37
36
33
32
30
27
26
25
22
22
21
21
21
20
18
17
16
15
12
11
11
10
8
8
7
6
6
5
5
3
2
1
0
-2
-2
-2
-2
-2
-2
0
1
3
7
13
21
30
40
51
60
66
70
68
63
55
45
33
22
10
-2
-9
-15
-18
-20
-20
-20
-19
-18
-15
-8
3
25
61
113
183
265
347
407
425
391
307
195
83
-7
-62
-83
-83
-73
-63
-57
-53
-50
-49
-48
-47
-47
-44
-44
-44
-44
-44
-43
-43
-43
-44
-44
-44
-43
-43
-43
-43
-43
-43
-43
-44
-45
-45
-45
-45
-47
-47
-47
-48
-48
-48
-48
-48
-49
-50
-50
-52
-54
-55
-58
-60
-62
-64
-67
-70
-73
-77
-79
-82
-84
-87
-89
-92
-93
-95
-95
-94
-94
-92
-89
-87
-83
-79
-74
-68
-60
-54
-45
-38
-29
-22
-14
-7
1
8
13
18
23
28
32
36
38
40
41
42
42
42
41
40
38
37
35
33
31
30
28
27
26
25
23
22
21
20
18
18
16
16
15
15
13
12
12
12
10
10
8
8
8
8
8
8
7
7
7
7
6
5
3
3
2
2
1
2
2
3
5
8
13
20
28
37
48
58
67
72
73
71
65
57
46
35
22
10
1
-7
-13
-18
-19
-19
-18
-17
-14
-9
1
17
45
87
147
222
302
373
412
405
346
247
133
33
-37
-74
-82
-75
-64
-55
-49
-47
-44
-43
-43
-42
-42
-40
-39
-40
-40
-42
-43
-42
-42
-40
-40
-40
-39
-39
-38
-38
-38
-39
-40
-40
-42
-42
-43
-43
-42
-43
-43
-44
-44
-44
-45
-45
-47
-48
-49
-50
-52
-53
-55
-58
-62
-64
-68
-70
-74
-78
-83
-84
-88
-90
-92
-92
-93
-93
-94
-94
-93
-90
-88
-84
-79
-74
-69
-63
-57
-49
-43
-34
-25
-18
-10
-4
2
8
12
17
21
26
30
33
37
40
41
41
40
38
36
36
33
33
32
31
30
27
23
21
20
17
16
15
13
13
12
12
10
10
8
8
8
8
8
8
8
7
7
7
7
7
6
6
5
3
2
3
2
2
1
1
1
1
1
2
3
7
12
18
27
37
48
58
66
70
70
65
57
47
36
23
12
2
-8
-14
-19
-20
-20
-20
-18
-17
-14
-7
6
27
62
112
178
256
335
395
417
391
317
212
102
12
-48
-74
-79
-72
-63
-55
-52
-49
-48
-47
-45
-45
-45
-45
-45
-45
-45
-44
-43
-42
-40
-40
-40
-40
-40
-40
-42
-43
-43
-43
-43
-42
-42
-43
-43
-43
-43
-43
-43
-43
-44
-44
-45
-45
-45
-47
-49
-50
-52
-54
-55
-59
-62
-67
-70
-74
-78
-82
-84
-87
-89
-92
-93
-94
-94
-95
-95
-95
-94
-92
-89
-85
-80
-75
-69
-63
-54
-48
-42
-33
-25
-18
-10
-3
5
10
15
21
25
30
32
36
37
38
38
40
40
41
40
38
37
36
35
32
31
30
28
26
23
21
18
17
16
16
15
15
13
13
13
13
13
12
11
10
8
7
7
7
7
7
7
7
6
5
5
3
3
2
2
3
3
3
6
8
12
17
25
32
42
53
65
72
77
78
76
70
60
50
37
25
12
2
-7
-10
-13
-14
-13
-12
-10
-8
-5
3
20
47
90
150
227
311
383
427
423
366
267
151
46
-29
-69
-80
-75
-65
-54
-48
-45
-44
-43
-42
-40
-40
-40
-39
-39
-39
-40
-40
-40
-40
-40
-40
-40
-39
-40
-40
-40
-40
-40
-42
-42
-42
-42
-43
-43
-44
-44
-45
-44
-44
-44
-44
-45
-45
-47
-48
-49
-52
-54
-57
-62
-64
-68
-72
-74
-78
-80
-84
-87
-89
-90
-92
-93
-94
-94
-94
-93
-92
-89
-88
-85
-82
-77
-72
-64
-57
-49
-40
-32
-24
-17
-8
-2
2
8
13
20
25
30
33
37
41
42
42
43
43
42
42
42
41
40
40
38
37
36
33
31
28
26
23
22
21
20
18
18
17
16
16
17
16
15
13
13
12
12
11
11
11
10
10
10
7
6
6
6
3
3
2
3
3
7
10
15
21
27
37
47
58
67
73
76
73
68
61
51
38
27
16
5
-5
-10
-14
-17
-17
-15
-14
-13
-10
-5
8
30
66
117
187
267
347
405
421
386
301
191
80
-9
-60
-80
-79
-69
-59
-52
-48
-47
-45
-45
-44
-44
-44
-44
-44
-43
-43
-43
-43
-42
-42
-42
-40
-39
-39
-39
-39
-40
-40
-42
-42
-42
-43
-43
-43
-43
-43
-43
-43
-44
-45
-45
-47
-47
-48
-49
-50
-53
-54
-55
-58
-60
-63
-67
-69
-73
-77
-80
-83
-87
-89
-92
-93
-94
-95
-95
-95
-94
-92
-89
-87
-82
-77
-72
-65
-59
-52
-43
-35
-27
-19
-12
-5
1
7
13
20
25
30
33
37
40
41
42
43
42
41
41
40
38
37
35
35
33
32
31
28
27
25
22
21
20
18
17
16
16
16
15
15
15
13
12
12
11
10
10
10
8
8
8
8
8
7
6
6
5
5
3
3
2
2
3
3
5
7
11
16
22
30
40
51
60
67
72
72
70
63
56
46
33
21
10
0
-8
-12
-15
-17
-17
-15
-14
-12
-7
2
17
46
87
147
220
301
373
413
407
350
251
138
36
-34
-70
-78
-72
-62
-53
-47
-45
-44
-43
-42
-40
-40
-40
-39
-40
-40
-39
-39
-40
-40
-40
-39
-38
-38
-37
-37
-38
-38
-39
-39
-40
-40
-42
-42
-43
-44
-44
-44
-44
-45
-45
-44
-45
-44
-45
-47
-48
-50
-53
-55
-58
-60
-63
-67
-69
-72
-74
-77
-79
-82
-84
-88
-89
-92
-92
-92
-92
-89
-88
-84
-82
-78
-74
-69
-64
-58
-50
-43
-34
-27
-17
-10
-3
3
8
15
20
23
28
31
33
36
36
37
38
37
38
37
38
37
37
36
33
31
30
28
26
26
25
23
22
21
20
17
16
15
13
15
13
12
10
11
10
10
10
10
8
8
7
6
6
5
5
2
2
1
1
2
2
2
1
1
1
1
3
7
13
20
28
37
48
57
65
70
70
67
61
52
42
30
17
5
-4
-12
-15
-18
-19
-19
-18
-17
-14
-9
1
21
51
97
161
237
320
391
428
420
357
255
140
37
-33
-70
-82
-77
-68
-60
-54
-52
-50
-49
-48
-47
-47
-47
-45
-45
-45
-44
-43
-43
-43
-44
-44
-44
-44
-45
-44
-45
-45
-47
-47
-47
-45
-43
-42
-42
-42
-43
-43
-44
-45
-45
-45
-47
-47
-48
-50
-52
-53
-55
-58
-60
-63
-65
-69
-73
-78
-82
-85
-88
-90
-93
-95
-95
-97
-97
-95
-95
-93
-92
-88
-84
-82
-78
-73
-65
-59
-52
-43
-35
-28
-20
-14
-8
-3
3
8
13
18
25
28
33
36
37
38
40
40
40
40
40
38
36
35
32
30
27
25
23
21
20
18
16
15
12
12
11
12
13
13
16
15
13
11
10
7
7
7
7
10
10
10
8
7
7
7
6
6
3
2
2
2
2
3
3
3
6
7
12
18
27
38
51
62
70
73
73
70
63
55
45
33
21
8
-2
-9
-14
-17
-17
-14
-13
-10
-8
-3
7
26
58
105
168
246
332
407
450
443
386
285
167
62
-15
-58
-72
-69
-62
-54
-49
-47
-44
-44
-43
-43
-42
-42
-42
-42
-42
-39
-39
-39
-39
-40
-39
-40
-40
-42
-42
-43
-44
-44
-45
-47
-48
-48
-48
-49
-50
-50
-52
-52
-52
-53
-54
-54
-55
-57
-59
-62
-64
-68
-72
-75
-79
-84
-87
-92
-94
-98
-102
-104
-108
-109
-110
-113
-113
-113
-112
-109
-107
-104
-102
-99
-95
-90
-83
-77
-69
-59
-52
-42
-33
-23
-15
-8
0
6
11
17
21
26
30
33
37
38
41
41
41
40
38
38
37
37
36
36
35
33
31
30
28
26
23
22
22
20
17
17
16
15
15
13
15
13
13
13
12
12
12
11
10
10
10
8
8
7
6
6
5
5
5
5
5
7
8
12
18
26
35
43
53
62
68
72
71
66
58
50
38
28
17
6
-2
-9
-15
-18
-19
-19
-18
-17
-14
-9
1
17
48
97
163
247
340
418
461
450
381
271
147
37
-38
-75
-83
-75
-65
-58
-53
-50
-49
-49
-48
-48
-48
-48
-48
-47
-47
-45
-45
-45
-47
-47
-47
-45
-45
-44
-44
-44
-44
-45
-45
-45
-45
-45
-45
-47
-47
-48
-47
-47
-47
-45
-47
-45
-47
-48
-50
-52
-54
-57
-60
-63
-67
-69
-73
-77
-79
-83
-87
-89
-93
-95
-98
-100
-103
-104
-103
-103
-100
-98
-95
-92
-87
-82
-75
-69
-62
-54
-44
-35
-25
-17
-9
-3
3
7
12
17
22
28
33
37
41
43
43
45
45
43
45
43
42
40
40
36
35
33
30
28
27
26
23
22
21
20
18
18
17
17
16
15
13
12
12
11
11
10
10
8
8
7
8
8
8
8
8
7
7
5
3
3
2
2
1
2
2
2
3
6
10
16
23
32
42
52
61
68
73
75
71
65
56
45
33
21
10
0
-8
-13
-17
-19
-19
-18
-17
-14
-10
-4
10
36
76
136
212
301
383
440
446
398
302
182
67
-17
-65
-80
-78
-69
-60
-53
-52
-49
-49
-48
-48
-45
-45
-45
-45
-44
-44
-44
-43
-43
-43
-42
-42
-43
-43
-43
-44
-43
-43
-43
-43
-43
-43
-43
-44
-44
-45
-45
-45
-47
-45
-47
-47
-48
-49
-50
-52
-53
-54
-57
-59
-62
-64
-68
-70
-73
-75
-77
-79
-83
-85
-87
-88
-90
-92
-92
-90
-90
-89
-87
-84
-80
-77
-72
-67
-60
-52
-44
-35
-28
-20
-13
-7
-2
5
11
17
22
27
30
33
36
38
40
41
42
42
43
43
42
41
38
36
35
32
30
27
26
25
22
20
20
17
16
16
15
15
13
15
13
13
12
12
11
11
11
11
11
10
10
10
8
8
8
8
8
8
8
7
7
5
6
5
5
5
5
3
2
3
5
7
11
15
21
30
38
47
57
67
73
77
76
73
65
55
43
31
18
10
1
-5
-9
-10
-12
-12
-12
-10
-8
-3
8
27
61
111
178
260
342
407
433
407
331
221
106
12
-48
-75
-77
-69
-59
-52
-48
-47
-47
-47
-47
-45
-45
-45
-45
-44
-44
-44
-44
-43
-43
-43
-43
-43
-43
-43
-43
-44
-44
-44
-44
-44
-45
-45
-47
-45
-47
-48
-47
-47
-47
-47
-47
-48
-49
-50
-53
-55
-58
-62
-64
-67
-69
-72
-74
-77
-79
-82
-84
-87
-89
-92
-93
-93
-94
-94
-93
-94
-93
-92
-89
-87
-83
-80
-75
-69
-63
-54
-45
-38
-29
-20
-14
-7
0
5
10
16
21
23
27
30
32
35
36
37
37
37
37
36
36
36
35
35
33
32
31
28
26
23
21
18
16
15
13
15
13
13
12
11
10
10
10
8
7
7
6
6
6
6
6
6
6
6
7
7
7
7
7
6
6
6
5
5
5
5
5
5
5
3
5
3
2
2
2
2
3
5
7
12
18
26
36
45
56
65
71
73
72
67
61
51
40
27
15
5
-3
-9
-12
-14
-14
-13
-12
-10
-8
1
15
41
80
137
207
287
360
407
413
367
277
167
62
-15
-62
-75
-72
-63
-54
-48
-44
-42
-40
-40
-40
-40
-40
-39
-39
-39
-38
-37
-37
-38
-38
-39
-37
-37
-35
-35
-35
-37
-38
-38
-38
-39
-39
-39
-40
-40
-42
-42
-43
-43
-44
-43
-43
-43
-44
-45
-48
-50
-52
-54
-57
-58
-60
-63
-67
-69
-72
-74
-77
-79
-82
-83
-84
-84
-85
-87
-85
-85
-84
-84
-82
-80
-78
-74
-70
-65
-59
-53
-44
-37
-29
-23
-15
-9
-3
2
7
13
18
22
26
30
32
36
38
40
41
40
38
37
37
36
36
35
33
30
28
26
25
23
21
18
16
15
12
10
7
8
8
8
10
8
8
6
3
3
2
2
2
2
1
0
-2
-2
0
0
0
0
0
1
1
1
2
2
2
0
-2
-2
-3
-3
-3
-3
-2
-3
-2
-2
0
1
2
6
10
17
25
36
48
58
67
71
72
67
62
52
40
26
13
2
-5
-10
-13
-13
-14
-13
-13
-13
-12
-5
7
28
63
112
178
257
342
412
447
433
367
263
148
46
-24
-63
-73
-70
-62
-54
-49
-47
-45
-45
-45
-45
-44
-43
-42
-39
-38
-37
-37
-37
-37
-37
-38
-39
-39
-39
-39
-39
-38
-38
-38
-39
-39
-39
-40
-39
-39
-39
-40
-40
-40
-42
-42
-43
-45
-47
-50
-52
-54
-57
-58
-59
-62
-64
-67
-70
-74
-78
-80
-84
-85
-88
-89
-90
-90
-92
-93
-94
-94
-95
-94
-93
-89
-85
-79
-73
-67
-58
-50
-43
-35
-28
-19
-13
-7
-2
3
8
13
18
25
28
33
36
38
41
42
43
43
43
42
41
40
37
37
35
32
31
27
25
23
22
20
18
17
17
18
18
18
17
16
13
11
10
8
8
8
8
8
7
7
6
6
7
8
8
8
7
6
5
3
2
2
0
0
-2
-2
-2
-2
-2
-2
-2
-2
0
1
5
8
15
22
32
42
53
63
68
71
68
62
52
43
31
20
8
0
-8
-13
-17
-19
-18
-17
-15
-13
-9
0
18
47
95
158
238
328
408
456
453
396
292
171
60
-22
-67
-80
-78
-69
-62
-57
-54
-53
-52
-49
-49
-48
-48
-48
-45
-45
-45
-45
-44
-44
-44
-44
-43
-43
-42
-42
-42
-43
-43
-44
-44
-45
-47
-48
-49
-49
-49
-49
-49
-48
-48
-48
-48
-49
-50
-53
-55
-58
-60
-63
-65
-68
-72
-75
-79
-84
-88
-93
-97
-100
-104
-107
-108
-110
-110
-110
-110
-109
-108
-107
-103
-99
-94
-88
-82
-75
-67
-58
-49
-40
-30
-22
-14
-7
1
6
12
18
23
28
33
38
40
43
45
46
46
46
47
46
46
43
43
42
41
38
36
35
33
32
30
28
27
27
25
25
23
23
22
22
21
20
18
17
17
16
15
13
13
12
11
11
11
10
10
8
7
6
6
5
3
3
3
5
7
12
17
25
33
43
53
62
70
72
72
70
63
55
45
32
21
10
-2
-8
-13
-15
-18
-18
-17
-15
-14
-9
0
17
47
92
157
240
330
410
455
450
386
281
157
47
-29
-69
-80
-74
-67
-59
-55
-53
-52
-50
-49
-48
-47
-45
-44
-44
-44
-44
-44
-44
-44
-43
-43
-43
-42
-42
-42
-43
-43
-44
-43
-44
-44
-44
-44
-44
-45
-44
-45
-44
-43
-42
-42
-42
-43
-44
-45
-47
-48
-50
-53
-55
-58
-62
-65
-68
-72
-75
-78
-82
-84
-87
-89
-90
-92
-93
-92
-92
-90
-88
-85
-82
-77
-72
-65
-58
-52
-44
-35
-28
-20
-12
-7
0
5
8
13
18
22
27
30
33
36
38
41
42
43
42
42
42
41
38
37
36
35
33
31
28
27
25
22
21
21
20
18
18
17
15
13
12
11
8
6
5
2
2
2
1
1
1
1
1
2
1
1
1
0
0
0
-2
-2
-2
-2
-3
-3
-3
-2
-2
-3
-3
-3
-4
-4
-4
-4
-5
-5
-5
-7
-8
-8
-7
-7
-7
-7
-7
-5
-3
0
5
10
16
23
31
38
47
52
55
55
51
46
37
28
20
8
0
-9
-15
-19
-22
-22
-20
-19
-17
-12
-4
11
36
78
137
213
297
375
422
422
370
275
161
53
-24
-68
-80
-77
-68
-59
-53
-50
-49
-48
-47
-45
-43
-43
-42
-42
-43
-42
-43
-43
-43
-43
-42
-42
-40
-40
-40
-40
-40
-40
-42
-42
-43
-42
-43
-44
-44
-45
-44
-44
-44
-44
-44
-44
-45
-45
-47
-48
-52
-53
-54
-57
-59
-62
-64
-67
-68
-70
-73
-74
-77
-79
-80
-80
-82
-82
-82
-82
-82
-80
-79
-78
-75
-73
-70
-65
-60
-54
-47
-39
-32
-23
-15
-9
-3
2
8
12
16
20
23
27
31
33
36
37
37
38
38
38
38
37
36
35
33
33
32
31
28
26
23
21
18
17
13
12
12
10
10
8
7
7
6
6
5
3
3
3
3
3
3
3
3
3
3
3
3
3
3
3
3
3
2
2
2
2
2
2
2
1
0
0
-2
-2
-2
-2
-2
0
0
1
5
8
15
23
33
43
53
62
67
68
66
61
53
43
32
22
11
1
-7
-13
-15
-18
-18
-17
-15
-13
-8
0
15
41
82
141
215
296
370
415
416
363
270
156
52
-23
-65
-77
-72
-63
-54
-48
-44
-43
-42
-40
-39
-39
-38
-38
-38
-38
-37
-37
-37
-37
-37
-35
-35
-37
-37
-38
-38
-38
-37
-37
-37
-38
-38
-38
-39
-38
-38
-38
-39
-39
-40
-42
-43
-44
-45
-47
-48
-49
-52
-55
-58
-63
-67
-70
-74
-78
-82
-85
-89
-92
-95
-97
-97
-97
-98
-98
-98
-99
-98
-95
-92
-88
-83
-78
-72
-65
-59
-52
-44
-37
-28
-20
-13
-5
0
5
8
15
20
25
28
31
33
35
35
36
35
35
36
37
37
36
36
35
33
32
31
28
26
25
22
21
20
20
18
17
16
15
13
11
10
7
7
6
6
6
6
5
5
5
5
3
3
2
2
2
2
2
2
2
3
3
5
5
5
5
3
2
2
1
1
1
1
1
1
1
1
1
0
0
-2
-3
-4
-4
-3
1
3
8
13
20
28
38
48
58
67
71
71
67
61
52
41
30
17
6
-3
-8
-12
-15
-15
-15
-14
-14
-10
-4
8
30
66
117
185
266
348
415
442
421
351
245
131
33
-32
-64
-73
-68
-60
-54
-50
-49
-48
-47
-47
-44
-44
-43
-43
-42
-42
-40
-40
-40
-40
-40
-42
-42
-42
-42
-42
-42
-40
-40
-40
-40
-42
-42
-43
-44
-44
-45
-47
-45
-47
-45
-45
-45
-47
-48
-50
-52
-54
-57
-60
-64
-68
-72
-74
-77
-79
-80
-82
-83
-84
-88
-89
-90
-90
-92
-92
-90
-90
-90
-88
-85
-82
-79
-74
-68
-63
-57
-49
-42
-35
-28
-22
-14
-8
-3
3
7
12
16
20
23
26
28
31
33
35
36
37
38
38
37
37
35
33
33
33
32
30
27
23
21
18
17
17
17
17
16
16
13
12
10
8
7
7
7
8
7
5
3
2
2
2
3
5
6
7
7
7
7
7
6
7
6
5
5
5
5
6
6
6
6
5
3
1
0
-2
-2
0
1
2
5
7
11
17
25
35
46
57
66
73
76
75
68
60
48
38
27
16
5
-4
-8
-12
-14
-14
-14
-13
-12
-9
-2
13
40
80
137
211
295
377
435
450
411
323
208
95
5
-50
-74
-75
-69
-62
-57
-54
-53
-50
-50
-49
-49
-48
-48
-48
-48
-48
-45
-44
-44
-44
-43
-42
-42
-42
-42
-42
-42
-42
-40
-40
-42
-42
-42
-42
-42
-42
-43
-43
-44
-43
-43
-43
-44
-44
-47
-49
-52
-55
-59
-62
-65
-69
-70
-74
-78
-82
-85
-89
-93
-95
-98
-99
-102
-103
-104
-104
-104
-104
-104
-102
-100
-97
-92
-85
-79
-73
-64
-55
-45
-38
-29
-20
-13
-5
1
5
11
16
21
26
30
33
37
41
43
46
48
48
48
47
47
45
43
42
42
40
36
35
32
30
28
27
26
25
26
25
25
23
22
21
18
17
17
16
16
15
13
13
12
11
11
11
11
10
10
8
7
6
6
5
5
3
3
2
2
1
1
1
1
1
2
3
7
12
18
27
37
47
57
65
68
68
66
58
50
40
28
17
6
-3
-10
-15
-18
-18
-18
-18
-17
-15
-12
-4
10
37
78
141
218
307
386
437
440
386
288
170
60
-20
-65
-80
-78
-69
-60
-55
-52
-49
-48
-47
-47
-47
-47
-44
-44
-44
-44
-44
-43
-43
-43
-43
-43
-42
-42
-42
-42
-42
-42
-42
-42
-43
-44
-44
-44
-44
-45
-45
-47
-47
-45
-47
-47
-47
-48
-49
-50
-52
-53
-54
-57
-60
-63
-67
-70
-73
-77
-79
-82
-84
-87
-88
-90
-93
-93
-94
-93
-93
-92
-90
-87
-84
-82
-75
-70
-63
-54
-47
-38
-30
-23
-15
-8
-2
3
8
12
15
20
23
26
30
32
35
37
38
40
40
41
40
40
38
38
37
35
33
32
30
27
26
22
21
20
18
17
16
16
15
15
13
12
11
10
7
6
6
5
5
5
3
3
3
2
2
2
2
2
2
2
3
3
3
3
2
2
1
0
0
0
-2
-2
-2
-2
-2
0
1
3
8
15
22
31
40
48
58
65
68
70
66
60
50
38
27
17
6
-2
-8
-13
-15
-15
-15
-14
-14
-12
-8
0
16
43
88
150
227
312
386
428
423
365
266
151
46
-29
-70
-82
-79
-69
-60
-55
-53
-53
-52
-52
-50
-48
-47
-47
-47
-47
-45
-45
-45
-44
-44
-44
-44
-44
-45
-47
-48
-48
-48
-45
-43
-40
-40
-40
-42
-43
-43
-44
-44
-44
-44
-44
-44
-44
-45
-45
-47
-49
-52
-53
-55
-57
-59
-63
-68
-72
-75
-78
-79
-80
-82
-83
-85
-87
-87
-88
-90
-92
-92
-90
-89
-85
-80
-77
-70
-64
-55
-49
-42
-35
-28
-20
-12
-4
2
6
8
12
16
20
23
27
32
35
37
38
40
40
40
40
38
37
36
36
33
33
33
31
28
26
23
20
18
18
16
15
12
12
11
11
11
11
11
11
10
8
8
7
7
6
6
5
6
6
6
6
5
6
5
3
2
2
2
2
2
1
1
0
0
0
0
0
0
0
1
3
8
16
25
33
45
55
63
70
72
70
63
53
42
32
20
8
-2
-9
-12
-14
-14
-14
-13
-12
-12
-8
0
16
45
86
145
221
306
387
442
452
410
318
203
90
2
-49
-70
-70
-65
-58
-54
-50
-50
-49
-49
-48
-47
-47
-44
-43
-42
-42
-42
-42
-42
-40
-40
-39
-40
-40
-42
-42
-42
-40
-39
-39
-39
-39
-40
-40
-40
-40
-40
-42
-42
-42
-42
-42
-42
-42
-43
-44
-47
-50
-54
-58
-60
-64
-67
-70
-74
-78
-82
-84
-87
-89
-92
-94
-97
-98
-98
-99
-99
-99
-98
-97
-93
-89
-83
-77
-69
-62
-54
-47
-38
-32
-25
-19
-13
-7
0
5
11
16
20
23
26
28
32
36
38
40
41
41
40
38
38
37
36
35
32
30
28
26
25
23
22
21
20
18
18
17
17
16
16
15
12
10
8
7
6
6
7
7
7
7
7
6
6
5
5
3
3
3
3
2
2
2
2
0
0
-2
-2
-2
0
0
2
5
8
15
22
31
41
51
61
67
68
66
61
51
41
31
18
8
-2
-8
-13
-15
-18
-18
-17
-15
-14
-10
-3
11
37
77
136
212
300
385
445
457
413
322
202
85
-5
-59
-82
-83
-75
-67
-60
-58
-57
-54
-54
-53
-52
-50
-49
-47
-47
-47
-45
-45
-45
-44
-44
-44
-44
-44
-44
-44
-44
-44
-44
-44
-45
-45
-45
-47
-47
-47
-48
-47
-47
-47
-45
-45
-45
-47
-48
-49
-52
-54
-57
-59
-62
-65
-70
-74
-77
-82
-87
-90
-93
-98
-100
-103
-104
-104
-104
-103
-103
-102
-99
-97
-92
-87
-82
-74
-68
-59
-50
-40
-32
-24
-15
-8
-2
3
7
12
17
22
27
31
35
38
40
41
42
43
43
43
43
42
43
42
42
41
41
38
36
33
31
28
26
25
25
22
22
22
21
22
21
20
18
17
16
16
15
15
13
12
12
11
8
7
6
6
5
5
3
2
3
3
5
7
11
16
23
32
41
51
60
67
70
70
67
61
52
42
31
20
11
1
-5
-12
-15
-17
-17
-15
-14
-12
-9
-3
12
38
82
145
226
316
398
451
452
400
298
177
63
-19
-67
-80
-77
-67
-58
-50
-48
-45
-44
-44
-44
-43
-43
-43
-43
-43
-43
-42
-42
-42
-43
-43
-43
-42
-42
-42
-43
-43
-44
-44
-44
-45
-45
-45
-47
-45
-45
-45
-45
-44
-44
-44
-44
-44
-45
-48
-49
-52
-54
-57
-60
-63
-64
-68
-70
-74
-78
-80
-83
-87
-88
-92
-93
-94
-95
-97
-97
-95
-94
-93
-89
-84
-79
-73
-67
-59
-52
-43
-35
-27
-19
-12
-5
1
6
10
13
17
18
21
25
26
28
31
32
35
36
36
37
37
36
35
32
31
28
27
25
22
21
20
18
16
13
12
10
10
8
8
7
7
7
5
5
5
5
5
5
5
5
3
3
3
3
2
2
2
2
2
2
2
1
1
0
0
0
0
-2
-2
0
0
1
3
7
12
18
27
37
47
57
65
68
68
65
57
48
38
27
16
6
0
-8
-12
-14
-15
-15
-14
-13
-10
-5
2
21
51
98
163
245
328
398
432
413
345
238
122
23
-43
-74
-80
-74
-65
-58
-54
-52
-50
-49
-48
-45
-45
-45
-44
-44
-44
-44
-43
-43
-43
-43
-43
-43
-43
-43
-43
-42
-42
-42
-43
-43
-44
-44
-45
-45
-47
-45
-47
-47
-47
-45
-45
-47
-45
-47
-48
-49
-50
-52
-53
-55
-57
-59
-62
-64
-67
-69
-72
-75
-78
-79
-82
-84
-87
-89
-90
-89
-87
-84
-82
-78
-75
-72
-67
-62
-55
-49
-42
-34
-25
-17
-10
-7
-2
1
5
10
15
20
25
28
32
33
33
35
35
36
37
37
38
37
33
31
28
28
27
27
26
22
18
15
13
13
13
13
12
12
10
10
8
8
8
8
8
8
8
7
6
5
3
2
2
2
2
3
2
2
1
1
-2
-3
-3
-4
-4
-4
-3
-2
0
2
5
8
15
23
33
46
57
67
73
75
72
66
57
48
36
23
12
2
-4
-9
-10
-12
-12
-12
-10
-10
-8
1
18
47
91
155
232
321
403
458
467
422
330
211
97
8
-44
-65
-67
-60
-52
-48
-47
-45
-44
-44
-43
-40
-38
-37
-37
-37
-35
-37
-38
-38
-38
-37
-37
-37
-35
-35
-35
-35
-35
-37
-37
-37
-38
-40
-42
-43
-44
-44
-45
-43
-42
-42
-43
-43
-44
-47
-49
-52
-55
-58
-62
-65
-68
-72
-75
-80
-85
-89
-92
-97
-100
-104
-107
-109
-109
-108
-105
-103
-100
-99
-97
-93
-89
-84
-77
-69
-62
-52
-44
-37
-30
-24
-17
-10
-5
1
6
11
15
20
23
27
31
33
35
35
35
35
35
33
33
32
31
30
30
30
27
26
23
22
21
20
18
17
18
18
17
17
16
15
13
11
8
7
7
7
7
7
6
5
3
3
3
3
3
2
1
0
-2
-2
-3
-3
-3
-3
0
2
7
12
20
27
37
47
57
65
70
72
70
63
53
42
32
20
8
-2
-9
-15
-18
-20
-19
-18
-17
-17
-13
-4
10
37
81
142
222
312
397
452
458
407
310
187
72
-13
-65
-83
-80
-73
-64
-58
-55
-53
-52
-50
-49
-48
-47
-47
-47
-47
-47
-47
-47
-45
-45
-45
-45
-45
-45
-45
-45
-47
-47
-47
-45
-45
-45
-45
-45
-44
-44
-44
-44
-44
-44
-44
-44
-44
-45
-47
-48
-49
-52
-55
-59
-63
-67
-69
-74
-79
-83
-87
-90
-93
-95
-98
-99
-102
-103
-103
-103
-103
-100
-98
-94
-89
-84
-78
-72
-64
-55
-48
-39
-32
-23
-15
-8
-2
5
10
15
20
25
28
32
35
37
38
40
42
43
45
43
45
45
45
45
43
41
40
38
37
36
35
32
31
28
28
28
26
26
26
25
25
23
22
21
20
17
17
16
13
12
11
10
8
8
7
7
8
10
12
16
21
28
37
46
56
65
72
76
77
75
68
60
50
38
26
13
3
-5
-12
-15
-17
-17
-17
-15
-14
-12
-5
6
28
63
118
192
281
372
442
472
443
361
241
117
16
-48
-78
-80
-72
-63
-55
-52
-50
-49
-48
-48
-48
-48
-48
-48
-48
-47
-47
-47
-44
-44
-44
-44
-44
-44
-44
-44
-45
-44
-44
-44
-44
-45
-45
-45
-47
-45
-45
-44
-45
-45
-45
-47
-47
-47
-48
-49
-52
-54
-57
-59
-63
-65
-69
-73
-77
-79
-83
-84
-89
-92
-94
-99
-102
-103
-104
-104
-103
-100
-97
-93
-89
-84
-78
-72
-64
-55
-48
-39
-29
-22
-15
-8
-3
2
7
12
17
22
26
30
32
35
36
38
40
40
41
41
40
38
36
36
33
32
31
30
28
26
25
22
20
18
17
16
16
15
15
16
15
13
12
12
11
11
10
10
10
11
10
10
8
8
6
5
5
3
2
2
2
2
2
2
2
2
3
6
11
17
25
33
43
52
60
66
68
68
63
56
47
37
25
12
2
-7
-14
-18
-20
-22
-20
-19
-18
-15
-9
0
21
53
106
176
263
353
427
461
441
366
251
128
25
-44
-78
-84
-77
-68
-60
-55
-54
-53
-52
-50
-50
-50
-49
-49
-48
-48
-48
-48
-48
-48
-47
-47
-47
-47
-45
-45
-47
-47
-47
-48
-48
-48
-48
-48
-49
-49
-49
-48
-48
-48
-47
-47
-48
-48
-48
-49
-49
-53
-54
-57
-59
-62
-63
-67
-69
-73
-77
-79
-83
-85
-87
-88
-89
-89
-90
-89
-89
-88
-85
-82
-78
-74
-69
-63
-58
-50
-44
-39
-30
-24
-17
-9
-2
5
11
17
22
27
32
33
37
40
41
41
41
41
40
40
38
37
37
37
36
36
33
31
30
28
26
23
22
20
20
17
17
17
17
16
16
15
13
12
11
11
10
10
10
10
8
7
7
6
5
5
3
2
2
1
2
2
5
10
13
21
30
40
50
60
67
72
73
70
63
53
43
32
21
10
-2
-9
-15
-19
-20
-20
-19
-18
-17
-14
-7
7
30
68
123
198
283
368
430
446
407
317
200
82
-7
-60
-80
-79
-68
-58
-53
-49
-49
-48
-48
-48
-47
-47
-45
-45
-45
-45
-45
-45
-45
-45
-45
-45
-44
-44
-44
-44
-44
-44
-44
-44
-45
-47
-47
-48
-49
-48
-48
-47
-47
-47
-45
-47
-47
-48
-50
-52
-54
-55
-58
-60
-63
-65
-68
-72
-75
-79
-82
-87
-90
-93
-95
-98
-99
-99
-99
-98
-99
-97
-94
-90
-85
-80
-74
-69
-62
-54
-45
-35
-28
-20
-12
-5
1
6
11
17
22
27
31
35
37
40
41
42
42
43
45
42
41
40
37
36
35
35
33
31
28
26
25
22
21
20
20
18
18
20
18
18
18
17
16
15
15
13
13
12
12
12
12
11
11
10
10
7
7
5
5
3
3
3
3
5
6
10
15
21
28
38
48
58
67
73
77
76
71
63
53
41
28
16
5
-4
-10
-14
-17
-18
-18
-15
-14
-13
-7
3
23
56
105
170
250
331
396
423
398
325
217
103
8
-52
-78
-82
-73
-63
-57
-52
-50
-49
-49
-49
-48
-48
-47
-45
-45
-44
-44
-44
-44
-44
-42
-42
-42
-42
-42
-42
-42
-40
-40
-42
-42
-43
-43
-43
-44
-43
-43
-43
-43
-43
-42
-42
-42
-43
-44
-44
-45
-48
-49
-50
-53
-55
-58
-60
-62
-64
-68
-69
-72
-74
-75
-78
-78
-79
-79
-79
-78
-77
-74
-72
-70
-67
-60
-55
-50
-44
-37
-28
-22
-13
-7
0
6
10
13
17
21
25
28
31
32
35
35
33
33
32
31
28
26
25
23
20
18
17
16
15
12
11
8
7
5
3
5
5
5
3
3
3
2
1
1
2
1
1
0
0
-2
-2
-2
-2
-2
-2
-3
-3
-4
-4
-4
-4
-3
-2
0
0
1
2
5
8
15
22
31
41
52
61
68
72
71
66
58
47
35
22
11
2
-5
-12
-15
-17
-18
-17
-15
-14
-10
-3
10
31
66
117
185
262
338
393
407
372
290
182
73
-9
-60
-80
-79
-69
-59
-50
-48
-45
-44
-43
-43
-42
-42
-42
-42
-40
-40
-40
-39
-39
-39
-39
-39
-38
-38
-38
-39
-39
-40
-40
-42
-42
-40
-40
-39
-40
-42
-43
-43
-42
-43
-42
-42
-42
-43
-45
-47
-48
-50
-52
-54
-57
-60
-64
-69
-74
-77
-80
-84
-87
-88
-89
-93
-93
-94
-94
-94
-93
-90
-90
-87
-84
-80
-75
-69
-64
-55
-49
-39
-32
-22
-14
-7
1
7
12
16
20
23
27
30
33
35
36
35
36
35
33
35
33
33
33
32
31
28
26
25
22
21
18
17
16
15
12
12
11
11
11
11
11
11
12
10
10
10
10
10
10
8
7
6
6
5
5
2
1
2
2
2
2
2
3
6
11
16
23
32
41
52
61
68
71
71
66
58
48
37
25
13
2
-5
-12
-14
-17
-18
-18
-17
-14
-10
-5
7
26
60
107
172
250
331
396
425
405
335
231
117
21
-42
-73
-80
-74
-65
-59
-54
-50
-48
-47
-45
-44
-44
-43
-43
-43
-43
-43
-42
-42
-42
-40
-40
-40
-40
-40
-40
-40
-40
-40
-40
-40
-40
-42
-43
-43
-43
-42
-42
-40
-39
-42
-42
-44
-45
-48
-48
-49
-52
-54
-58
-60
-64
-68
-72
-74
-77
-79
-82
-84
-87
-89
-92
-93
-93
-93
-92
-89
-88
-85
-83
-79
-75
-72
-65
-59
-52
-45
-37
-28
-19
-12
-5
1
6
11
16
21
25
28
32
33
35
37
38
38
38
40
38
37
37
36
36
35
35
32
30
27
25
22
21
18
18
17
16
13
13
13
12
13
12
12
11
10
10
8
8
8
7
7
6
5
3
2
1
1
1
1
1
3
6
10
16
22
31
42
52
62
70
73
73
68
61
51
40
28
17
6
-2
-8
-13
-14
-15
-15
-14
-13
-10
-7
3
23
56
103
168
251
335
407
441
425
355
248
130
27
-40
-74
-82
-74
-64
-57
-50
-48
-48
-47
-47
-47
-44
-44
-43
-43
-43
-43
-43
-43
-44
-44
-44
-44
-44
-43
-43
-44
-44
-43
-43
-43
-43
-44
-44
-44
-45
-45
-45
-45
-44
-45
-44
-45
-47
-48
-50
-54
-57
-60
-64
-69
-73
-78
-80
-85
-89
-93
-95
-98
-99
-100
-102
-102
-104
-104
-104
-104
-103
-102
-98
-93
-88
-83
-77
-72
-63
-57
-48
-39
-29
-20
-13
-4
3
8
15
20
23
27
30
31
33
35
37
40
41
43
45
45
45
43
41
38
36
32
31
28
27
25
23
22
22
20
20
18
18
20
20
21
20
17
16
13
11
10
8
7
7
5
5
2
2
2
3
6
8
12
18
25
32
41
50
60
67
72
72
70
62
53
42
31
20
8
0
-7
-13
-17
-19
-19
-17
-14
-12
-7
1
17
43
85
142
220
305
385
436
440
391
293
177
65
-15
-64
-79
-77
-68
-58
-52
-49
-47
-47
-45
-45
-44
-43
-42
-42
-42
-42
-42
-43
-43
-43
-43
-43
-43
-43
-44
-44
-45
-45
-45
-47
-47
-47
-47
-47
-47
-47
-47
-47
-47
-47
-47
-48
-49
-52
-53
-55
-58
-62
-65
-68
-73
-75
-79
-82
-85
-89
-92
-95
-98
-99
-100
-102
-104
-104
-103
-102
-100
-97
-94
-89
-84
-79
-74
-69
-62
-54
-45
-37
-28
-19
-12
-5
1
5
8
13
18
23
27
30
33
36
38
40
42
42
43
43
45
45
42
41
40
38
36
33
32
30
30
28
27
27
25
25
22
22
21
20
18
17
17
16
15
13
12
10
10
8
7
8
11
12
15
17
23
31
41
52
62
71
77
78
75
68
60
50
38
27
16
6
-3
-8
-13
-14
-15
-15
-15
-14
-12
-7
5
25
60
110
177
261
345
410
435
408
328
217
100
5
-54
-82
-83
-74
-64
-57
-53
-52
-50
-49
-49
-48
-47
-47
-47
-45
-45
-45
-45
-45
-44
-44
-44
-44
-44
-44
-45
-47
-45
-45
-45
-45
-47
-47
-48
-47
-48
-48
-47
-45
-47
-45
-44
-45
-45
-47
-48
-50
-53
-55
-58
-62
-67
-69
-73
-75
-78
-80
-84
-87
-90
-92
-93
-94
-94
-93
-93
-90
-88
-85
-82
-78
-73
-67
-60
-53
-44
-37
-28
-20
-12
-5
0
6
11
16
21
25
30
32
35
37
38
41
43
43
45
45
43
42
41
40
38
37
36
35
33
31
28
27
27
25
23
22
22
22
21
21
21
20
18
17
16
15
13
12
12
10
8
8
7
6
6
6
6
8
12
17
25
32
42
53
62
70
75
75
71
65
55
45
33
21
10
0
-9
-13
-17
-17
-17
-15
-14
-13
-10
-3
12
40
80
140
215
298
373
420
417
363
266
151
45
-30
-70
-80
-75
-63
-53
-47
-44
-42
-42
-40
-40
-42
-42
-42
-42
-42
-42
-40
-40
-40
-40
-40
-40
-40
-39
-40
-40
-42
-43
-43
-44
-44
-44
-45
-45
-44
-45
-44
-45
-44
-44
-43
-44
-44
-45
-47
-48
-50
-53
-54
-58
-60
-64
-67
-70
-73
-75
-79
-82
-84
-85
-87
-88
-88
-88
-89
-88
-87
-84
-82
-78
-74
-69
-64
-58
-49
-42
-33
-24
-18
-10
-3
2
7
12
17
21
25
26
30
31
33
33
35
36
37
37
37
36
35
35
33
31
30
27
26
25
23
22
21
18
17
15
15
13
12
12
13
12
12
11
11
11
8
8
8
6
6
5
5
3
3
3
3
5
6
7
11
16
22
31
41
51
61
68
75
76
75
70
61
51
38
27
15
3
-7
-12
-14
-17
-17
-15
-14
-13
-9
-4
10
33
71
123
193
273
350
402
412
371
283
173
66
-17
-64
-79
-75
-64
-54
-48
-44
-43
-42
-40
-40
-40
-39
-38
-38
-38
-39
-39
-39
-39
-40
-39
-39
-38
-38
-38
-38
-38
-38
-39
-39
-40
-40
-42
-42
-43
-43
-44
-43
-43
-42
-43
-42
-43
-43
-44
-47
-48
-50
-55
-58
-62
-65
-69
-73
-77
-80
-83
-85
-88
-89
-90
-90
-90
-92
-92
-92
-90
-89
-87
-84
-80
-75
-70
-65
-58
-52
-43
-35
-25
-18
-10
-3
3
8
13
20
25
28
32
33
36
37
38
38
40
37
37
37
37
36
35
33
31
30
28
26
25
23
22
20
20
17
15
15
13
12
12
13
12
11
10
8
7
7
6
6
5
5
3
2
2
2
2
2
2
3
5
5
7
11
16
23
33
45
55
65
71
75
73
68
61
50
38
26
13
2
-7
-13
-17
-18
-19
-18
-17
-15
-13
-7
5
26
58
107
173
252
331
392
415
388
312
206
95
5
-53
-78
-80
-72
-63
-55
-50
-48
-47
-45
-45
-45
-45
-45
-45
-44
-44
-42
-40
-40
-40
-42
-42
-42
-43
-43
-43
-43
-43
-43
-43
-44
-44
-45
-45
-45
-45
-45
-45
-45
-45
-44
-43
-43
-43
-44
-47
-49
-52
-53
-55
-58
-60
-63
-67
-70
-74
-77
-80
-83
-84
-87
-88
-88
-89
-88
-88
-87
-85
-82
-79
-75
-72
-68
-64
-59
-53
-47
-39
-30
-23
-15
-7
2
8
16
20
23
26
27
30
32
35
36
38
38
37
38
38
38
38
37
36
35
32
30
28
27
26
23
21
18
16
16
15
13
13
12
11
10
10
8
10
10
11
11
10
8
7
6
5
3
1
0
0
0
0
0
0
1
1
3
7
12
20
28
38
50
61
70
75
75
71
62
51
40
27
16
6
-2
-8
-13
-15
-17
-18
-19
-19
-18
-13
-3
16
46
90
150
223
308
385
432
433
383
288
173
65
-14
-60
-77
-74
-65
-58
-52
-49
-49
-48
-48
-47
-45
-43
-43
-42
-42
-43
-42
-40
-40
-40
-42
-42
-42
-39
-38
-37
-37
-37
-38
-39
-42
-43
-44
-44
-44
-44
-43
-42
-43
-42
-42
-42
-42
-43
-44
-47
-50
-53
-57
-60
-64
-67
-70
-73
-77
-80
-83
-85
-89
-90
-93
-94
-95
-95
-95
-94
-94
-92
-90
-88
-84
-79
-74
-67
-60
-53
-47
-38
-30
-22
-14
-7
0
7
13
18
23
27
31
33
35
37
40
40
41
41
41
38
37
36
32
31
28
27
26
25
23
22
20
18
16
13
13
12
11
11
11
11
11
12
12
12
12
11
11
10
8
7
7
7
6
6
5
3
2
1
-2
-2
-2
-2
1
2
3
7
11
17
26
36
45
55
63
67
67
63
56
47
37
26
15
5
-5
-13
-18
-19
-20
-19
-18
-18
-15
-10
-2
15
45
91
153
232
316
388
427
417
353
251
133
31
-39
-78
-85
-80
-69
-60
-55
-52
-50
-49
-49
-48
-48
-47
-47
-47
-45
-45
-45
-44
-43
-43
-43
-43
-43
-43
-43
-44
-44
-44
-44
-45
-45
-45
-45
-47
-45
-45
-47
-45
-45
-45
-44
-45
-45
-47
-49
-50
-53
-54
-58
-59
-62
-64
-68
-70
-75
-78
-82
-85
-88
-90
-93
-93
-93
-93
-94
-93
-92
-90
-88
-85
-83
-78
-73
-65
-59
-52
-44
-37
-28
-20
-13
-5
1
8
12
17
22
27
32
35
37
38
40
41
41
40
38
38
37
37
35
33
32
31
30
27
25
22
21
20
18
18
18
17
17
17
16
16
15
13
12
12
11
11
8
8
8
8
8
8
10
8
8
7
6
5
3
3
3
3
3
6
8
11
16
23
31
41
51
60
67
71
71
66
60
50
40
28
17
8
0
-8
-13
-15
-17
-17
-15
-14
-12
-8
1
16
45
88
148
226
310
381
421
412
350
250
135
32
-37
-73
-80
-74
-64
-55
-50
-47
-45
-44
-44
-44
-44
-44
-43
-43
-43
-43
-43
-43
-43
-42
-42
-40
-40
-40
-42
-42
-42
-42
-42
-40
-42
-42
-40
-42
-43
-43
-43
-44
-43
-44
-43
-44
-45
-47
-48
-50
-53
-55
-58
-60
-63
-65
-69
-72
-74
-77
-79
-82
-84
-87
-88
-89
-90
-92
-93
-94
-93
-93
-90
-87
-83
-78
-73
-67
-59
-53
-44
-37
-28
-19
-12
-4
2
7
13
18
23
27
31
35
36
38
40
41
42
42
41
40
38
36
36
32
31
28
26
25
23
21
20
18
17
17
16
16
16
15
15
13
13
12
12
11
11
11
10
10
8
7
7
7
7
7
7
6
6
6
5
5
3
5
3
3
2
2
2
2
3
3
6
8
13
20
27
36
47
57
65
71
72
70
63
56
46
35
22
12
2
-5
-10
-14
-15
-15
-14
-12
-12
-7
0
15
38
78
133
205
287
362
411
413
365
273
160
55
-22
-65
-79
-74
-65
-55
-50
-47
-44
-43
-42
-42
-40
-39
-39
-39
-39
-39
-39
-38
-38
-38
-38
-38
-38
-38
-38
-39
-39
-39
-40
-39
-39
-39
-39
-40
-40
-42
-40
-42
-42
-44
-44
-45
-47
-47
-48
-48
-49
-49
-52
-53
-57
-59
-62
-65
-69
-73
-77
-79
-80
-82
-82
-83
-83
-84
-84
-85
-85
-85
-83
-82
-79
-75
-73
-68
-62
-55
-49
-40
-32
-24
-17
-10
-4
2
7
13
18
23
26
28
32
35
36
38
40
40
40
40
37
36
35
31
28
25
23
22
20
20
18
17
16
15
13
13
12
12
11
11
10
10
10
10
8
8
7
7
7
6
6
5
6
6
6
7
7
7
6
6
5
3
2
1
0
-2
-3
-3
-3
-3
0
1
5
8
12
18
26
36
47
57
65
70
70
67
61
52
42
31
20
8
0
-8
-12
-15
-17
-17
-17
-14
-13
-9
2
21
50
92
153
228
312
387
432
430
376
281
166
62
-14
-57
-73
-70
-64
-58
-53
-50
-48
-47
-45
-43
-42
-42
-42
-40
-40
-40
-40
-40
-38
-38
-37
-38
-38
-39
-40
-40
-40
-40
-40
-40
-40
-40
-39
-39
-40
-40
-42
-43
-43
-43
-44
-44
-43
-44
-45
-47
-49
-53
-57
-59
-63
-64
-67
-69
-72
-75
-79
-83
-85
-88
-89
-90
-93
-93
-94
-94
-93
-93
-93
-92
-89
-85
-80
-75
-68
-59
-52
-44
-37
-29
-22
-14
-7
0
6
12
18
25
30
33
36
38
42
45
46
48
47
46
45
45
43
42
41
40
36
35
31
28
26
25
22
21
21
20
20
18
20
18
18
17
16
15
13
13
13
12
11
10
10
10
10
10
10
8
7
7
6
6
6
6
5
5
3
2
1
1
1
1
1
3
5
7
12
18
26
36
47
58
67
72
73
71
65
55
45
33
22
10
1
-5
-10
-14
-17
-15
-15
-14
-12
-7
1
15
41
81
141
216
302
382
436
442
396
303
188
76
-8
-58
-77
-78
-69
-63
-58
-57
-55
-53
-52
-52
-52
-50
-49
-49
-49
-49
-48
-48
-49
-49
-49
-48
-48
-48
-48
-48
-47
-47
-47
-48
-49
-49
-48
-49
-49
-49
-48
-49
-48
-48
-49
-48
-49
-50
-52
-54
-57
-59
-62
-65
-68
-69
-73
-75
-79
-82
-85
-89
-90
-93
-93
-95
-97
-99
-99
-100
-102
-100
-99
-97
-93
-88
-83
-77
-70
-64
-55
-48
-39
-32
-23
-15
-8
0
6
11
16
22
27
31
35
37
40
42
43
46
45
46
45
43
42
40
37
35
32
30
28
26
25
23
21
20
20
18
18
18
18
18
17
17
16
16
15
13
12
12
11
11
11
10
10
8
8
7
7
6
6
6
3
2
2
1
1
1
1
1
2
3
5
8
13
18
26
36
46
55
62
67
68
66
61
52
41
30
18
8
0
-8
-13
-17
-17
-17
-17
-15
-13
-9
-3
11
37
80
140
218
307
391
447
453
403
305
185
68
-17
-65
-80
-78
-68
-59
-54
-52
-50
-50
-49
-49
-48
-48
-47
-45
-45
-45
-45
-44
-44
-44
-44
-44
-44
-43
-43
-43
-43
-43
-43
-43
-43
-43
-44
-45
-45
-45
-45
-44
-44
-43
-44
-43
-44
-45
-47
-49
-50
-53
-55
-59
-62
-65
-69
-72
-75
-78
-82
-85
-88
-90
-92
-93
-95
-97
-95
-95
-94
-93
-92
-89
-85
-82
-77
-70
-63
-55
-47
-39
-30
-22
-14
-7
0
6
10
16
20
23
27
30
32
35
36
37
38
38
40
40
38
37
36
35
33
33
31
30
28
27
25
23
22
21
20
18
17
17
16
15
15
13
12
10
10
7
6
6
6
6
5
5
5
5
5
3
3
2
2
1
1
0
0
0
0
0
0
0
0
0
0
0
0
1
1
1
1
1
1
0
0
-2
-2
-3
-4
-5
-4
-4
-3
-2
0
2
5
10
17
23
30
37
46
52
57
60
60
56
50
41
32
21
11
2
-5
-10
-13
-14
-14
-14
-13
-12
-8
0
16
42
85
146
221
306
380
422
418
361
263
148
46
-28
-67
-77
-73
-62
-54
-49
-45
-44
-42
-42
-42
-40
-40
-42
-42
-42
-43
-43
-43
-42
-42
-40
-40
-40
-40
-40
-40
-40
-42
-40
-40
-40
-42
-43
-43
-44
-44
-44
-44
-43
-43
-42
-43
-43
-44
-45
-47
-48
-50
-52
-55
-58
-60
-64
-67
-68
-69
-70
-72
-73
-74
-77
-78
-80
-80
-80
-80
-79
-77
-75
-75
-73
-69
-67
-63
-58
-53
-48
-42
-34
-27
-19
-12
-4
1
7
12
17
21
26
30
33
36
38
38
40
41
41
42
42
41
40
37
33
32
31
30
28
27
23
22
20
17
17
16
15
13
12
11
11
10
8
7
6
5
3
2
2
2
2
1
1
0
0
-2
-2
-2
-2
-2
-3
-2
-2
-2
0
0
0
1
1
1
1
0
0
-2
-3
-4
-4
-4
-3
-3
-2
1
3
7
13
22
31
42
52
61
67
68
67
62
52
41
28
16
6
-4
-10
-14
-15
-15
-14
-13
-12
-9
-7
2
21
48
93
153
230
313
388
432
428
373
276
162
57
-17
-60
-73
-70
-63
-57
-50
-48
-45
-44
-44
-44
-44
-43
-42
-42
-42
-42
-42
-42
-42
-42
-40
-40
-40
-40
-39
-39
-39
-39
-39
-38
-39
-39
-40
-40
-42
-40
-40
-39
-39
-40
-40
-42
-42
-43
-44
-47
-48
-52
-54
-58
-62
-65
-69
-73
-77
-80
-85
-88
-90
-93
-94
-97
-98
-99
-99
-99
-99
-97
-94
-92
-88
-84
-80
-75
-69
-63
-55
-47
-39
-33
-25
-19
-12
-5
0
6
12
17
22
27
31
35
38
41
43
43
43
45
45
45
45
42
40
38
36
35
33
32
30
28
27
26
25
23
23
22
22
21
18
17
15
13
12
12
12
11
11
10
8
8
8
7
7
6
6
6
6
5
5
5
5
5
5
5
5
5
5
5
5
5
5
5
3
2
1
1
0
0
-2
-2
-2
-2
-2
-2
1
3
7
13
21
30
40
51
60
66
67
65
60
51
41
30
18
7
-3
-10
-14
-18
-19
-19
-18
-17
-15
-10
-3
12
41
82
143
221
306
382
430
427
372
275
158
51
-27
-68
-80
-77
-68
-59
-54
-49
-48
-47
-47
-45
-45
-44
-44
-44
-44
-43
-43
-43
-42
-42
-42
-42
-40
-40
-40
-40
-42
-42
-42
-43
-43
-43
-43
-43
-43
-44
-44
-43
-43
-43
-42
-43
-44
-45
-47
-48
-50
-53
-55
-58
-60
-63
-65
-68
-70
-73
-75
-78
-79
-83
-85
-87
-88
-88
-89
-88
-88
-88
-85
-83
-80
-77
-73
-67
-63
-57
-50
-43
-35
-28
-20
-13
-5
0
6
11
16
20
25
30
33
37
40
41
43
45
46
46
46
45
43
41
40
38
37
36
35
32
31
30
27
25
23
21
20
17
16
15
13
12
11
11
10
8
7
7
7
7
6
6
5
5
5
5
5
3
5
5
5
5
5
5
5
3
3
3
3
2
1
1
0
0
-3
-3
-4
-4
-3
-3
-2
2
5
8
15
22
31
41
52
61
67
70
70
65
58
48
38
27
16
5
-4
-10
-13
-14
-15
-15
-14
-13
-12
-5
6
27
61
113
181
262
345
406
427
395
316
205
93
3
-52
-75
-75
-67
-58
-52
-48
-47
-44
-43
-42
-42
-42
-40
-40
-40
-40
-39
-39
-38
-38
-37
-37
-38
-39
-39
-39
-39
-39
-39
-39
-39
-39
-40
-39
-39
-39
-39
-39
-39
-39
-40
-40
-42
-42
-43
-45
-47
-49
-53
-55
-58
-60
-63
-65
-69
-73
-77
-80
-84
-87
-88
-90
-92
-93
-93
-93
-94
-93
-92
-92
-88
-84
-80
-77
-70
-65
-57
-49
-42
-34
-27
-19
-13
-8
-2
5
10
13
20
25
30
33
36
38
38
40
40
40
38
40
40
40
40
40
37
36
33
31
27
25
22
20
20
18
16
15
12
12
11
11
10
10
8
6
6
6
6
6
6
5
3
3
3
2
2
2
1
1
2
3
5
5
5
2
2
3
3
2
2
-2
-4
-4
-5
-4
-3
-2
0
1
3
7
13
22
31
42
53
62
68
72
70
65
58
48
36
25
12
2
-7
-12
-17
-19
-19
-18
-17
-14
-12
-4
12
36
75
130
201
285
367
428
447
413
332
220
106
15
-43
-70
-74
-68
-60
-54
-52
-49
-48
-45
-44
-44
-44
-45
-43
-43
-42
-42
-39
-38
-38
-38
-39
-38
-38
-38
-39
-39
-39
-39
-37
-37
-38
-38
-39
-40
-40
-40
-40
-40
-42
-42
-42
-43
-43
-44
-45
-47
-48
-52
-55
-59
-63
-65
-68
-72
-74
-77
-80
-83
-87
-89
-92
-93
-93
-94
-93
-94
-93
-90
-89
-87
-83
-80
-75
-69
-62
-55
-48
-39
-33
-27
-20
-14
-8
-2
3
8
12
17
21
25
28
32
35
36
38
40
40
40
40
38
38
37
36
35
32
32
30
28
26
23
22
20
18
16
16
15
15
15
13
12
12
11
10
8
7
7
6
6
6
6
6
6
5
5
3
3
5
5
3
5
5
5
5
5
3
3
1
0
0
-2
-2
-2
-2
-2
0
1
3
8
13
21
31
41
51
61
67
71
71
67
61
52
41
28
16
5
-3
-9
-13
-17
-17
-17
-15
-14
-12
-7
5
23
57
106
173
256
342
411
440
416
341
231
115
17
-47
-75
-79
-72
-62
-55
-50
-49
-48
-47
-45
-44
-44
-43
-43
-42
-42
-42
-43
-43
-42
-42
-42
-42
-42
-42
-42
-42
-43
-43
-43
-43
-44
-44
-43
-43
-44
-43
-44
-43
-42
-43
-42
-43
-44
-45
-45
-48
-49
-52
-54
-57
-59
-62
-64
-68
-72
-74
-78
-80
-83
-85
-88
-89
-90
-92
-92
-93
-92
-92
-90
-88
-84
-80
-75
-69
-63
-55
-48
-39
-32
-24
-18
-12
-5
1
5
10
15
18
23
27
31
33
37
38
41
42
42
43
43
43
43
42
41
40
38
36
32
30
27
25
22
21
20
18
17
16
16
16
15
13
13
12
10
10
8
8
7
7
6
6
5
5
5
6
6
6
6
6
5
5
5
5
2
2
1
2
1
1
1
1
0
0
0
1
3
7
13
20
30
40
50
58
66
68
68
63
57
48
38
27
16
6
-3
-9
-14
-18
-18
-17
-15
-13
-12
-7
3
22
55
101
167
246
328
396
426
405
333
227
112
16
-48
-78
-82
-74
-63
-54
-49
-48
-47
-47
-47
-47
-45
-45
-45
-45
-45
-45
-45
-44
-44
-43
-42
-43
-43
-44
-44
-45
-45
-45
-45
-44
-44
-43
-43
-43
-43
-44
-44
-45
-45
-45
-45
-45
-45
-47
-47
-48
-49
-53
-55
-58
-60
-62
-64
-67
-70
-74
-77
-79
-82
-83
-84
-87
-87
-89
-88
-87
-85
-85
-84
-84
-82
-78
-72
-65
-59
-53
-47
-40
-32
-24
-17
-10
-5
0
3
8
15
18
22
25
28
31
33
36
37
38
37
37
38
38
40
40
40
40
37
36
33
31
27
25
21
18
17
17
16
17
16
17
17
15
13
11
10
8
8
7
7
7
6
3
3
3
3
5
6
6
6
6
5
5
5
3
3
2
2
1
0
1
0
1
1
1
0
0
1
5
11
18
27
37
47
57
65
70
72
70
65
56
47
35
22
11
1
-8
-13
-17
-19
-18
-15
-14
-12
-9
1
20
47
92
151
228
313
393
445
450
401
305
188
78
-5
-54
-73
-72
-65
-57
-52
-49
-48
-48
-48
-47
-47
-47
-47
-45
-44
-43
-40
-39
-39
-38
-37
-37
-37
-37
-38
-39
-38
-38
-38
-38
-39
-39
-39
-40
-40
-40
-40
-39
-39
-39
-39
-40
-40
-42
-44
-47
-48
-50
-53
-55
-58
-62
-64
-68
-72
-77
-80
-84
-87
-88
-90
-92
-94
-95
-98
-99
-100
-100
-99
-97
-93
-89
-84
-78
-70
-64
-55
-48
-40
-33
-25
-19
-13
-8
-2
3
7
11
15
18
22
26
28
31
33
35
36
36
36
36
35
35
33
32
30
28
27
25
23
22
21
20
18
17
16
15
15
13
12
12
10
8
7
7
6
6
6
5
5
3
3
3
3
3
3
3
3
3
3
2
2
1
0
0
0
0
0
0
0
0
2
5
10
16
23
33
43
55
63
70
72
70
63
55
45
33
21
10
0
-7
-13
-17
-18
-19
-17
-15
-14
-12
-4
10
35
75
133
208
293
375
428
436
391
298
181
70
-13
-62
-78
-77
-65
-57
-50
-48
-47
-45
-45
-44
-43
-42
-42
-42
-40
-40
-40
-40
-40
-39
-39
-40
-40
-40
-39
-38
-38
-38
-38
-39
-40
-39
-40
-40
-42
-40
-40
-40
-40
-40
-39
-40
-40
-40
-42
-44
-45
-48
-50
-53
-55
-58
-62
-64
-67
-70
-73
-75
-79
-82
-84
-85
-88
-89
-92
-92
-92
-90
-90
-87
-84
-79
-75
-69
-63
-57
-48
-42
-33
-25
-19
-12
-5
1
6
10
15
16
20
23
26
30
32
35
36
38
38
40
38
37
37
35
35
32
30
27
26
25
21
20
18
17
15
15
15
13
13
12
11
10
8
8
7
6
6
6
5
6
6
6
6
6
6
6
6
6
6
6
5
5
3
2
1
1
0
0
0
1
1
1
5
6
10
13
21
30
38
48
55
60
63
61
56
48
40
30
18
10
-2
-10
-17
-19
-20
-22
-20
-19
-18
-14
-7
6
28
63
118
190
273
355
411
425
385
298
185
73
-12
-63
-83
-82
-73
-63
-57
-53
-49
-48
-48
-48
-47
-47
-48
-48
-47
-47
-47
-47
-47
-47
-45
-44
-44
-44
-44
-45
-45
-45
-45
-45
-45
-47
-47
-47
-47
-45
-45
-44
-45
-44
-44
-43
-44
-44
-45
-48
-49
-53
-54
-57
-59
-60
-64
-67
-69
-72
-74
-78
-80
-83
-84
-87
-88
-88
-89
-90
-89
-90
-89
-88
-85
-80
-77
-72
-65
-58
-50
-43
-37
-29
-22
-14
-8
-2
5
10
15
17
22
26
28
31
32
33
35
35
36
37
37
38
38
36
35
32
32
30
28
26
23
21
18
17
16
16
16
16
15
15
13
12
10
10
8
8
7
7
6
6
6
6
6
6
5
5
3
3
3
3
5
5
6
6
5
5
2
1
0
-2
-2
-2
-2
0
0
1
2
5
10
16
25
36
45
55
62
66
66
62
56
47
37
27
16
5
-3
-9
-14
-17
-17
-17
-17
-17
-14
-9
1
21
55
105
170
251
335
403
436
417
350
243
130
30
-37
-69
-78
-72
-64
-58
-54
-52
-50
-50
-49
-47
-45
-44
-44
-44
-44
-43
-44
-44
-44
-44
-43
-43
-42
-40
-39
-38
-39
-40
-40
-42
-43
-43
-44
-44
-43
-43
-43
-42
-42
-42
-42
-40
-40
-42
-43
-45
-47
-49
-52
-54
-58
-60
-64
-67
-70
-74
-78
-80
-83
-84
-87
-87
-87
-89
-90
-90
-90
-90
-89
-85
-83
-78
-72
-65
-59
-53
-47
-39
-32
-24
-18
-12
-7
0
5
10
15
20
23
27
31
32
36
37
40
40
41
42
41
42
42
41
41
38
37
35
32
31
27
25
25
22
20
20
18
18
18
18
17
17
15
12
11
11
10
10
8
8
8
7
7
7
10
10
10
10
8
7
6
6
5
3
1
0
-2
-3
-3
-3
-2
0
1
3
7
12
20
27
38
48
58
66
70
70
65
57
47
35
23
12
1
-7
-13
-17
-18
-18
-18
-17
-15
-13
-7
3
26
60
111
178
260
345
412
440
417
342
232
116
18
-44
-75
-80
-74
-65
-58
-54
-52
-50
-49
-49
-48
-48
-48
-47
-47
-45
-44
-44
-44
-43
-43
-43
-43
-43
-43
-44
-44
-44
-44
-44
-44
-44
-44
-44
-43
-43
-44
-43
-43
-42
-40
-42
-43
-43
-44
-47
-48
-50
-53
-55
-58
-62
-64
-68
-72
-77
-79
-83
-85
-89
-93
-97
-98
-100
-103
-103
-102
-102
-99
-95
-92
-88
-83
-77
-70
-64
-57
-49
-40
-33
-25
-18
-12
-4
1
6
11
15
20
23
27
31
35
37
38
41
43
45
43
42
41
41
38
38
36
33
32
30
28
26
23
22
21
20
20
20
20
20
20
18
17
16
15
15
12
12
12
11
11
10
8
8
7
7
7
6
6
5
3
3
1
1
1
2
2
5
7
11
16
22
31
41
50
58
66
71
71
67
61
52
42
31
21
10
1
-7
-10
-14
-15
-15
-15
-14
-13
-9
-3
12
40
81
141
216
301
380
427
426
372
276
160
52
-24
-68
-80
-77
-65
-57
-50
-48
-45
-45
-44
-44
-43
-43
-44
-44
-44
-42
-42
-42
-42
-42
-42
-42
-40
-40
-40
-42
-42
-42
-42
-42
-43
-42
-42
-42
-42
-42
-42
-40
-40
-40
-40
-40
-42
-43
-44
-45
-48
-49
-52
-54
-57
-59
-62
-64
-67
-69
-72
-74
-77
-78
-82
-83
-84
-85
-85
-85
-84
-84
-83
-80
-77
-73
-67
-60
-54
-47
-39
-32
-24
-18
-12
-4
0
6
10
13
17
21
25
27
31
33
35
37
38
40
40
38
40
38
38
38
36
35
32
31
27
25
22
18
16
13
12
12
11
11
11
10
10
8
7
7
6
5
5
5
3
3
3
3
3
3
3
5
5
5
5
5
3
3
3
2
2
2
1
0
0
-2
-2
-2
-2
-2
-2
0
3
7
13
22
31
41
51
60
66
68
68
63
57
47
38
26
13
3
-5
-10
-12
-14
-14
-13
-12
-10
-9
-3
8
31
67
121
191
273
355
412
427
388
303
192
82
-4
-57
-77
-75
-67
-58
-52
-47
-45
-45
-44
-44
-43
-43
-42
-42
-42
-42
-40
-40
-40
-39
-39
-39
-39
-39
-40
-42
-42
-43
-43
-42
-42
-43
-43
-44
-44
-44
-45
-45
-47
-45
-44
-44
-44
-44
-45
-47
-48
-50
-52
-54
-55
-58
-60
-63
-65
-68
-70
-73
-75
-78
-80
-82
-82
-84
-83
-84
-83
-82
-82
-82
-78
-75
-70
-64
-57
-52
-44
-38
-32
-23
-17
-10
-4
-2
3
8
13
18
22
26
30
33
37
40
41
42
43
43
42
41
41
40
37
36
32
30
27
25
22
21
21
20
18
18
16
16
15
15
13
11
10
8
8
7
7
7
7
6
6
5
3
3
2
2
1
0
0
0
0
0
0
0
-2
-2
-3
-3
-4
-5
-5
-4
-4
-3
0
2
6
12
20
28
38
48
57
65
68
67
62
55
43
32
22
11
1
-8
-13
-17
-19
-20
-19
-19
-17
-13
-7
6
28
65
118
187
271
352
415
435
405
323
215
101
10
-47
-73
-77
-69
-60
-54
-50
-48
-48
-45
-45
-44
-44
-43
-43
-42
-42
-42
-43
-40
-40
-39
-38
-38
-38
-38
-39
-39
-39
-39
-39
-39
-38
-38
-38
-38
-39
-38
-39
-38
-38
-38
-38
-39
-42
-44
-45
-48
-49
-50
-53
-57
-59
-62
-64
-67
-69
-73
-75
-79
-82
-84
-87
-90
-92
-95
-97
-97
-97
-94
-90
-85
-82
-77
-73
-68
-62
-55
-47
-39
-32
-24
-18
-10
-4
1
5
10
15
20
23
28
32
36
40
42
45
46
46
46
45
42
42
42
41
40
37
35
32
30
28
26
26
23
22
22
21
20
20
18
18
17
16
15
13
13
13
12
12
11
10
8
7
6
6
5
5
5
5
5
3
3
2
2
0
0
-2
-2
-2
-2
-2
-2
1
3
7
13
21
30
40
50
60
66
70
68
63
56
46
35
23
12
2
-5
-12
-17
-19
-19
-19
-19
-17
-15
-9
2
25
61
113
183
266
351
415
437
408
328
217
101
5
-54
-82
-84
-78
-69
-62
-57
-54
-53
-53
-53
-53
-52
-50
-50
-49
-49
-49
-48
-48
-48
-48
-48
-47
-47
-48
-48
-48
-48
-48
-48
-48
-47
-47
-48
-48
-48
-47
-47
-47
-47
-47
-45
-47
-48
-49
-50
-52
-54
-55
-58
-60
-63
-67
-69
-73
-75
-78
-83
-87
-89
-92
-94
-95
-98
-98
-99
-98
-95
-94
-90
-87
-83
-79
-73
-67
-60
-53
-45
-37
-30
-23
-15
-9
-3
3
10
13
18
22
26
30
33
36
40
41
43
43
42
41
40
40
37
37
36
33
31
30
27
25
23
22
21
20
20
17
17
15
15
15
13
13
13
12
12
12
12
11
11
11
10
10
10
8
7
7
6
5
3
3
3
3
3
3
3
6
8
12
18
26
36
45
55
63
70
71
70
65
57
48
37
25
13
5
-3
-9
-13
-15
-15
-15
-14
-12
-9
-3
6
27
61
112
181
262
346
407
431
400
320
210
96
5
-52
-77
-79
-69
-60
-53
-49
-47
-45
-45
-44
-44
-44
-44
-44
-44
-44
-43
-43
-43
-42
-42
-42
-42
-42
-40
-40
-40
-42
-42
-43
-43
-44
-44
-43
-43
-43
-44
-43
-43
-43
-42
-43
-44
-45
-47
-48
-49
-52
-54
-57
-59
-63
-65
-68
-70
-73
-75
-78
-80
-83
-85
-88
-89
-92
-93
-94
-94
-94
-93
-90
-87
-82
-77
-70
-63
-57
-49
-40
-33
-25
-18
-12
-5
1
5
10
15
18
23
26
30
32
35
36
37
38
38
40
38
40
38
37
37
35
32
30
26
23
22
21
20
18
17
17
16
16
15
13
15
13
13
11
11
10
10
8
8
8
8
8
8
8
7
7
7
6
6
6
6
5
5
3
3
2
2
1
2
2
2
3
6
8
13
20
28
37
48
58
66
70
71
68
62
55
43
31
18
8
-2
-8
-13
-15
-17
-15
-15
-14
-12
-9
-2
16
42
86
146
221
305
377
417
411
353
253
140
37
-34
-72
-82
-75
-65
-57
-50
-48
-45
-45
-43
-43
-42
-42
-43
-43
-43
-43
-44
-43
-43
-43
-42
-42
-42
-42
-42
-43
-43
-42
-42
-42
-42
-43
-43
-44
-43
-43
-43
-42
-43
-42
-42
-40
-42
-42
-43
-44
-45
-48
-49
-52
-54
-57
-59
-63
-65
-69
-70
-73
-74
-77
-78
-79
-82
-83
-84
-85
-85
-84
-82
-80
-77
-73
-68
-63
-55
-49
-43
-35
-29
-23
-17
-13
-7
0
3
10
15
20
23
28
32
35
37
37
38
37
37
36
36
36
35
33
32
30
30
28
27
25
22
21
20
17
16
16
13
13
11
12
11
11
10
10
8
7
7
6
6
6
6
5
5
3
3
3
3
3
3
3
2
2
1
1
0
-2
-3
-3
-3
-3
0
2
6
10
16
22
32
43
55
63
70
71
68
62
53
45
32
20
8
-2
-9
-14
-17
-18
-18
-17
-15
-13
-9
-2
13
40
80
138
212
296
375
425
431
383
293
180
71
-9
-59
-77
-75
-68
-60
-55
-53
-52
-50
-48
-45
-43
-43
-43
-43
-44
-44
-44
-43
-43
-42
-42
-42
-42
-43
-43
-43
-43
-43
-43
-43
-43
-44
-44
-44
-44
-44
-42
-42
-40
-40
-43
-44
-45
-45
-45
-45
-47
-49
-52
-55
-59
-63
-65
-68
-70
-73
-75
-78
-83
-85
-90
-93
-95
-98
-99
-99
-99
-97
-94
-90
-87
-83
-78
-74
-68
-62
-53
-44
-35
-28
-20
-13
-5
2
6
12
16
21
25
28
32
36
40
42
45
46
47
48
48
47
45
42
40
38
37
36
35
33
31
28
26
23
22
21
20
18
18
17
16
15
13
13
13
13
12
11
10
8
7
7
6
6
7
7
6
6
6
5
3
2
2
1
1
1
1
1
1
2
5
8
15
22
31
42
52
62
68
71
68
63
56
46
35
23
11
2
-7
-13
-17
-18
-18
-17
-17
-15
-12
-7
6
28
66
120
192
275
357
418
436
402
317
205
90
0
-55
-79
-82
-73
-64
-57
-53
-50
-49
-49
-48
-48
-48
-48
-48
-48
-48
-48
-47
-45
-45
-45
-45
-44
-44
-44
-43
-43
-43
-43
-43
-43
-43
-44
-44
-43
-44
-44
-44
-44
-44
-43
-44
-44
-45
-47
-48
-49
-52
-54
-57
-59
-62
-64
-67
-69
-72
-74
-78
-80
-83
-87
-88
-92
-94
-94
-95
-95
-94
-93
-90
-87
-83
-78
-73
-65
-59
-52
-43
-35
-27
-20
-13
-5
0
5
11
16
21
25
28
32
35
37
38
41
43
45
46
45
45
43
42
40
36
35
31
30
28
26
25
22
21
20
20
18
17
16
16
15
13
12
11
10
10
8
8
7
7
6
6
6
6
6
6
6
6
6
5
5
3
2
2
1
1
1
1
1
1
3
6
12
18
27
37
47
57
65
71
72
71
66
58
47
36
23
12
2
-5
-10
-14
-15
-15
-14
-13
-10
-8
-3
11
33
71
125
196
277
357
413
425
385
296
183
72
-10
-60
-79
-78
-68
-58
-50
-47
-44
-44
-43
-43
-43
-42
-42
-40
-40
-40
-40
-40
-40
-40
-40
-40
-40
-40
-40
-40
-40
-40
-40
-42
-43
-44
-44
-44
-45
-44
-44
-44
-44
-43
-43
-43
-44
-45
-45
-47
-48
-50
-52
-54
-57
-60
-63
-67
-69
-72
-74
-78
-82
-84
-85
-88
-88
-89
-89
-89
-88
-88
-87
-84
-83
-79
-74
-69
-63
-55
-49
-42
-33
-27
-19
-13
-5
1
5
10
15
20
23
26
30
32
35
37
38
40
40
40
40
40
40
38
37
36
35
33
30
28
25
23
21
18
16
15
15
13
12
12
11
10
10
8
8
7
6
6
5
5
5
5
5
5
5
3
3
3
3
3
3
3
3
2
2
2
2
1
1
0
0
0
-2
-2
-2
-2
-2
-2
0
2
6
10
15
22
32
42
52
61
67
70
68
65
57
48
37
25
13
3
-5
-10
-13
-14
-14
-12
-10
-9
-8
-3
10
31
67
120
188
270
348
407
423
388
306
196
86
-2
-54
-77
-77
-68
-58
-50
-48
-47
-47
-45
-43
-43
-42
-40
-39
-38
-38
-39
-40
-40
-42
-42
-43
-43
-44
-44
-44
-44
-44
-43
-43
-43
-43
-44
-44
-44
-45
-44
-45
-44
-44
-45
-44
-45
-45
-47
-47
-48
-49
-53
-54
-57
-60
-63
-65
-69
-70
-73
-74
-77
-78
-80
-83
-84
-85
-85
-85
-84
-83
-82
-82
-79
-78
-74
-70
-64
-57
-49
-43
-35
-29
-23
-17
-10
-3
2
7
12
16
21
25
28
32
35
37
38
40
40
40
40
41
41
41
40
37
36
35
33
31
30
27
25
22
20
18
17
16
13
13
12
12
11
10
8
7
6
5
5
5
5
3
3
2
1
1
0
0
0
0
0
1
2
2
2
2
1
1
1
1
1
0
1
0
-2
-3
-3
-4
-4
-3
0
2
7
13
20
28
38
48
58
66
71
71
67
60
50
37
26
15
3
-4
-8
-12
-14
-14
-14
-13
-10
-8
-2
12
33
70
120
188
268
352
416
442
416
341
233
118
23
-38
-67
-72
-67
-58
-53
-49
-48
-47
-45
-45
-44
-44
-43
-42
-42
-42
-42
-40
-40
-40
-42
-40
-40
-40
-40
-40
-40
-39
-39
-40
-42
-42
-43
-43
-43
-43
-42
-42
-42
-42
-42
-43
-43
-44
-45
-47
-49
-52
-54
-58
-60
-63
-67
-69
-73
-77
-79
-83
-84
-87
-89
-92
-94
-95
-95
-95
-94
-94
-93
-92
-89
-87
-83
-79
-75
-69
-63
-55
-48
-40
-34
-27
-19
-12
-5
2
6
11
15
20
23
27
31
33
36
37
38
40
40
40
40
40
38
37
33
32
30
28
25
23
21
20
17
16
15
13
13
12
11
11
11
8
8
8
8
7
6
6
5
5
5
5
5
5
3
3
3
3
5
5
5
5
5
5
5
5
2
2
2
2
0
0
-2
-2
-2
-2
-2
0
2
5
8
15
22
31
41
51
60
66
68
66
61
53
45
33
23
12
2
-5
-12
-14
-14
-14
-14
-13
-10
-9
-2
12
36
75
130
201
286
366
421
432
390
301
186
76
-8
-58
-78
-77
-68
-58
-52
-48
-47
-47
-45
-45
-43
-43
-43
-43
-43
-42
-42
-42
-42
-42
-40
-40
-40
-40
-40
-40
-40
-40
-40
-40
-40
-40
-42
-42
-40
-42
-42
-42
-40
-42
-42
-42
-43
-44
-45
-47
-49
-52
-53
-55
-58
-60
-64
-67
-70
-73
-77
-80
-83
-85
-88
-89
-90
-90
-92
-92
-93
-92
-89
-87
-84
-80
-78
-73
-68
-63
-57
-49
-42
-33
-25
-17
-10
-4
3
8
13
16
21
25
28
32
33
36
37
38
40
40
40
38
38
37
37
36
35
32
30
28
27
26
25
22
21
20
17
16
15
15
12
11
10
8
7
7
7
6
5
5
5
5
3
3
3
3
5
5
5
5
5
5
5
5
5
5
5
5
5
5
5
3
3
2
1
1
0
-2
-2
-2
-2
0
1
2
6
12
18
28
38
48
58
65
68
68
65
58
50
40
28
16
6
-4
-8
-13
-14
-15
-14
-12
-10
-7
-2
8
30
63
113
181
262
342
403
426
397
318
211
98
6
-50
-74
-75
-68
-58
-49
-45
-44
-43
-42
-42
-40
-40
-39
-39
-39
-39
-40
-40
-40
-39
-39
-39
-39
-39
-39
-39
-39
-39
-39
-39
-40
-40
-40
-40
-42
-42
-42
-42
-42
-40
-39
-39
-39
-40
-40
-43
-45
-48
-50
-53
-55
-57
-59
-62
-67
-70
-74
-77
-79
-82
-83
-85
-87
-88
-92
-93
-93
-93
-90
-88
-84
-80
-77
-73
-68
-63
-57
-50
-43
-37
-29
-22
-14
-8
-2
3
7
12
17
21
25
27
31
32
35
37
38
40
40
40
40
38
37
36
33
31
30
28
26
26
26
25
23
22
20
17
16
15
13
10
10
7
7
8
8
7
6
5
5
3
3
3
3
2
2
1
1
0
0
0
0
1
1
2
3
3
3
3
2
1
1
1
1
0
0
-2
-3
-4
-4
-5
-5
-5
-3
0
2
5
10
16
25
36
47
58
66
71
71
66
58
51
40
27
15
5
-5
-10
-14
-15
-15
-14
-13
-12
-8
-3
10
32
68
120
187
270
353
420
447
423
350
241
126
30
-34
-64
-70
-67
-59
-54
-52
-49
-48
-45
-44
-44
-43
-43
-43
-43
-43
-43
-43
-43
-43
-40
-40
-39
-39
-38
-38
-39
-39
-40
-42
-42
-42
-42
-40
-40
-42
-42
-43
-42
-40
-39
-39
-39
-40
-43
-44
-47
-48
-50
-54
-58
-62
-65
-69
-73
-75
-79
-82
-83
-85
-88
-90
-92
-94
-97
-98
-98
-97
-94
-92
-89
-85
-80
-78
-73
-68
-62
-57
-49
-42
-34
-27
-19
-12
-4
2
6
12
17
21
25
28
31
32
36
37
40
41
41
41
41
40
37
36
35
33
32
31
30
28
26
23
22
21
18
17
13
12
11
10
8
7
7
6
6
5
5
5
5
5
3
3
3
3
3
5
5
5
5
5
5
3
3
3
2
2
2
1
1
1
1
0
-3
-3
-4
-4
-4
-4
-4
-4
-2
1
3
8
16
23
35
45
55
63
68
71
67
61
52
41
30
18
8
-2
-8
-13
-17
-18
-18
-18
-17
-14
-9
0
15
43
87
147
226
311
388
433
430
373
273
157
51
-27
-68
-80
-77
-69
-62
-57
-54
-53
-52
-52
-50
-50
-50
-49
-48
-48
-48
-48
-47
-47
-45
-44
-44
-43
-43
-43
-43
-43
-43
-44
-43
-44
-44
-44
-43
-43
-42
-43
-42
-42
-40
-42
-40
-42
-43
-44
-45
-48
-49
-52
-54
-57
-60
-63
-67
-69
-73
-77
-79
-80
-83
-85
-87
-88
-89
-90
-90
-90
-90
-89
-88
-85
-83
-79
-73
-67
-60
-53
-47
-38
-30
-23
-15
-8
-3
2
8
13
20
25
30
33
37
41
43
46
47
47
47
48
48
47
47
45
42
41
38
36
35
32
30
28
25
23
22
21
20
20
20
18
17
16
15
15
12
11
11
11
10
10
8
8
7
7
7
6
6
6
6
6
6
6
5
5
3
2
2
1
1
0
0
-3
-3
-3
-3
-3
-2
1
6
11
17
26
36
46
56
63
68
71
68
62
56
46
35
22
12
2
-7
-12
-14
-15
-15
-15
-14
-13
-9
-2
12
37
75
132
206
290
370
421
428
381
290
176
66
-15
-63
-78
-75
-65
-57
-50
-48
-47
-45
-44
-45
-44
-43
-43
-43
-43
-43
-43
-43
-42
-40
-40
-40
-40
-40
-40
-40
-40
-40
-42
-42
-40
-42
-42
-43
-42
-43
-43
-43
-43
-42
-43
-42
-43
-44
-45
-48
-49
-50
-53
-54
-57
-60
-63
-67
-69
-72
-74
-77
-80
-83
-85
-87
-88
-89
-90
-90
-90
-89
-88
-85
-83
-79
-75
-70
-64
-57
-50
-42
-33
-25
-17
-9
-3
3
8
12
16
21
23
26
28
31
32
35
36
36
37
36
36
36
36
36
33
32
31
28
27
26
25
23
22
21
20
18
17
18
17
17
16
16
15
13
12
11
11
8
7
6
6
5
3
3
3
3
2
2
1
1
0
0
0
0
0
1
1
1
1
1
1
0
-2
-3
-3
-3
-3
-3
-3
-3
-3
-3
-3
-3
-4
-4
-5
-5
-7
-7
-7
-7
-7
-7
-5
-3
1
6
12
20
26
35
42
50
55
56
55
51
45
36
27
16
6
-2
-8
-14
-17
-18
-18
-17
-15
-14
-9
-3
16
46
88
148
225
307
381
425
422
370
273
160
56
-19
-60
-74
-70
-63
-55
-52
-50
-49
-48
-47
-45
-44
-45
-47
-47
-47
-47
-45
-45
-45
-45
-45
-44
-44
-43
-43
-43
-43
-43
-44
-45
-44
-45
-44
-44
-43
-42
-42
-42
-43
-43
-44
-43
-43
-44
-44
-45
-48
-50
-53
-54
-55
-58
-60
-63
-68
-70
-73
-75
-77
-79
-80
-84
-84
-85
-85
-85
-85
-84
-84
-83
-79
-77
-73
-69
-64
-59
-54
-48
-42
-34
-28
-20
-15
-8
0
6
13
20
25
28
32
33
37
40
42
45
46
47
48
48
48
46
45
43
42
40
38
37
36
36
33
31
30
27
26
23
22
20
18
17
15
13
13
12
11
11
11
10
8
8
8
7
7
6
6
5
6
6
5
3
2
1
1
1
1
1
2
1
1
0
-2
-2
-2
-2
-3
-3
-3
-4
-4
-3
-2
0
3
8
17
27
38
51
61
70
72
72
67
60
51
40
27
16
6
-3
-9
-13
-15
-14
-13
-12
-10
-8
-3
7
30
63
117
185
268
351
416
442
417
342
233
118
23
-39
-70
-77
-70
-63
-55
-53
-52
-52
-50
-50
-49
-49
-48
-47
-47
-48
-48
-48
-48
-48
-47
-47
-45
-45
-45
-45
-45
-45
-45
-44
-45
-45
-47
-47
-45
-45
-45
-44
-44
-45
-45
-45
-47
-48
-50
-52
-54
-55
-58
-60
-63
-67
-70
-74
-78
-82
-84
-88
-90
-93
-95
-98
-99
-100
-100
-100
-100
-100
-99
-97
-94
-90
-87
-82
-75
-69
-62
-54
-45
-38
-30
-22
-15
-9
-4
2
6
11
17
22
27
30
33
36
38
40
41
42
43
45
45
45
43
42
41
40
38
37
35
33
31
30
28
27
27
26
25
25
23
23
21
18
18
16
13
12
10
8
7
7
7
7
6
6
7
7
7
7
6
6
5
5
3
3
3
3
3
3
3
3
3
3
2
2
2
2
2
1
1
0
-2
-2
-2
-3
-3
-3
-3
1
2
6
10
17
25
35
46
56
63
68
70
67
61
53
43
32
22
11
1
-7
-12
-14
-15
-15
-15
-14
-13
-9
1
17
46
91
153
231
316
390
431
423
365
262
147
43
-29
-68
-79
-74
-64
-55
-50
-48
-47
-47
-44
-44
-44
-44
-43
-42
-42
-42
-42
-42
-42
-42
-43
-43
-43
-43
-42
-42
-42
-42
-43
-43
-44
-44
-44
-44
-44
-45
-45
-44
-45
-44
-44
-44
-45
-47
-48
-49
-50
-52
-53
-54
-57
-58
-60
-64
-67
-70
-73
-75
-78
-80
-83
-85
-87
-88
-88
-88
-89
-88
-87
-84
-80
-77
-72
-67
-60
-54
-48
-40
-32
-25
-18
-10
-3
3
7
12
18
23
27
32
35
38
40
41
42
42
43
43
43
43
43
43
42
41
38
37
35
32
30
28
26
26
23
22
21
21
21
20
21
20
18
17
16
15
13
12
12
10
8
7
5
2
1
1
1
1
0
0
0
-2
-2
-3
-3
-3
-2
-2
-3
-4
-5
-7
-8
-8
-8
-7
-7
-5
-4
-4
-4
-4
-4
-4
-5
-7
-7
-7
-7
-7
-7
-8
-9
-9
-9
-9
-9
-8
-4
-2
3
8
15
22
30
40
47
55
58
58
57
52
46
38
26
13
2
-8
-14
-15
-17
-17
-17
-18
-17
-14
-9
6
28
66
118
190
272
355
416
437
408
328
220
108
17
-42
-68
-73
-67
-59
-52
-49
-48
-48
-48
-45
-43
-42
-40
-40
-42
-42
-42
-43
-42
-42
-42
-40
-40
-40
-40
-38
-38
-38
-38
-38
-38
-38
-38
-39
-38
-38
-38
-37
-38
-38
-39
-40
-40
-40
-42
-43
-45
-48
-49
-52
-54
-57
-60
-64
-68
-72
-74
-78
-80
-83
-85
-87
-88
-89
-90
-90
-92
-92
-92
-92
-90
-88
-85
-80
-74
-69
-63
-55
-48
-42
-33
-25
-20
-13
-5
0
7
12
17
22
27
31
35
37
40
40
42
43
46
47
48
48
48
47
45
43
42
41
40
37
35
32
30
28
26
25
22
21
21
20
18
18
17
16
16
16
15
13
12
10
8
7
7
7
7
7
6
6
6
7
7
7
7
6
6
5
5
3
1
0
-2
-2
-2
-2
0
0
0
0
0
1
3
8
15
23
33
45
56
66
71
72
70
63
55
45
33
21
10
0
-8
-13
-17
-17
-17
-15
-14
-13
-8
0
16
43
86
147
222
308
386
435
437
386
290
173
65
-18
-65
-82
-79
-72
-63
-58
-57
-55
-54
-52
-50
-49
-49
-47
-47
-47
-47
-48
-47
-47
-47
-45
-45
-45
-45
-44
-44
-45
-45
-45
-45
-44
-44
-44
-45
-44
-44
-43
-43
-43
-42
-43
-43
-44
-45
-47
-48
-50
-52
-54
-58
-60
-64
-68
-72
-75
-79
-83
-85
-89
-92
-94
-97
-99
-99
-100
-100
-99
-99
-97
-95
-92
-88
-82
-78
-70
-63
-55
-48
-40
-34
-27
-19
-13
-5
0
5
10
15
20
26
30
35
37
40
41
43
45
45
46
46
46
45
43
43
42
41
40
38
35
33
31
30
28
26
25
22
21
20
18
17
16
15
13
12
11
10
8
8
8
8
7
7
6
6
5
5
3
3
3
3
3
3
3
3
3
2
2
1
1
1
0
0
-2
-3
-2
-2
-2
-2
-2
0
2
5
10
16
23
32
42
51
58
65
66
65
60
53
43
32
21
10
1
-7
-13
-17
-19
-19
-18
-17
-14
-12
-3
11
36
76
133
207
292
371
423
428
382
288
175
66
-17
-63
-79
-77
-68
-59
-53
-49
-48
-48
-47
-45
-44
-43
-43
-43
-42
-42
-43
-43
-43
-43
-43
-43
-43
-42
-42
-42
-43
-43
-44
-44
-43
-43
-43
-43
-44
-43
-44
-43
-42
-43
-42
-42
-43
-44
-45
-47
-48
-50
-52
-54
-57
-59
-62
-64
-68
-70
-73
-77
-79
-82
-84
-87
-88
-89
-89
-89
-89
-88
-87
-84
-82
-78
-73
-68
-62
-54
-47
-40
-33
-25
-19
-13
-5
0
3
8
13
16
20
23
27
30
32
35
36
37
38
38
38
40
38
38
37
36
35
33
32
31
30
27
26
25
22
22
21
20
17
16
15
12
10
10
7
6
3
3
3
3
3
3
2
2
1
1
1
1
1
1
1
0
0
0
0
0
0
0
0
0
0
0
0
0
0
0
0
0
-2
-2
-3
-3
-4
-4
-4
-4
-3
-2
1
5
11
18
27
36
47
56
63
67
67
65
58
51
41
30
18
7
0
-8
-14
-17
-17
-17
-15
-15
-13
-9
0
17
48
95
158
237
320
390
425
410
346
243
131
32
-35
-69
-78
-73
-64
-58
-52
-49
-48
-48
-47
-47
-45
-47
-47
-47
-44
-44
-43
-43
-43
-43
-42
-43
-43
-43
-44
-44
-45
-45
-47
-47
-47
-47
-45
-45
-45
-47
-47
-45
-47
-45
-47
-44
-44
-44
-45
-47
-50
-53
-54
-57
-59
-60
-63
-68
-70
-74
-77
-80
-83
-84
-87
-87
-89
-89
-89
-90
-90
-89
-88
-85
-83
-79
-75
-70
-64
-59
-53
-45
-39
-30
-23
-15
-8
-2
5
7
11
16
21
25
27
31
33
36
38
41
42
42
42
42
41
41
41
41
41
41
40
37
35
33
31
28
25
22
21
20
18
18
17
16
16
15
12
10
7
6
5
5
6
6
6
7
6
6
6
5
5
3
3
2
2
2
2
2
2
3
3
5
2
2
1
1
0
0
0
0
-2
-2
-2
-2
0
3
7
13
22
32
45
56
65
71
72
70
63
55
45
32
20
8
0
-8
-13
-17
-18
-17
-15
-14
-12
-8
-2
15
41
81
141
215
300
378
431
437
392
302
188
77
-7
-55
-74
-73
-67
-59
-52
-48
-47
-45
-45
-45
-44
-44
-43
-43
-42
-42
-42
-40
-40
-39
-39
-40
-40
-42
-42
-42
-42
-42
-42
-42
-43
-43
-43
-43
-43
-43
-43
-42
-42
-43
-43
-43
-43
-44
-47
-48
-50
-53
-54
-57
-59
-63
-67
-69
-73
-77
-79
-83
-85
-88
-89
-90
-93
-94
-95
-95
-94
-93
-92
-90
-88
-84
-80
-75
-70
-64
-58
-52
-44
-34
-27
-19
-13
-8
-2
3
8
13
17
21
26
30
33
36
38
40
41
42
42
43
43
42
41
40
38
37
35
33
32
31
28
26
25
23
22
21
20
18
17
16
15
13
12
11
11
8
8
7
6
5
3
2
2
2
2
2
2
2
2
2
2
1
1
1
1
1
1
1
1
1
0
0
-2
-2
-3
-4
-4
-4
-3
-2
3
7
13
22
32
42
52
61
65
66
62
57
48
37
26
16
5
-3
-9
-14
-18
-19
-19
-19
-18
-15
-12
-3
12
41
85
146
225
308
383
426
420
363
263
148
46
-28
-68
-78
-73
-63
-55
-50
-47
-45
-44
-43
-44
-44
-45
-45
-45
-45
-45
-45
-45
-45
-47
-45
-45
-43
-42
-39
-37
-35
-35
-35
-34
-34
-34
-34
-34
-35
-34
-35
-34
-34
-34
-35
-34
-35
-37
-39
-42
-44
-47
-48
-50
-53
-55
-59
-63
-67
-70
-74
-78
-80
-83
-87
-89
-90
-92
-94
-94
-95
-94
-94
-93
-92
-88
-85
-80
-74
-67
-59
-50
-43
-34
-27
-19
-13
-8
-4
0
5
10
15
20
23
27
28
31
33
36
37
38
38
38
40
40
40
38
36
35
31
28
25
23
22
22
21
21
21
22
21
20
17
15
12
11
11
11
11
12
12
11
11
11
12
12
12
12
11
12
11
10
8
8
7
7
7
7
8
7
7
6
6
5
6
6
6
7
10
15
21
30
40
51
61
70
76
77
76
71
63
55
43
32
20
8
-2
-8
-13
-15
-17
-17
-15
-13
-9
-2
12
33
68
117
185
262
341
400
418
390
310
203
92
5
-49
-72
-73
-64
-55
-49
-45
-44
-42
-42
-42
-40
-42
-40
-42
-42
-42
-42
-42
-42
-40
-42
-42
-42
-42
-40
-40
-40
-40
-42
-42
-43
-44
-44
-44
-44
-43
-43
-42
-42
-42
-42
-43
-44
-44
-45
-48
-49
-52
-54
-57
-58
-60
-62
-64
-67
-70
-73
-75
-79
-80
-83
-84
-87
-89
-92
-92
-93
-93
-92
-90
-87
-83
-79
-74
-67
-60
-52
-44
-35
-28
-20
-14
-8
-3
2
6
11
15
18
22
25
27
28
30
31
32
33
32
33
33
32
32
31
31
28
27
25
22
21
18
16
13
12
13
13
16
16
15
12
11
8
7
6
6
5
5
3
2
2
2
3
5
5
5
3
3
3
3
3
2
2
0
1
0
1
2
1
2
3
3
6
8
13
18
27
37
47
57
65
70
71
68
62
53
43
33
21
8
-2
-9
-15
-17
-19
-19
-18
-17
-14
-10
-3
15
41
83
142
216
297
371
415
412
360
266
152
48
-28
-70
-85
-80
-72
-63
-55
-52
-50
-49
-49
-49
-48
-47
-45
-44
-44
-44
-44
-43
-42
-40
-39
-39
-38
-39
-39
-39
-39
-39
-39
-40
-40
-42
-42
-39
-39
-38
-38
-38
-37
-37
-37
-37
-38
-38
-40
-42
-45
-48
-50
-52
-54
-57
-60
-64
-68
-70
-75
-78
-82
-84
-88
-90
-93
-93
-93
-93
-92
-90
-89
-87
-85
-82
-77
-70
-64
-57
-50
-43
-35
-29
-23
-17
-10
-4
1
5
10
15
18
23
26
30
32
35
37
37
38
40
40
38
37
36
35
33
32
32
31
30
28
27
25
23
22
21
20
20
20
20
18
17
16
16
15
15
15
13
12
11
11
10
10
10
10
7
7
6
3
3
2
2
1
1
2
3
6
10
15
21
30
40
51
60
68
72
72
68
62
53
43
31
21
10
0
-8
-14
-18
-18
-17
-15
-13
-10
-7
0
15
40
82
140
217
303
383
436
440
390
292
173
62
-19
-65
-79
-74
-64
-55
-50
-48
-48
-47
-45
-44
-43
-43
-43
-43
-43
-42
-42
-42
-43
-43
-43
-42
-42
-42
-42
-40
-40
-40
-40
-42
-42
-42
-42
-42
-40
-40
-42
-40
-40
-42
-42
-40
-42
-43
-44
-45
-47
-48
-50
-53
-55
-57
-60
-64
-67
-70
-73
-77
-79
-83
-85
-87
-89
-92
-92
-93
-94
-92
-89
-87
-83
-79
-74
-69
-63
-55
-49
-40
-33
-24
-17
-10
-4
1
6
11
15
20
23
27
30
32
35
36
37
38
38
38
38
37
37
35
33
33
32
30
27
26
23
22
21
21
20
18
17
16
13
13
11
11
10
10
8
8
7
7
6
6
6
6
6
5
5
5
5
5
5
3
3
1
1
0
0
0
0
0
0
1
3
6
10
16
23
32
42
52
60
66
67
66
61
52
42
32
21
8
-2
-10
-15
-19
-22
-22
-22
-20
-18
-15
-8
5
27
65
117
187
270
350
406
420
380
295
182
72
-13
-64
-85
-84
-75
-64
-58
-54
-52
-52
-50
-50
-50
-50
-49
-48
-47
-47
-47
-47
-45
-45
-45
-45
-45
-44
-44
-43
-43
-43
-43
-43
-43
-43
-44
-43
-43
-44
-44
-43
-43
-43
-42
-43
-43
-44
-45
-47
-48
-49
-50
-52
-53
-55
-58
-60
-64
-67
-70
-73
-75
-77
-79
-82
-83
-85
-85
-87
-88
-88
-85
-84
-80
-77
-73
-68
-60
-55
-48
-40
-33
-24
-17
-9
-4
2
8
12
17
22
26
30
32
35
37
37
38
40
40
40
40
38
38
37
36
35
31
28
26
23
22
21
20
18
18
17
17
15
15
13
12
11
11
10
10
8
8
7
7
6
6
5
5
5
5
5
5
5
5
5
5
3
3
2
1
0
0
0
0
1
1
1
3
6
11
17
26
36
45
53
61
66
66
62
56
48
38
27
15
3
-5
-12
-17
-19
-20
-20
-19
-18
-15
-12
-3
12
41
82
142
217
298
370
410
403
346
248
137
36
-35
-72
-82
-75
-65
-55
-49
-45
-44
-43
-40
-39
-39
-39
-39
-39
-39
-40
-40
-42
-42
-42
-40
-40
-39
-39
-39
-39
-40
-40
-42
-42
-43
-43
-43
-43
-43
-43
-42
-43
-42
-43
-42
-43
-43
-44
-45
-48
-49
-50
-52
-54
-55
-58
-60
-63
-67
-70
-73
-77
-79
-82
-85
-88
-90
-93
-94
-94
-95
-94
-93
-90
-88
-84
-80
-75
-69
-60
-52
-43
-35
-28
-20
-13
-7
1
7
10
15
20
23
27
31
33
35
36
38
41
42
42
41
38
36
32
31
30
30
28
27
26
25
22
21
18
15
12
11
10
11
11
11
10
8
7
6
5
3
3
3
3
5
5
5
3
2
1
1
0
0
-2
-2
-2
-3
-3
-3
-2
-2
1
3
8
13
21
30
41
51
61
68
71
70
65
57
47
37
26
15
3
-5
-10
-14
-17
-15
-15
-13
-12
-9
-4
10
31
67
117
186
267
347
410
433
406
328
221
108
17
-42
-70
-74
-69
-62
-57
-54
-52
-50
-48
-45
-44
-43
-43
-44
-44
-43
-42
-39
-38
-37
-37
-37
-38
-38
-38
-38
-37
-37
-38
-39
-40
-40
-40
-40
-40
-39
-39
-39
-39
-40
-40
-40
-40
-42
-42
-43
-44
-45
-48
-52
-54
-58
-60
-63
-65
-69
-73
-75
-77
-80
-82
-84
-85
-88
-89
-89
-88
-88
-88
-87
-85
-83
-79
-74
-68
-59
-52
-43
-35
-27
-20
-13
-7
0
6
12
18
23
26
30
33
36
38
41
43
46
47
48
47
46
43
42
38
37
35
33
32
31
28
26
25
26
25
23
23
23
22
22
21
20
18
17
16
15
13
12
12
12
12
12
11
10
10
8
8
8
6
5
3
3
2
2
2
1
1
3
5
7
11
18
27
38
50
61
68
73
75
71
63
53
43
32
20
7
-3
-8
-14
-17
-18
-19
-17
-17
-14
-10
-4
13
42
83
145
218
303
381
431
435
386
293
178
68
-13
-62
-79
-80
-73
-67
-62
-58
-57
-57
-57
-57
-55
-54
-54
-53
-52
-50
-49
-49
-49
-49
-49
-48
-48
-49
-49
-50
-50
-50
-50
-50
-52
-52
-52
-50
-52
-52
-52
-52
-50
-49
-49
-49
-50
-52
-54
-55
-58
-59
-62
-64
-65
-69
-72
-74
-78
-82
-84
-88
-90
-94
-95
-98
-99
-100
-103
-102
-102
-100
-98
-95
-93
-88
-84
-77
-72
-64
-57
-49
-39
-32
-24
-15
-9
-2
5
8
15
20
25
28
33
36
40
41
41
42
43
42
41
41
40
38
38
37
35
33
32
30
28
26
25
23
22
22
21
22
21
22
21
21
20
18
18
17
16
16
15
15
13
12
11
11
10
8
8
7
7
6
5
5
5
7
10
15
20
27
35
45
55
65
72
77
77
75
68
61
52
40
28
16
5
-4
-9
-12
-14
-14
-12
-12
-9
-8
-2
12
36
75
131
205
288
370
426
437
395
303
188
75
-10
-62
-79
-78
-67
-57
-49
-45
-43
-42
-40
-40
-40
-40
-40
-40
-39
-39
-39
-39
-39
-39
-38
-38
-38
-38
-38
-38
-37
-37
-37
-38
-38
-39
-39
-40
-42
-42
-42
-42
-42
-40
-42
-42
-43
-44
-44
-47
-48
-50
-53
-55
-58
-60
-62
-64
-68
-70
-74
-77
-80
-83
-85
-88
-89
-92
-93
-94
-94
-94
-93
-90
-87
-83
-78
-73
-65
-60
-53
-45
-38
-29
-22
-15
-8
-2
3
10
13
18
23
28
32
35
36
36
36
37
37
37
37
35
35
32
31
28
26
25
23
21
20
18
17
16
13
12
10
10
8
8
8
7
6
3
2
2
2
2
2
1
1
0
0
1
1
2
2
1
1
0
0
-3
-3
-4
-4
-5
-5
-4
-4
-3
-2
0
3
7
13
22
33
45
55
62
67
67
63
57
48
41
30
18
7
-3
-10
-15
-18
-18
-18
-17
-15
-13
-9
-2
17
46
91
155
231
316
390
432
428
371
275
158
55
-20
-62
-77
-74
-68
-62
-57
-53
-50
-48
-45
-44
-43
-43
-40
-42
-42
-43
-44
-44
-44
-43
-43
-43
-43
-42
-42
-42
-40
-40
-39
-39
-38
-38
-39
-39
-40
-40
-40
-40
-40
-39
-40
-39
-39
-40
-40
-42
-44
-45
-48
-52
-54
-57
-60
-63
-65
-68
-70
-72
-74
-78
-80
-84
-89
-92
-92
-89
-88
-84
-82
-78
-75
-74
-72
-68
-62
-55
-49
-42
-33
-25
-18
-12
-7
0
3
11
17
23
28
33
37
41
43
45
46
47
48
46
46
43
41
38
35
33
31
27
26
23
21
18
18
16
15
15
12
12
12
11
8
7
7
6
5
5
3
2
1
1
1
0
0
0
0
1
0
0
0
-2
-3
-4
-4
-5
-5
-5
-5
-4
0
3
8
15
22
32
41
52
61
67
71
70
65
60
50
40
28
17
6
-2
-8
-12
-14
-15
-13
-13
-10
-7
-3
10
32
68
121
195
282
370
440
466
437
355
238
118
18
-45
-74
-78
-70
-62
-55
-52
-48
-47
-45
-44
-44
-44
-43
-43
-44
-44
-44
-43
-42
-42
-42
-42
-42
-42
-42
-42
-42
-42
-43
-44
-44
-44
-45
-47
-47
-47
-45
-44
-44
-44
-43
-44
-45
-48
-48
-50
-53
-54
-57
-58
-62
-64
-68
-72
-74
-79
-82
-85
-90
-93
-97
-98
-99
-100
-102
-102
-104
-103
-102
-100
-98
-94
-89
-84
-77
-70
-62
-54
-45
-37
-28
-19
-12
-4
2
8
13
20
25
30
35
37
40
41
43
43
42
42
41
40
38
37
36
33
32
31
28
27
26
25
22
21
21
20
18
18
17
17
16
16
15
15
13
13
13
12
12
11
10
7
6
6
5
3
5
3
3
2
2
2
2
3
6
12
17
23
32
42
51
60
67
70
70
66
58
48
38
28
16
6
-3
-9
-14
-15
-15
-14
-14
-13
-10
-7
3
21
50
96
161
241
327
401
441
428
361
256
137
32
-38
-74
-80
-74
-65
-57
-50
-49
-48
-47
-47
-45
-45
-45
-45
-45
-45
-45
-44
-43
-43
-43
-43
-43
-44
-44
-43
-43
-43
-43
-43
-44
-44
-44
-45
-45
-45
-47
-45
-47
-45
-45
-45
-45
-45
-47
-48
-50
-53
-55
-58
-60
-63
-65
-68
-72
-74
-77
-79
-83
-85
-87
-88
-89
-90
-92
-92
-93
-92
-90
-89
-85
-82
-78
-73
-67
-60
-52
-44
-35
-28
-20
-14
-7
0
5
11
15
20
23
27
28
32
33
36
37
38
37
37
37
36
36
33
32
31
30
28
26
25
23
21
20
20
18
17
16
15
15
12
12
11
10
8
7
5
5
5
5
5
5
5
3
3
3
3
3
3
3
3
3
3
3
3
3
3
3
3
3
3
3
3
3
3
3
2
2
1
1
0
0
0
0
0
0
0
1
2
5
10
15
21
28
37
46
53
58
61
62
58
52
43
33
22
11
1
-4
-10
-14
-17
-17
-17
-15
-14
-10
-4
10
33
72
127
198
280
357
410
420
376
290
177
68
-14
-63
-80
-79
-69
-59
-53
-50
-48
-45
-45
-44
-44
-43
-43
-42
-42
-42
-43
-43
-43
-43
-43
-43
-43
-43
-43
-43
-42
-43
-43
-43
-43
-43
-44
-45
-45
-47
-48
-48
-47
-47
-45
-45
-47
-47
-48
-49
-52
-53
-57
-58
-59
-60
-62
-64
-65
-67
-68
-69
-72
-73
-74
-74
-74
-75
-75
-77
-78
-78
-78
-78
-77
-74
-73
-69
-64
-57
-50
-43
-35
-29
-22
-14
-7
1
6
10
16
21
25
28
32
35
37
37
37
36
36
36
35
35
33
32
31
28
28
26
23
21
18
16
15
13
12
11
10
8
8
6
6
5
3
2
2
2
1
1
1
1
2
2
2
2
1
0
0
0
1
1
1
1
1
0
0
0
0
0
1
0
0
-2
-3
-3
-3
0
2
5
10
15
22
32
42
53
63
68
71
68
62
55
45
33
22
11
2
-5
-9
-13
-15
-17
-17
-14
-10
-4
5
22
48
91
148
222
305
381
430
433
387
296
183
76
-5
-53
-69
-69
-62
-54
-49
-47
-47
-47
-47
-45
-43
-42
-42
-40
-40
-40
-40
-40
-40
-39
-37
-37
-37
-37
-37
-38
-38
-39
-39
-38
-38
-38
-38
-39
-38
-39
-40
-39
-39
-40
-42
-43
-43
-44
-47
-48
-50
-53
-57
-59
-63
-67
-70
-74
-77
-79
-80
-84
-87
-89
-92
-93
-94
-95
-97
-98
-98
-98
-97
-94
-93
-89
-85
-82
-77
-70
-62
-54
-47
-38
-30
-22
-14
-9
-2
3
8
15
20
25
30
33
36
37
38
38
38
40
40
40
40
38
36
35
33
31
30
27
25
22
21
18
17
17
17
17
17
17
16
16
15
15
13
12
12
12
11
11
10
10
8
7
7
7
7
8
8
10
10
10
11
11
10
10
10
10
7
6
5
3
3
3
3
3
5
5
7
10
13
18
26
36
46
57
67
72
75
72
67
58
48
38
26
15
5
-4
-8
-12
-13
-13
-12
-10
-9
-5
1
13
38
77
133
206
291
371
425
433
390
300
185
73
-10
-60
-78
-77
-68
-59
-53
-49
-48
-47
-45
-45
-45
-45
-44
-45
-45
-45
-44
-44
-44
-44
-44
-44
-44
-44
-43
-43
-42
-42
-42
-42
-42
-43
-44
-44
-44
-45
-44
-45
-44
-44
-45
-45
-47
-48
-49
-52
-53
-55
-58
-60
-63
-65
-68
-70
-73
-74
-77
-79
-80
-83
-84
-87
-88
-90
-92
-93
-94
-94
-94
-92
-89
-85
-82
-77
-72
-65
-59
-50
-43
-35
-27
-20
-13
-5
1
7
13
20
25
30
33
36
36
38
40
41
41
41
41
40
38
37
36
33
30
27
26
25
23
22
20
18
17
17
16
16
15
15
13
12
11
11
8
8
8
7
7
7
6
6
7
6
6
5
5
5
5
5
3
5
5
3
2
2
2
2
2
2
2
3
5
8
13
20
28
38
48
58
66
71
72
70
65
57
46
35
22
11
0
-7
-12
-14
-15
-14
-13
-12
-9
-5
2
17
45
86
145
217
298
371
413
411
356
262
148
43
-30
-70
-82
-75
-65
-57
-52
-48
-47
-47
-45
-43
-43
-42
-40
-40
-42
-40
-42
-42
-43
-43
-42
-43
-43
-43
-42
-42
-42
-40
-40
-40
-42
-42
-43
-43
-43
-44
-45
-45
-47
-45
-45
-44
-45
-48
-49
-52
-54
-57
-59
-60
-63
-64
-67
-70
-74
-78
-82
-85
-88
-89
-90
-93
-95
-98
-99
-100
-100
-99
-99
-95
-93
-89
-84
-79
-74
-65
-58
-50
-40
-32
-23
-14
-8
0
6
11
16
21
25
27
31
33
37
38
41
42
41
42
42
40
37
36
33
32
30
28
27
26
25
22
20
17
16
15
13
13
15
15
15
15
15
15
13
11
11
10
10
10
10
11
11
11
10
8
7
6
5
5
3
5
5
5
5
3
2
1
1
1
3
6
10
16
23
31
41
51
61
67
72
73
71
65
56
45
31
18
8
0
-7
-9
-12
-13
-13
-13
-13
-12
-7
1
20
47
90
151
227
312
387
433
433
381
285
171
65
-13
-58
-73
-72
-63
-55
-50
-48
-45
-45
-45
-45
-45
-44
-44
-44
-43
-42
-40
-39
-39
-39
-38
-38
-38
-35
-35
-35
-35
-35
-35
-35
-37
-38
-39
-40
-40
-42
-42
-42
-40
-40
-39
-39
-40
-42
-44
-47
-49
-50
-53
-55
-59
-63
-67
-70
-74
-77
-80
-83
-85
-88
-90
-93
-94
-95
-95
-95
-94
-93
-93
-90
-88
-84
-79
-74
-67
-60
-53
-47
-38
-30
-24
-17
-10
-4
1
5
10
15
20
23
26
27
30
31
32
33
33
33
33
32
31
30
28
26
25
23
22
22
21
21
20
20
20
18
18
17
17
16
16
16
15
15
15
13
13
12
12
12
12
12
11
11
11
8
8
7
6
6
6
5
5
6
6
8
11
13
18
25
33
41
51
61
70
73
75
72
66
57
46
36
25
13
3
-4
-8
-10
-12
-12
-12
-10
-9
-5
2
17
43
83
142
216
301
377
423
425
372
277
161
55
-22
-64
-78
-73
-63
-53
-48
-44
-43
-42
-42
-42
-39
-39
-39
-40
-40
-40
-42
-42
-42
-42
-42
-42
-42
-40
-42
-42
-42
-43
-43
-43
-44
-44
-45
-45
-45
-45
-44
-45
-45
-45
-47
-47
-48
-49
-50
-52
-53
-54
-57
-59
-62
-64
-68
-72
-74
-78
-82
-85
-89
-93
-95
-98
-99
-100
-100
-100
-100
-100
-98
-95
-93
-89
-84
-77
-70
-63
-54
-47
-38
-30
-22
-14
-7
1
7
12
17
22
27
31
33
36
38
38
38
38
38
36
36
35
33
32
31
30
27
26
25
22
21
20
20
18
18
17
18
17
17
16
16
15
13
12
12
11
11
11
11
11
11
10
10
10
8
8
7
6
6
5
5
5
5
5
6
7
10
15
21
28
38
48
57
66
71
73
71
66
57
47
36
23
12
2
-5
-10
-13
-14
-14
-13
-12
-10
-8
-3
11
33
70
122
192
271
348
402
413
372
287
176
68
-14
-64
-80
-78
-67
-57
-49
-45
-44
-44
-43
-43
-42
-40
-39
-39
-39
-39
-39
-39
-39
-39
-39
-38
-38
-37
-37
-37
-37
-37
-37
-37
-38
-39
-39
-40
-40
-40
-40
-39
-40
-39
-40
-42
-42
-43
-44
-47
-48
-49
-52
-55
-58
-60
-63
-65
-68
-69
-72
-74
-78
-82
-85
-87
-89
-89
-89
-90
-89
-88
-87
-84
-80
-77
-73
-68
-63
-57
-49
-43
-35
-28
-20
-12
-4
2
8
15
21
25
28
32
36
38
40
41
42
41
42
41
38
37
36
33
33
32
31
30
27
26
23
21
20
20
18
17
16
15
15
15
15
13
12
12
11
10
10
8
8
7
7
7
6
5
3
3
2
2
1
-2
-2
-2
-3
-2
-2
1
3
7
12
20
27
37
47
57
63
68
68
66
60
51
42
31
20
8
0
-8
-13
-14
-15
-14
-13
-13
-12
-9
0
17
46
90
148
222
305
377
420
417
363
268
156
52
-22
-63
-75
-70
-62
-54
-48
-44
-43
-42
-42
-42
-42
-40
-42
-42
-42
-42
-40
-39
-38
-35
-35
-35
-37
-38
-39
-39
-40
-40
-40
-40
-40
-40
-40
-39
-39
-40
-40
-40
-42
-42
-44
-44
-44
-45
-45
-47
-48
-50
-52
-55
-58
-62
-67
-70
-74
-78
-80
-83
-85
-87
-89
-92
-93
-94
-97
-97
-95
-93
-92
-89
-85
-82
-78
-72
-65
-58
-50
-43
-35
-28
-19
-12
-7
1
7
13
20
25
30
33
37
40
43
46
46
45
43
43
41
40
38
38
37
35
33
31
30
27
26
23
22
20
20
18
18
17
17
16
16
15
13
12
12
12
11
11
11
10
10
8
8
6
6
6
5
3
3
2
2
3
3
3
6
7
11
16
22
31
41
51
61
70
75
75
72
65
57
46
35
22
11
0
-8
-13
-14
-15
-15
-14
-14
-12
-8
2
17
46
88
150
225
308
383
427
425
370
272
158
53
-22
-65
-77
-72
-62
-54
-48
-45
-44
-44
-43
-43
-42
-40
-40
-40
-40
-40
-39
-39
-39
-39
-39
-39
-38
-38
-38
-39
-39
-39
-40
-40
-42
-40
-42
-42
-43
-42
-43
-43
-43
-42
-43
-44
-45
-45
-47
-49
-52
-53
-55
-58
-60
-63
-65
-70
-73
-75
-78
-82
-85
-88
-89
-90
-92
-92
-92
-93
-93
-92
-90
-89
-87
-83
-79
-73
-65
-58
-49
-40
-33
-25
-18
-12
-5
0
6
11
17
22
27
31
33
36
38
38
40
40
40
40
38
37
36
35
33
31
30
28
27
25
23
22
20
18
18
17
17
17
16
16
15
13
12
11
10
10
8
8
8
7
7
6
6
5
3
2
2
1
1
1
1
2
5
8
12
18
26
35
43
53
62
68
72
71
67
61
51
41
28
16
5
-4
-12
-17
-18
-18
-17
-15
-14
-12
-7
1
20
50
96
158
236
318
386
418
401
333
228
116
21
-44
-73
-77
-69
-58
-50
-45
-43
-42
-40
-39
-39
-39
-40
-40
-40
-42
-42
-40
-40
-40
-40
-40
-40
-40
-40
-39
-39
-39
-39
-40
-40
-40
-42
-42
-43
-42
-43
-42
-43
-42
-40
-42
-40
-42
-43
-45
-47
-49
-52
-55
-58
-60
-63
-65
-69
-72
-74
-78
-82
-84
-88
-92
-94
-94
-97
-95
-94
-93
-90
-89
-85
-83
-78
-74
-68
-62
-54
-47
-38
-30
-23
-15
-8
-2
5
8
15
20
25
28
31
35
37
38
40
40
40
38
37
37
36
33
32
28
27
26
26
25
23
22
20
17
16
13
13
13
12
12
11
10
8
7
6
6
5
5
5
5
3
3
3
3
3
3
2
1
1
0
-2
-2
0
0
0
0
1
2
5
10
17
26
36
46
56
63
68
70
67
61
52
41
30
17
5
-5
-12
-15
-18
-19
-18
-17
-15
-13
-10
-2
15
41
82
140
212
293
366
410
407
353
260
146
45
-28
-69
-79
-74
-64
-55
-50
-47
-45
-43
-40
-39
-37
-34
-34
-33
-33
-33
-33
-33
-33
-33
-32
-32
-32
-32
-32
-33
-33
-33
-34
-34
-34
-35
-35
-35
-37
-35
-37
-38
-39
-39
-39
-40
-42
-43
-44
-48
-49
-52
-54
-57
-59
-62
-64
-68
-70
-74
-78
-79
-80
-83
-83
-84
-84
-85
-85
-85
-85
-84
-83
-80
-78
-74
-69
-63
-58
-49
-43
-34
-27
-19
-13
-5
0
6
12
17
23
28
32
36
38
40
41
41
41
40
38
38
37
37
36
35
33
30
28
27
25
22
20
17
16
16
16
15
16
16
16
17
17
17
17
18
18
18
18
18
17
16
15
13
11
8
7
3
1
-3
-4
-5
-5
-4
0
2
6
11
17
26
35
45
55
63
70
73
73
68
61
52
40
27
15
2
-5
-12
-15
-18
-18
-18
-18
-17
-14
-9
2
21
55
101
165
240
316
376
398
372
297
193
85
-4
-58
-82
-82
-73
-62
-54
-49
-47
-45
-44
-43
-43
-42
-40
-40
-40
-39
-39
-39
-39
-39
-39
-38
-38
-38
-38
-38
-39
-38
-38
-38
-37
-37
-37
-38
-38
-38
-40
-40
-42
-43
-43
-43
-44
-44
-45
-45
-47
-49
-52
-55
-59
-62
-65
-68
-73
-75
-80
-84
-85
-89
-90
-92
-93
-94
-94
-93
-92
-92
-90
-88
-85
-83
-79
-73
-67
-60
-53
-45
-37
-29
-20
-13
-7
1
5
11
16
21
25
28
32
36
37
38
40
38
40
37
37
36
36
33
31
30
28
27
27
26
23
23
22
22
21
20
20
18
17
16
15
13
13
13
15
15
13
13
12
11
10
10
7
7
6
6
5
3
3
3
5
6
8
12
16
21
28
38
50
61
71
76
77
73
67
58
47
35
22
10
0
-8
-13
-14
-14
-14
-13
-12
-10
-8
1
17
42
83
141
213
295
370
418
423
378
288
178
71
-9
-57
-74
-74
-65
-57
-50
-48
-45
-45
-44
-44
-43
-43
-42
-43
-43
-42
-42
-42
-40
-40
-40
-40
-42
-42
-40
-40
-40
-40
-40
-42
-42
-43
-43
-43
-43
-42
-42
-42
-42
-43
-42
-42
-43
-44
-45
-48
-50
-50
-54
-57
-59
-60
-63
-65
-68
-70
-75
-79
-82
-85
-87
-88
-88
-88
-88
-87
-87
-85
-85
-82
-79
-74
-69
-63
-57
-50
-44
-37
-30
-23
-17
-12
-5
1
6
11
17
22
26
30
32
35
37
37
38
38
37
35
35
32
32
31
31
30
28
27
25
23
22
21
20
18
17
17
17
16
16
15
13
13
12
11
10
8
8
8
7
7
7
6
6
5
5
3
3
2
2
1
1
0
1
2
5
8
15
21
30
40
50
58
66
70
70
66
60
51
41
30
17
6
-4
-13
-18
-20
-19
-18
-15
-13
-9
-4
2
20
47
92
153
231
312
383
422
413
352
253
140
40
-30
-70
-82
-77
-68
-60
-55
-52
-50
-50
-50
-49
-48
-45
-44
-43
-43
-44
-44
-45
-45
-47
-47
-45
-44
-44
-43
-43
-44
-44
-44
-44
-44
-43
-43
-43
-43
-43
-44
-44
-44
-45
-44
-43
-43
-44
-45
-47
-50
-53
-55
-57
-58
-60
-64
-68
-73
-78
-82
-84
-88
-89
-90
-93
-95
-97
-99
-100
-99
-98
-94
-92
-87
-83
-79
-73
-68
-60
-50
-42
-32
-24
-17
-10
-4
2
6
11
16
22
28
32
36
38
41
42
43
46
46
45
43
41
40
38
36
36
36
35
33
32
30
28
27
25
25
23
22
21
21
20
18
18
18
17
17
17
17
16
15
13
11
10
10
8
7
7
6
5
5
5
6
7
10
13
16
20
26
33
43
56
66
72
77
77
73
66
56
43
31
17
6
-3
-10
-15
-19
-18
-18
-17
-14
-10
-4
6
27
61
111
177
260
346
416
450
432
363
256
137
36
-33
-69
-78
-74
-67
-59
-54
-53
-52
-52
-50
-49
-48
-47
-45
-45
-47
-47
-47
-45
-45
-45
-47
-47
-47
-45
-45
-45
-45
-47
-48
-49
-50
-50
-49
-48
-48
-45
-45
-48
-48
-49
-49
-50
-50
-52
-54
-57
-59
-63
-65
-68
-70
-73
-75
-79
-82
-85
-89
-92
-95
-98
-99
-99
-99
-99
-99
-99
-98
-97
-94
-92
-88
-84
-79
-73
-67
-58
-50
-40
-33
-23
-14
-7
0
6
11
16
20
25
30
33
38
40
42
42
42
42
42
40
38
37
36
35
32
31
30
28
27
25
23
21
20
18
17
17
17
15
15
13
15
15
15
15
13
13
12
12
11
10
7
6
5
3
2
2
2
2
2
2
2
3
3
6
10
15
22
32
42
52
61
66
68
66
61
52
43
32
21
10
1
-8
-14
-17
-19
-19
-18
-17
-14
-10
-4
8
30
67
120
192
276
360
422
440
405
321
207
92
1
-57
-80
-82
-74
-64
-57
-54
-52
-50
-50
-49
-49
-48
-48
-45
-45
-45
-44
-44
-44
-44
-44
-44
-45
-45
-45
-45
-45
-45
-45
-45
-47
-47
-48
-47
-47
-48
-48
-47
-45
-47
-45
-44
-45
-45
-47
-49
-52
-54
-57
-59
-63
-65
-68
-73
-75
-79
-83
-88
-92
-94
-97
-99
-100
-100
-100
-99
-100
-99
-98
-95
-93
-90
-85
-79
-72
-64
-55
-48
-40
-30
-23
-15
-7
1
7
13
20
25
30
32
36
40
41
43
43
43
42
43
42
40
40
38
37
33
32
31
30
28
26
23
22
21
20
18
18
17
17
16
16
15
15
15
13
13
13
13
12
12
12
12
10
8
7
6
5
5
3
3
3
5
5
5
7
10
13
20
28
38
48
58
66
71
72
70
65
57
47
36
25
13
3
-3
-8
-12
-13
-13
-13
-12
-10
-9
-2
10
32
68
121
191
273
355
412
427
390
305
191
81
-7
-59
-78
-77
-68
-58
-50
-45
-44
-43
-43
-43
-43
-44
-44
-44
-44
-44
-44
-44
-44
-44
-44
-44
-44
-44
-45
-45
-47
-47
-47
-45
-45
-44
-44
-43
-43
-44
-44
-44
-45
-45
-44
-44
-44
-43
-43
-44
-47
-49
-52
-54
-57
-60
-63
-67
-70
-74
-75
-77
-79
-80
-83
-87
-89
-92
-93
-94
-93
-94
-93
-90
-87
-82
-75
-70
-65
-60
-54
-47
-39
-30
-19
-10
-4
2
8
13
17
22
23
27
30
33
37
40
43
43
45
42
41
38
36
33
32
31
28
27
23
22
21
20
18
17
16
16
13
12
11
11
10
11
11
13
13
12
11
10
7
6
5
5
5
5
6
7
8
8
7
7
5
1
0
-2
-2
0
2
5
7
10
12
15
20
26
33
45
56
66
72
75
72
66
57
46
33
21
10
0
-8
-13
-15
-15
-15
-15
-15
-13
-9
0
15
42
83
143
218
305
385
438
448
405
313
198
88
2
-47
-67
-69
-62
-55
-50
-48
-47
-44
-43
-42
-42
-42
-42
-42
-40
-39
-38
-37
-37
-37
-37
-38
-39
-39
-39
-38
-37
-35
-35
-35
-37
-37
-38
-39
-40
-42
-42
-43
-42
-40
-40
-40
-43
-44
-45
-48
-50
-53
-55
-57
-59
-63
-65
-69
-73
-77
-80
-85
-88
-92
-94
-98
-100
-102
-103
-103
-103
-103
-100
-98
-95
-92
-87
-83
-77
-69
-63
-54
-45
-38
-30
-23
-17
-10
-4
1
7
13
18
22
26
31
33
37
38
41
41
41
40
38
38
36
36
36
35
33
32
30
28
27
26
26
25
25
25
25
25
25
23
23
22
21
21
20
18
17
17
17
17
16
16
13
12
11
10
8
7
5
3
3
2
2
3
5
8
12
17
25
33
42
52
61
68
72
72
68
62
53
43
32
21
10
0
-9
-14
-17
-18
-18
-17
-15
-14
-10
-3
13
40
82
143
223
313
398
453
460
410
311
188
71
-15
-64
-80
-78
-67
-59
-53
-50
-49
-49
-48
-47
-47
-47
-47
-45
-45
-47
-47
-47
-47
-45
-47
-47
-47
-47
-48
-48
-47
-47
-47
-47
-47
-47
-45
-45
-45
-44
-45
-44
-45
-45
-45
-45
-47
-48
-49
-50
-52
-54
-57
-59
-62
-64
-68
-72
-74
-78
-80
-83
-85
-87
-88
-90
-90
-92
-92
-92
-93
-93
-93
-92
-90
-87
-83
-77
-69
-62
-53
-44
-34
-25
-17
-9
-2
5
11
17
23
28
33
37
41
45
47
48
50
50
50
48
48
46
45
43
40
37
35
31
27
26
23
23
22
21
21
20
20
20
17
16
17
16
16
16
15
13
12
11
10
8
10
8
8
7
7
6
6
7
7
8
7
6
6
5
3
2
2
1
1
1
2
2
3
6
8
13
20
27
36
46
56
65
70
72
70
65
58
48
37
26
15
2
-7
-13
-15
-18
-19
-19
-18
-15
-13
-8
3
25
57
108
177
261
345
412
440
412
333
221
105
8
-54
-80
-83
-75
-64
-58
-54
-52
-50
-49
-48
-47
-47
-47
-45
-45
-45
-45
-45
-45
-45
-45
-45
-45
-45
-44
-44
-44
-44
-45
-44
-44
-44
-45
-45
-44
-44
-43
-43
-43
-42
-43
-43
-44
-45
-47
-48
-49
-50
-53
-55
-58
-60
-64
-65
-68
-69
-72
-75
-78
-80
-83
-85
-87
-87
-87
-88
-87
-87
-87
-85
-83
-80
-75
-70
-65
-58
-50
-42
-34
-25
-18
-9
-2
6
10
16
22
26
30
32
35
37
38
40
41
41
41
40
38
38
36
33
32
31
28
26
23
22
20
17
16
15
12
12
11
11
11
10
8
7
6
6
5
5
5
5
5
5
3
3
3
3
3
5
3
3
3
2
2
1
1
0
-2
-3
-3
-4
-4
-4
-5
-4
-3
-2
0
2
6
12
20
30
40
48
57
63
66
65
61
55
45
33
22
10
0
-9
-17
-22
-24
-23
-22
-20
-19
-15
-9
3
25
60
110
178
257
336
393
412
380
300
191
80
-7
-60
-83
-82
-73
-60
-53
-49
-47
-45
-44
-44
-43
-43
-43
-42
-42
-42
-42
-42
-40
-40
-40
-40
-40
-40
-40
-39
-38
-38
-37
-37
-37
-38
-39
-40
-42
-40
-42
-43
-42
-43
-43
-44
-45
-45
-48
-49
-50
-53
-55
-58
-60
-63
-64
-67
-69
-72
-74
-77
-78
-82
-84
-85
-87
-87
-88
-89
-90
-89
-89
-88
-87
-84
-79
-75
-68
-63
-55
-47
-39
-32
-23
-14
-7
1
6
11
16
21
26
30
33
37
40
40
41
42
42
42
41
40
40
37
35
32
31
28
26
25
22
21
18
17
16
15
13
13
13
13
13
12
12
11
10
10
8
8
7
6
7
8
8
8
8
7
7
6
6
5
3
3
3
3
2
1
1
1
1
1
2
3
6
10
15
22
31
40
50
60
68
73
75
72
66
57
46
35
23
12
2
-4
-10
-14
-14
-15
-14
-13
-10
-8
1
18
43
86
142
215
293
365
407
403
352
258
148
47
-24
-63
-75
-70
-60
-53
-48
-45
-45
-44
-43
-42
-42
-42
-42
-40
-39
-39
-38
-38
-39
-38
-38
-38
-39
-39
-40
-40
-40
-40
-42
-42
-43
-44
-44
-45
-45
-44
-43
-42
-42
-40
-42
-42
-43
-45
-48
-50
-53
-55
-58
-60
-63
-65
-68
-70
-72
-74
-75
-77
-79
-82
-84
-88
-88
-89
-90
-89
-90
-89
-88
-85
-83
-79
-75
-70
-65
-59
-52
-43
-34
-25
-18
-10
-5
1
5
11
17
23
28
32
36
38
40
41
42
43
43
41
38
37
36
33
31
30
28
26
23
22
21
20
18
17
16
15
15
13
13
12
12
11
11
11
10
10
8
7
7
7
7
7
6
6
6
6
5
3
3
1
1
1
1
2
2
2
1
1
2
5
10
16
23
33
45
56
66
72
75
73
67
58
48
37
26
15
5
-3
-10
-15
-18
-19
-17
-15
-13
-9
-3
11
32
68
120
188
268
348
408
428
398
321
212
102
12
-44
-72
-74
-69
-63
-57
-53
-50
-49
-48
-48
-47
-47
-45
-44
-42
-42
-42
-43
-44
-44
-44
-44
-44
-43
-42
-42
-42
-42
-42
-43
-43
-43
-43
-43
-43
-43
-43
-44
-43
-42
-43
-42
-43
-44
-47
-49
-50
-52
-54
-55
-58
-62
-64
-67
-72
-75
-79
-83
-85
-88
-89
-92
-93
-94
-94
-93
-93
-92
-92
-89
-87
-83
-79
-74
-68
-62
-54
-47
-38
-30
-23
-15
-9
-3
2
6
10
15
20
22
26
30
31
33
33
33
33
35
33
33
33
33
32
31
30
28
27
26
25
23
22
21
21
20
20
18
16
17
16
15
15
15
15
13
13
13
12
12
11
11
8
8
8
7
7
6
5
3
3
2
3
6
10
16
22
32
42
53
62
71
75
75
72
66
57
46
35
23
11
1
-7
-12
-15
-17
-15
-13
-12
-10
-7
1
17
43
86
147
225
313
395
445
445
391
290
170
58
-23
-68
-82
-78
-67
-58
-52
-49
-48
-48
-47
-45
-45
-45
-45
-44
-44
-44
-44
-44
-43
-43
-40
-40
-40
-40
-40
-40
-40
-42
-43
-44
-44
-45
