-3.1626287e-03
1.8754503e-02
2.3135896e-02
1.0690080e-02
-4.6020400e-04
6.9738507e-03
3.0478254e-02
5.2531210e-02
6.2429841e-02
6.7915534e-02
7.7957165e-02
8.0547573e-02
5.6202113e-02
2.9356820e-03
-5.9734013e-02
-1.0919495e-01
-1.4346003e-01
-1.7787340e-01
-2.1697939e-01
-2.4114933e-01
-2.3277732e-01
-2.0501590e-01
-1.8512930e-01
-1.7635030e-01
-1.3919205e-01
-6.3455344e-02
-8.0396032e-03
-2.5803360e-03
-2.3849282e-02
-4.1702947e-02
-3.7644999e-02
-1.5732005e-02
9.5461518e-03
3.1976719e-02
5.9589525e-02
9.9450786e-02
1.3819535e-01
1.5181349e-01
1.3967804e-01
1.2957735e-01
1.4230224e-01
1.6719695e-01
1.8229142e-01
1.8412913e-01
1.8578963e-01
1.9467706e-01
1.9432275e-01
1.6038362e-01
8.7823941e-02
-2.4786263e-02
-1.4395974e-01
-2.0556833e-01
-2.1067039e-01
-1.8788141e-01
-1.3560134e-01
-6.2794101e-02
-1.2541989e-03
2.4480892e-02
1.7844879e-02
-9.9255722e-04
-1.7888586e-02
-3.2091595e-02
-3.9711735e-02
-2.7660841e-02
1.2112620e-02
7.1105691e-02
1.2333711e-01
1.4217188e-01
1.2541191e-01
9.4993306e-02
6.9959881e-02
4.9056199e-02
2.1807693e-02
-7.6697872e-03
-1.9350969e-02
-4.9679165e-03
1.9195647e-02
3.4424459e-02
4.3062806e-02
6.1871612e-02
9.5896956e-02
1.2909918e-01
1.4279257e-01
1.3373006e-01
1.1204542e-01
8.4256687e-02
4.0153846e-02
-2.9748254e-02
-1.1386098e-01
-1.8873468e-01
-2.4244500e-01
-2.8441546e-01
-3.2668103e-01
-3.6241368e-01
-3.7285064e-01
-3.5395726e-01
-3.2074638e-01
-2.8269672e-01
-2.2190120e-01
-9.4104104e-02
8.0376744e-02
2.0150535e-01
2.3275947e-01
2.1330254e-01
1.8480350e-01
1.6607479e-01
1.4681868e-01
1.1325615e-01
7.0036106e-02
3.6192803e-02
2.0430347e-02
1.2383096e-02
4.7381071e-03
9.6010892e-03
4.0507460e-02
8.7287560e-02
1.2577667e-01
1.4448297e-01
1.5365360e-01
1.6929460e-01
1.8673984e-01
1.8200799e-01
1.4215121e-01
7.8608643e-02
8.7921941e-03
-5.1727324e-02
-9.4348438e-02
-1.2740458e-01
-1.5239666e-01
-1.5856430e-01
-1.4816444e-01
-1.3697587e-01
-1.3344618e-01
-1.2582836e-01
-9.5842324e-02
-4.4094517e-02
9.7363216e-03
5.3006401e-02
9.7075070e-02
1.6646183e-01
2.6207314e-01
3.4199503e-01
3.6549473e-01
3.3591428e-01
2.8190317e-01
2.2152912e-01
1.5235040e-01
6.6298035e-02
-3.7866955e-02
-1.6896624e-01
-3.0592394e-01
-3.9549861e-01
-4.3732001e-01
-4.4907071e-01
-4.2183629e-01
-3.6129352e-01
-2.9832454e-01
-2.5611263e-01
-2.2433315e-01
-1.7992234e-01
-1.1515166e-01
-3.6919232e-02
5.0493524e-02
1.4880186e-01
2.5517399e-01
3.4844743e-01
3.9688455e-01
3.9164952e-01
3.5339795e-01
3.1587863e-01
3.0234382e-01
3.0295647e-01
3.0129853e-01
2.9841708e-01
2.7897007e-01
2.2575394e-01
1.5110498e-01
6.3393466e-02
-2.9534892e-02
-1.1077645e-01
-1.7722057e-01
-2.3498799e-01
-2.8116465e-01
-3.0075302e-01
-2.8102365e-01
-2.3017787e-01
-1.7819295e-01
-1.4845422e-01
-1.3388064e-01
-1.1387487e-01
-8.9090115e-02
-7.5373988e-02
-7.4259136e-02
-7.1064000e-02
-5.4838692e-02
-3.4983791e-02
-3.2065337e-02
-4.9647830e-02
-6.1496109e-02
-3.0239283e-02
3.1630072e-02
6.5523720e-02
5.7178282e-02
3.7414690e-02
3.1595359e-02
4.1475270e-02
4.6673652e-02
3.3493312e-02
1.4027686e-02
1.0550896e-02
2.5809721e-02
3.9068296e-02
3.3793771e-02
1.4597031e-02
-6.2198366e-03
-2.6518180e-02
-5.4164960e-02
-8.8006225e-02
-1.0967029e-01
-1.0137002e-01
-6.5851898e-02
-2.4096828e-02
8.5389180e-03
3.9405156e-02
8.1763076e-02
1.2718945e-01
1.5354731e-01
1.5108377e-01
1.3173731e-01
1.1616448e-01
1.0885374e-01
9.6470222e-02
7.2708228e-02
4.9280592e-02
3.9360562e-02
3.8728947e-02
2.8342646e-02
-4.5953332e-03
-4.9346276e-02
-8.3018026e-02
-1.0239750e-01
-1.2421310e-01
-1.5346658e-01
-1.7547601e-01
-1.7650802e-01
-1.6121276e-01
-1.4531956e-01
-1.3066328e-01
-9.5670164e-02
-1.0068312e-02
1.0893213e-01
1.9648774e-01
2.3001892e-01
2.3586267e-01
2.3675794e-01
2.3133576e-01
2.0001194e-01
1.3299892e-01
5.0329544e-02
-1.6561976e-02
-6.1647867e-02
-1.0023009e-01
-1.3707931e-01
-1.5806753e-01
-1.4877835e-01
-1.1523254e-01
-8.1520335e-02
-6.2917204e-02
-4.9808523e-02
-2.8398368e-02
-8.5635085e-03
-1.2181369e-02
-4.1259943e-02
-6.9088706e-02
-4.7959235e-02
1.5798087e-02
4.4740962e-02
1.4024641e-02
-3.5448796e-02
-6.8696511e-02
-7.6865267e-02
-7.3535045e-02
-7.2169228e-02
-6.8910270e-02
-4.9696829e-02
-1.2671290e-02
2.6862410e-02
5.9223696e-02
9.2288111e-02
1.3300339e-01
1.6978994e-01
1.8003158e-01
1.5447689e-01
1.0759251e-01
6.1000654e-02
1.9682708e-02
-2.5576941e-02
-7.3209484e-02
-1.0221623e-01
-8.9617412e-02
-4.3465726e-02
-1.7047787e-03
1.3942900e-02
1.5393205e-02
2.5599561e-02
4.9814185e-02
7.0005653e-02
7.2571206e-02
6.6637698e-02
6.9642318e-02
7.8342684e-02
6.8005453e-02
2.6885731e-02
-2.4628891e-02
-5.5053897e-02
-5.6995984e-02
-5.0471964e-02
-5.1075394e-02
-4.8806987e-02
-2.4444925e-02
1.8369247e-02
5.1915836e-02
5.8315107e-02
4.6288797e-02
2.9227945e-02
1.5407900e-02
8.2273914e-03
-2.8615193e-03
-2.0771997e-02
-3.3632904e-02
-3.9950216e-02
-5.2261893e-02
-7.8536693e-02
-1.0631877e-01
-1.1461381e-01
-1.0014239e-01
-8.0041418e-02
-6.5725389e-02
-4.6725654e-02
-9.0802352e-03
4.2811575e-02
8.8768465e-02
1.1547143e-01
1.3281775e-01
1.6112339e-01
2.0262202e-01
2.2993304e-01
2.1754454e-01
1.7295354e-01
1.1327089e-01
5.4687526e-02
1.2403455e-02
-2.1613708e-02
-5.4867383e-02
-7.5109719e-02
-7.6289513e-02
-7.0503934e-02
-6.7423074e-02
-5.6939846e-02
-2.6403821e-02
1.6611970e-02
4.8155396e-02
5.2332838e-02
3.7750078e-02
2.4703366e-02
1.5904242e-02
-9.0331094e-03
-6.5709976e-02
-1.4378418e-01
-2.1781932e-01
-2.7682636e-01
-3.3232874e-01
-3.8316738e-01
-3.8929088e-01
-2.8629094e-01
-9.8663378e-02
4.6288406e-02
9.8703942e-02
9.8307278e-02
8.6460486e-02
8.6230603e-02
9.4273689e-02
1.0025869e-01
1.0267507e-01
1.0893479e-01
1.2229652e-01
1.3020957e-01
1.1617194e-01
8.3698188e-02
5.4312967e-02
3.7002701e-02
1.8398288e-02
-1.3290563e-02
-4.8769069e-02
-6.7318561e-02
-6.0810920e-02
-4.0510004e-02
-2.2616185e-02
-1.0296577e-02
7.9042946e-03
3.8145451e-02
6.7679919e-02
8.0922677e-02
8.0021945e-02
7.9463047e-02
8.5503117e-02
8.4754483e-02
5.8779137e-02
1.0954070e-02
-3.3041721e-02
-5.5329626e-02
-6.6129894e-02
-8.3011236e-02
-1.0334857e-01
-1.0781158e-01
-8.4087511e-02
-4.6163577e-02
-2.0014028e-02
-1.2733096e-02
-8.7500059e-03
6.7032016e-03
2.7944738e-02
4.0162558e-02
4.3594693e-02
5.2951983e-02
7.2331339e-02
8.4389414e-02
7.2434389e-02
3.8279292e-02
-1.6169372e-03
-3.3455799e-02
-6.1915537e-02
-9.6424889e-02
-1.3065513e-01
-1.4723505e-01
-1.3370689e-01
-9.6105574e-02
-5.4699261e-02
-2.1373081e-02
8.8343658e-03
4.2873889e-02
7.2416311e-02
8.3954588e-02
8.0632604e-02
7.8363439e-02
8.6910354e-02
9.7325587e-02
9.2118506e-02
6.8162688e-02
3.7251932e-02
9.6511501e-03
-1.5038597e-02
-4.4420565e-02
-7.6536682e-02
-9.1828680e-02
-7.5366327e-02
-3.9185839e-02
-1.1007950e-02
-6.6451467e-03
-1.6687047e-02
-2.2522028e-02
-1.9792514e-02
-1.6620221e-02
-1.2973083e-02
8.6994657e-03
6.0282538e-02
1.2595847e-01
1.7601109e-01
1.9424427e-01
1.8827953e-01
1.7415193e-01
1.5206838e-01
1.0901068e-01
4.4557883e-02
-2.7014998e-02
-8.0895063e-02
-9.9133794e-02
-9.8643435e-02
-1.0245509e-01
-1.0947485e-01
-1.0898777e-01
-1.0140296e-01
-9.6398972e-02
-9.1712250e-02
-7.2993556e-02
-3.7452482e-02
-2.8597255e-03
9.9758069e-03
-2.5731852e-03
-2.5476387e-02
-4.1452533e-02
-4.8783130e-02
-6.1553991e-02
-8.5696067e-02
-1.0450841e-01
-9.9107117e-02
-7.3590521e-02
-4.7456888e-02
-2.9693504e-02
-1.1176737e-02
2.0813865e-02
6.0382036e-02
8.8115160e-02
9.7768850e-02
1.0272599e-01
1.1641079e-01
1.3044248e-01
1.2359961e-01
8.9616271e-02
4.5496511e-02
9.9351407e-03
-1.9717024e-02
-5.7654600e-02
-1.0081919e-01
-1.2668150e-01
-1.1839592e-01
-8.2212323e-02
-4.0871240e-02
-1.2738328e-02
2.5085548e-03
1.7204540e-02
3.3192618e-02
4.2298771e-02
4.7057899e-02
6.7387499e-02
1.0892008e-01
1.4037010e-01
1.3796864e-01
1.0813876e-01
7.0368172e-02
4.4469496e-02
2.9544034e-02
5.2404775e-03
-3.5984360e-02
-7.4285235e-02
-8.9319304e-02
-8.3735136e-02
-7.2362167e-02
-6.1993740e-02
-4.5483650e-02
-1.2877571e-02
3.0672548e-02
6.7074319e-02
8.9852310e-02
1.1243719e-01
1.4790481e-01
1.8565759e-01
1.9774810e-01
1.6808135e-01
1.0524250e-01
4.2620115e-02
6.8666517e-03
-1.8079012e-02
-5.5398900e-02
-9.8260821e-02
-1.2823138e-01
-1.4417103e-01
-1.6143463e-01
-1.8689118e-01
-2.0580196e-01
-1.9712835e-01
-1.6128542e-01
-1.1877459e-01
-8.3892991e-02
-5.1134428e-02
-1.0859176e-02
2.7182254e-02
3.9161715e-02
1.4209589e-02
-3.1647621e-02
-7.4211497e-02
-1.0682767e-01
-1.3275483e-01
-1.3464565e-01
-6.1022458e-02
8.7044762e-02
2.3177021e-01
3.4102773e-01
4.3332607e-01
5.2475414e-01
6.2276515e-01
7.1568159e-01
7.7998026e-01
8.0351832e-01
8.0040881e-01
8.0177605e-01
8.2951618e-01
8.7259516e-01
9.0489776e-01
9.2166742e-01
9.3690133e-01
9.4288361e-01
8.9081044e-01
7.2775737e-01
4.3493140e-01
3.1380939e-02
-4.4316450e-01
-9.3357944e-01
-1.3322121e+00
-1.4461388e+00
-1.2897845e+00
-1.1576321e+00
-1.1512828e+00
-1.1816058e+00
-1.2039755e+00
-1.1938676e+00
-1.1435045e+00
-1.0646839e+00
-9.7005799e-01
-8.5386960e-01
-6.9932301e-01
-5.0317330e-01
-2.8890380e-01
-9.0355834e-02
7.7780749e-02
2.3050346e-01
3.7492915e-01
4.7776704e-01
5.1005379e-01
4.9622612e-01
4.8383471e-01
4.9120230e-01
5.0890991e-01
5.2517222e-01
5.2558271e-01
5.1022624e-01
4.9160759e-01
4.5221323e-01
3.6697443e-01
2.4281936e-01
1.0665647e-01
-2.3658539e-02
-1.5209085e-01
-2.8120079e-01
-3.8557536e-01
-4.2739969e-01
-3.9230716e-01
-2.9838732e-01
-1.7786283e-01
-5.7181185e-02
4.7894105e-02
1.2884761e-01
1.8482891e-01
2.3095941e-01
2.9083623e-01
3.6808653e-01
4.3379819e-01
4.4013324e-01
3.4679586e-01
1.2278508e-01
-1.6857827e-01
-3.7486574e-01
-4.5858010e-01
-4.7009086e-01
-4.3119814e-01
-3.5941077e-01
-2.7923586e-01
-2.1726882e-01
-1.8464796e-01
-1.6663346e-01
-1.4357283e-01
-1.1471128e-01
-9.3343270e-02
-8.1619231e-02
-6.3525484e-02
-2.8891355e-02
4.2245175e-03
1.3254079e-02
1.8624546e-03
-9.9471416e-03
-5.3955962e-03
9.4267578e-03
1.1016956e-02
-6.4272206e-03
-2.0774725e-02
-1.6880157e-02
-1.0967939e-02
-2.0117864e-02
-3.6084803e-02
-3.5456556e-02
-3.8743525e-03
4.3147044e-02
7.4815035e-02
7.9314434e-02
7.1157167e-02
6.5553814e-02
5.6950858e-02
3.3007943e-02
-1.9000672e-03
-2.3735704e-02
-1.4435846e-02
1.0695734e-02
1.8749505e-02
-3.2160302e-03
-3.8271915e-02
-6.0264921e-02
-6.0957361e-02
-5.2560676e-02
-4.4620167e-02
-3.2827760e-02
-5.6186070e-03
3.9078093e-02
8.8843347e-02
1.3188534e-01
1.5919435e-01
1.6149613e-01
1.3238768e-01
7.3395085e-02
3.0130748e-03
-5.0595388e-02
-7.3649588e-02
-7.9293600e-02
-9.5376472e-02
-1.3404410e-01
-1.7361340e-01
-1.8462226e-01
-1.6774822e-01
-1.4840673e-01
-1.4176352e-01
-1.3899118e-01
-1.2725542e-01
-1.1094078e-01
-1.0303212e-01
-9.8335463e-02
-7.1211240e-02
-2.0515628e-02
1.6174041e-02
1.2583309e-02
-2.7198858e-02
-8.4710289e-02
-1.4392890e-01
-2.0205338e-01
-2.5443667e-01
-2.7532740e-01
-2.2244893e-01
-7.0840397e-02
1.5040827e-01
3.6737548e-01
5.0653291e-01
5.2728770e-01
4.3900724e-01
3.0693510e-01
2.1315074e-01
1.9090294e-01
2.1148515e-01
2.2139136e-01
1.8059764e-01
9.0176580e-02
-1.0698289e-02
-8.5349473e-02
-1.2693095e-01
-1.5647745e-01
-2.0119559e-01
-2.5414893e-01
-2.8036964e-01
-2.6453843e-01
-2.2285277e-01
-1.7725899e-01
-1.3356761e-01
-8.3914697e-02
-2.1866901e-02
4.3640649e-02
8.9557210e-02
1.0075286e-01
9.2710636e-02
9.7238022e-02
1.2605068e-01
1.6652550e-01
1.9376838e-01
1.8369667e-01
1.3087627e-01
4.9770474e-02
-3.5515052e-02
-9.7915766e-02
-1.1201877e-01
-8.0641057e-02
-3.6380592e-02
4.2140149e-03
5.0377860e-02
1.0914723e-01
1.6446257e-01
1.8643318e-01
1.6230781e-01
1.0808751e-01
4.5248514e-02
-2.0815149e-02
-9.2546530e-02
-1.5974742e-01
-1.9821449e-01
-1.9329336e-01
-1.5430594e-01
-1.0543210e-01
-6.4113052e-02
-2.9783158e-02
3.6177134e-03
3.0188546e-02
3.5493775e-02
1.9071198e-02
2.3838732e-03
1.7248056e-02
6.7799383e-02
1.1674603e-01
1.3964599e-01
1.4423955e-01
1.3948126e-01
1.1601231e-01
6.4482500e-02
3.7712123e-04
-5.0292255e-02
-7.3197124e-02
-7.9565499e-02
-9.3411302e-02
-1.1876796e-01
-1.3562175e-01
-1.2881368e-01
-1.1432014e-01
-1.2500172e-01
-1.7223922e-01
-2.3708625e-01
-2.9674474e-01
-3.4756101e-01
-3.9882912e-01
-4.3722069e-01
-3.9741670e-01
-1.7525449e-01
1.6743433e-01
3.9401756e-01
4.4196879e-01
4.0939457e-01
3.5974047e-01
3.0969318e-01
2.5332083e-01
2.0011759e-01
1.6915788e-01
1.6054622e-01
1.5331436e-01
1.2962584e-01
9.4874728e-02
7.0010755e-02
6.5598316e-02
6.7625779e-02
5.6846956e-02
3.5344450e-02
2.2200424e-02
2.6433404e-02
3.2545901e-02
1.8387582e-02
-1.6853335e-02
-5.0327185e-02
-6.4637146e-02
-6.7727966e-02
-7.3280968e-02
-7.4939166e-02
-5.4966573e-02
-1.3236865e-02
2.8388617e-02
5.4501265e-02
7.7990826e-02
1.1982061e-01
1.7240775e-01
2.0239940e-01
1.9281950e-01
1.6014778e-01
1.3032361e-01
1.1402732e-01
9.9751548e-02
7.7212844e-02
6.4822240e-02
9.1817119e-02
1.5800915e-01
2.3838237e-01
3.1506138e-01
3.7548361e-01
3.7175420e-01
1.9156214e-01
-1.3013560e-01
-3.5801375e-01
-4.1243611e-01
-3.9042055e-01
-3.5864268e-01
-3.3134851e-01
-3.0795007e-01
-2.8139589e-01
-2.3181535e-01
-1.5869315e-01
-8.8309028e-02
-4.0986352e-02
-6.5040140e-03
3.7315840e-02
8.8662804e-02
1.2419832e-01
1.3673458e-01
1.5037114e-01
1.8552230e-01
2.2598313e-01
2.3746638e-01
2.0887177e-01
1.6737887e-01
1.3856708e-01
9.4014301e-02
1.5253150e-02
-5.9190534e-02
-1.0951763e-01
-1.3688649e-01
-1.4282378e-01
-1.4392028e-01
-1.5017807e-01
-1.5173913e-01
-1.3823362e-01
-1.1900946e-01
-1.1091814e-01
-1.1515118e-01
-1.1626570e-01
-1.0415326e-01
-8.9957814e-02
-8.8097447e-02
-9.0360903e-02
-7.4526185e-02
-3.8938792e-02
-1.0755718e-02
-1.3107956e-02
-4.0623032e-02
-6.7345844e-02
-6.9161756e-02
-3.3098721e-02
1.3034567e-02
1.8201005e-02
-1.1612552e-02
-4.2918452e-02
-6.5696037e-02
-8.3702289e-02
-1.0176126e-01
-1.1469992e-01
-1.2282107e-01
-1.4162338e-01
-1.7936824e-01
-2.1876598e-01
-2.3151598e-01
-2.1040086e-01
-1.7320770e-01
-1.3351709e-01
-8.7905502e-02
-2.9342406e-02
3.2086544e-02
6.5653879e-02
5.6515821e-02
3.0637350e-02
2.7742313e-02
7.1777468e-02
1.7409470e-01
2.9854706e-01
3.7716734e-01
4.0588279e-01
4.0581247e-01
3.7028621e-01
3.0245497e-01
2.2605334e-01
1.6345735e-01
1.1413497e-01
6.2958893e-02
2.9187721e-03
-5.0988748e-02
-7.1376088e-02
-4.7323058e-02
7.8419305e-03
7.6217911e-02
1.5052540e-01
2.3259439e-01
3.1689776e-01
3.8217905e-01
4.1307777e-01
4.1580466e-01
3.8865976e-01
2.9022131e-01
4.8778507e-02
-2.8617339e-01
-5.3049664e-01
-6.2547642e-01
-6.3521687e-01
-5.9767550e-01
-5.2094806e-01
-4.0522792e-01
-2.6769734e-01
-1.4483319e-01
-6.6643915e-02
-2.6736033e-02
8.1655615e-03
5.3859238e-02
9.5031083e-02
1.1264908e-01
1.0803188e-01
9.6757373e-02
8.7562833e-02
7.1813391e-02
3.5464845e-02
-1.8040661e-02
-6.9433978e-02
-1.0437049e-01
-1.2028658e-01
-1.0672439e-01
-6.3014967e-02
-1.6824116e-02
1.6597965e-02
3.4974241e-02
4.0111104e-02
4.8890318e-02
7.6048340e-02
1.1360650e-01
1.3236246e-01
1.1212327e-01
6.2145781e-02
3.6447529e-03
-5.1257331e-02
-9.5912356e-02
-1.2144821e-01
-1.1526670e-01
-6.9035451e-02
2.5445858e-03
6.8211573e-02
1.1007008e-01
1.3274241e-01
1.4551228e-01
1.4292929e-01
1.0836623e-01
3.6750818e-02
-3.6806415e-02
-6.3219315e-02
-4.6135156e-02
-2.2811217e-02
-8.3444132e-03
6.5962079e-03
2.9626420e-02
4.9299501e-02
4.9555211e-02
3.2790212e-02
1.9030053e-02
1.6703354e-02
6.9125289e-03
-2.6147078e-02
-7.1104907e-02
-1.0138996e-01
-1.0459227e-01
-9.9665972e-02
-1.0881494e-01
-1.2592476e-01
-1.2695005e-01
-1.0310540e-01
-7.1028470e-02
-3.9655298e-02
2.2288025e-02
1.2539851e-01
2.1651553e-01
2.5162781e-01
2.2126572e-01
1.4001365e-01
5.1151751e-02
-1.1944072e-02
-5.8198083e-02
-1.0446710e-01
-1.4265798e-01
-1.5916003e-01
-1.5832050e-01
-1.5550620e-01
-1.4752962e-01
-1.1102867e-01
-3.6678745e-02
5.4619892e-02
1.3085462e-01
1.8047240e-01
2.2428211e-01
2.8691689e-01
3.5754592e-01
3.8321102e-01
3.1059137e-01
1.0741282e-01
-1.5354099e-01
-3.1310733e-01
-3.4234152e-01
-3.0526639e-01
-2.3179721e-01
-1.4429397e-01
-7.1333291e-02
-3.2466932e-02
-2.0881631e-02
-1.4310515e-02
-6.9328076e-04
1.1292481e-02
6.7695640e-03
-9.1627499e-03
-1.6610951e-02
-1.2552981e-02
-1.4339757e-02
-3.8853164e-02
-8.4278437e-02
-1.3358808e-01
-1.7971275e-01
-2.3526169e-01
-3.0248240e-01
-3.4321037e-01
-2.8650481e-01
-1.3012543e-01
4.0510563e-02
1.8353577e-01
2.8819112e-01
3.3306530e-01
3.1560952e-01
2.4295517e-01
1.4153411e-01
6.0784406e-02
4.0579098e-02
8.0710771e-02
1.4687135e-01
2.0053016e-01
2.2369954e-01
2.2351152e-01
1.9786555e-01
1.2909089e-01
1.7340231e-02
-1.1381229e-01
-2.4234028e-01
-3.6499743e-01
-4.7609468e-01
-5.4429073e-01
-5.2404643e-01
-3.7628177e-01
-1.5251427e-01
1.9601086e-02
1.0552971e-01
1.4915141e-01
1.8109570e-01
2.0976204e-01
2.2705999e-01
2.3182700e-01
2.2967564e-01
2.2124459e-01
1.9837929e-01
1.6008211e-01
1.2496848e-01
1.0730322e-01
9.5732615e-02
6.6882579e-02
1.6944244e-02
-3.2267202e-02
-6.1857184e-02
-8.2276945e-02
-1.2026647e-01
-1.7627873e-01
-2.1309861e-01
-1.8596514e-01
-7.0926868e-02
8.2025955e-02
1.7717015e-01
1.9959390e-01
1.8900943e-01
1.5500641e-01
9.4218301e-02
2.2346488e-02
-2.9730731e-02
-4.4696283e-02
-3.2670216e-02
-1.5374684e-02
-4.3393121e-03
5.0974716e-03
1.9820162e-02
3.2973760e-02
3.5386376e-02
3.1380214e-02
3.4891661e-02
5.3124179e-02
7.3887900e-02
8.1444555e-02
7.7834483e-02
7.6788766e-02
8.0427308e-02
7.2478544e-02
4.2117478e-02
1.2858137e-03
-2.9647099e-02
-4.6086136e-02
-6.0957466e-02
-8.4511365e-02
-1.0995129e-01
-1.2149417e-01
-1.1867043e-01
-1.1737675e-01
-1.1691662e-01
-9.3849355e-02
-3.6724452e-02
3.5057136e-02
8.6838455e-02
1.0101922e-01
9.3193482e-02
8.7211384e-02
8.6561479e-02
8.2031465e-02
7.3752668e-02
6.9318443e-02
7.1976398e-02
7.3261141e-02
5.0532462e-02
9.3545257e-04
-4.3967206e-02
-6.2043903e-02
-6.0226683e-02
-5.3815473e-02
-4.8817189e-02
-4.0315430e-02
-2.5376126e-02
-1.5741314e-02
-2.5119541e-02
-4.4565862e-02
-4.8654672e-02
-2.3937518e-02
2.0505073e-02
6.8241659e-02
1.1713816e-01
1.8099529e-01
2.6486086e-01
3.5057970e-01
4.1502530e-01
4.5310553e-01
4.7138143e-01
4.6252547e-01
3.9277718e-01
2.0984319e-01
-3.7810428e-02
-2.0153919e-01
-2.4968118e-01
-2.5198808e-01
-2.4877308e-01
-2.5045468e-01
-2.5305390e-01
-2.5161566e-01
-2.5087443e-01
-2.5423235e-01
-2.4650995e-01
-2.1309349e-01
-1.6441628e-01
-1.1472954e-01
-5.7958186e-02
1.1235482e-02
7.7862511e-02
1.1621610e-01
1.1134897e-01
7.3997659e-02
2.4029466e-02
-3.0339124e-02
-9.0571343e-02
-1.5120816e-01
-1.6686980e-01
-1.1638743e-01
-5.8825477e-02
-3.3341822e-02
-3.4267947e-02
-4.5166081e-02
-4.1180135e-02
-1.7235538e-02
6.1443512e-03
1.0308281e-02
3.2349678e-03
8.3643567e-03
3.3684865e-02
6.6093195e-02
9.2837121e-02
1.1490621e-01
1.3304584e-01
1.3533034e-01
1.1239730e-01
7.3630164e-02
4.7537479e-02
5.6924861e-02
8.8552144e-02
1.0306518e-01
7.1963742e-02
-4.2723308e-03
-8.6843742e-02
-1.3230011e-01
-1.4695915e-01
-1.5171689e-01
-1.4409536e-01
-1.1577845e-01
-7.2537456e-02
-3.4048828e-02
-1.5366088e-02
-1.9492459e-02
-4.3419212e-02
-9.1959728e-02
-1.6399037e-01
-2.2734304e-01
-2.4356236e-01
-2.0800549e-01
-1.5056379e-01
-1.0228777e-01
-6.7630833e-02
-3.1830511e-02
5.7151940e-03
2.1383437e-02
4.0632652e-03
-2.6595305e-02
-5.2025538e-02
-6.4235558e-02
-5.8599580e-02
-4.1933748e-02
-1.7158515e-02
2.1346552e-02
6.6478003e-02
9.7455059e-02
1.0346867e-01
9.5300839e-02
8.7014283e-02
7.7879289e-02
5.6804191e-02
2.4106061e-02
9.1728906e-04
6.3846666e-03
3.3154401e-02
5.5977619e-02
6.3126500e-02
6.7695984e-02
8.4855713e-02
1.0527701e-01
1.0302974e-01
6.9976343e-02
1.9093161e-02
-4.3778355e-02
-1.3017983e-01
-2.5260253e-01
-4.0624994e-01
-5.8499859e-01
-8.0345754e-01
-1.0559368e+00
-1.2902420e+00
-1.4530417e+00
-1.5136369e+00
-1.4672846e+00
-1.3446583e+00
-1.1799621e+00
-9.7251298e-01
-7.0007423e-01
-3.4244009e-01
1.1353034e-01
6.6403111e-01
1.2865356e+00
1.9356956e+00
2.5463378e+00
3.0750808e+00
3.4943822e+00
3.7213729e+00
3.5649759e+00
2.6739375e+00
1.2385147e+00
1.0718908e-01
-4.7250851e-01
-7.7404707e-01
-9.3345400e-01
-1.0257069e+00
-1.0707841e+00
-1.0501489e+00
-9.5566588e-01
-8.1775545e-01
-6.8511064e-01
-5.7671791e-01
-4.6993751e-01
-3.3623890e-01
-1.8579710e-01
-5.2126681e-02
5.6594412e-02
1.5532586e-01
2.4615050e-01
2.9982232e-01
2.8997554e-01
2.3879183e-01
2.0047833e-01
2.0454653e-01
2.2757180e-01
2.2809285e-01
2.0029035e-01
1.6954955e-01
1.4732385e-01
1.1974248e-01
7.6989290e-02
2.3010024e-02
-4.2109321e-02
-1.2930355e-01
-2.4270422e-01
-3.6128401e-01
-4.5315982e-01
-4.9540334e-01
-4.8589474e-01
-4.4715402e-01
-3.9384912e-01
-3.0569706e-01
-1.6593236e-01
1.2317266e-03
1.5585405e-01
2.7708305e-01
3.6637931e-01
4.2956513e-01
4.7212382e-01
5.3181750e-01
5.8918097e-01
5.4072602e-01
3.7692636e-01
1.5811721e-01
-7.9499393e-02
-2.9114473e-01
-4.3025355e-01
-4.8630845e-01
-4.8472135e-01
-4.5636553e-01
-4.1623322e-01
-3.5788604e-01
-2.7797065e-01
-1.9668496e-01
-1.4091123e-01
-1.1689002e-01
-1.0363359e-01
-8.3153167e-02
-6.7162472e-02
-7.3129400e-02
-9.6912511e-02
-1.2056665e-01
-1.3670987e-01
-1.5510340e-01
-1.7637592e-01
-1.8740116e-01
-1.7740356e-01
-1.4615030e-01
-1.1730623e-01
-1.1245909e-01
-1.1563578e-01
-1.0676862e-01
-1.0645589e-01
-1.5338687e-01
-2.4653250e-01
-3.3510883e-01
-3.6218908e-01
-3.0385634e-01
-1.7506747e-01
-5.3923970e-03
1.8239119e-01
3.6682803e-01
5.1432129e-01
5.8997812e-01
5.8046333e-01
5.0287091e-01
3.9538720e-01
2.8825527e-01
1.9340570e-01
1.1204397e-01
4.9733257e-02
1.9986546e-02
2.1934061e-02
3.7875647e-02
5.4313643e-02
7.5477451e-02
9.5026183e-02
8.6520191e-02
4.4361968e-02
-1.1296269e-02
-6.1012914e-02
-9.5026777e-02
-1.1805689e-01
-1.4427560e-01
-1.7269115e-01
-1.8942474e-01
-1.9423446e-01
-1.9980252e-01
-2.1092358e-01
-2.1795013e-01
-2.1423937e-01
-2.0572219e-01
-1.9097570e-01
-1.4512766e-01
-2.9434019e-02
1.2331952e-01
2.0219323e-01
1.7084149e-01
9.3598939e-02
3.5466785e-02
9.9786302e-03
-8.6747470e-03
-4.7630599e-02
-9.3250676e-02
-1.0343050e-01
-7.9998170e-02
-6.0433524e-02
-5.4509020e-02
-4.1501568e-02
-2.0449007e-03
7.0152910e-02
1.6632887e-01
2.6437673e-01
3.5135832e-01
4.3107245e-01
4.9471500e-01
5.1771686e-01
4.8894561e-01
4.1585374e-01
2.9959779e-01
1.5713478e-01
3.0859372e-02
-6.8980449e-02
-1.4762795e-01
-1.9803104e-01
-2.2889655e-01
-2.6094392e-01
-2.9323508e-01
-3.0143099e-01
-2.7679144e-01
-2.4115483e-01
-2.1962317e-01
-2.1168995e-01
-1.9661296e-01
-1.6593068e-01
-1.3772448e-01
-1.3252828e-01
-1.4901658e-01
-1.6760838e-01
-1.7512588e-01
-1.8077222e-01
-1.9661755e-01
-2.0949462e-01
-1.8300556e-01
-8.1686214e-02
6.4410948e-02
1.6957005e-01
2.1000810e-01
2.1962412e-01
2.1854564e-01
2.0489602e-01
1.7118027e-01
1.2515368e-01
8.5455909e-02
5.8789851e-02
3.2882699e-02
-2.3139127e-03
-3.9660113e-02
-6.7869886e-02
-8.2054667e-02
-8.4150473e-02
-7.9504403e-02
-6.8643856e-02
-4.6932559e-02
-2.5844233e-02
-2.7526651e-02
-4.3999065e-02
-4.4065436e-02
-1.9538447e-02
-7.7173540e-03
-3.0086946e-02
-4.6546092e-02
-8.9241815e-03
9.5707045e-02
2.3945026e-01
3.7546672e-01
4.7254767e-01
5.3543761e-01
5.8157381e-01
5.9728965e-01
5.4388725e-01
4.0540735e-01
2.1058478e-01
6.7032055e-03
-1.8535886e-01
-3.8386941e-01
-5.9460208e-01
-7.8313823e-01
-9.1397354e-01
-9.7552863e-01
-9.6512713e-01
-8.7921650e-01
-7.1278054e-01
-4.6255027e-01
-1.3932905e-01
2.0777418e-01
5.0940528e-01
7.3131737e-01
8.6338497e-01
8.9466678e-01
8.2850935e-01
6.9459605e-01
5.2899423e-01
3.4568600e-01
1.4461954e-01
-5.8375383e-02
-2.2372816e-01
-3.1569789e-01
-3.3437295e-01
-3.1667088e-01
-2.9264242e-01
-2.5419106e-01
-1.8522304e-01
-9.6677459e-02
-2.0273562e-02
2.3276486e-02
3.9192788e-02
4.2001338e-02
3.3920629e-02
-4.0013923e-04
-5.5899641e-02
-9.2491277e-02
-8.9548438e-02
-6.6355904e-02
-5.0743521e-02
-5.4433403e-02
-6.8710834e-02
-7.9277606e-02
-8.8452910e-02
-1.1105438e-01
-1.4588458e-01
-1.7126855e-01
-1.6950365e-01
-1.4613119e-01
-1.2257307e-01
-1.1419474e-01
-1.1916735e-01
-1.2674142e-01
-1.3157154e-01
-1.3380495e-01
-1.2582698e-01
-9.0179089e-02
-2.1039420e-02
6.1167690e-02
1.2678026e-01
1.7464234e-01
2.3109266e-01
2.9849653e-01
3.4656576e-01
3.5317455e-01
3.2884717e-01
3.0196039e-01
2.8487600e-01
2.5940450e-01
2.0138512e-01
1.1857776e-01
4.9284769e-02
2.1587245e-02
2.5764506e-02
3.4242128e-02
3.6253789e-02
4.4928969e-02
7.3801630e-02
1.1121909e-01
1.3281352e-01
1.3177660e-01
1.1948691e-01
1.0392931e-01
7.5407280e-02
1.5314576e-02
-7.0096387e-02
-1.4551315e-01
-1.9238102e-01
-2.2317674e-01
-2.5214052e-01
-2.7412636e-01
-2.6834742e-01
-2.2399987e-01
-1.5752015e-01
-9.7386831e-02
-5.5334195e-02
-1.8585504e-02
2.3742823e-02
5.7796575e-02
6.2384992e-02
3.8958126e-02
1.0711086e-02
-8.9652513e-03
-2.7087415e-02
-4.4062668e-02
-4.3138761e-02
-1.1935211e-02
3.6351868e-02
6.9983251e-02
6.5483630e-02
4.4876794e-02
5.5450639e-02
8.8375142e-02
9.3530446e-02
5.0791348e-02
-1.1890343e-02
-4.8305764e-02
-4.0067449e-02
-8.6493836e-03
1.4700466e-02
2.6899632e-02
4.2271548e-02
5.3407299e-02
3.5478991e-02
-2.2455055e-02
-1.0244361e-01
-1.6912001e-01
-2.0855293e-01
-2.4662015e-01
-3.0847165e-01
-3.7504501e-01
-4.0497738e-01
-3.7919819e-01
-2.9849270e-01
-1.4619047e-01
5.0552805e-02
1.9747535e-01
2.6127510e-01
2.6642374e-01
2.3105404e-01
1.7355208e-01
1.1633435e-01
7.6358885e-02
4.7213310e-02
1.3231383e-02
-2.4236040e-02
-4.3281005e-02
-2.9535286e-02
1.7371499e-03
3.1704235e-02
6.1673940e-02
1.0020526e-01
1.4795858e-01
1.9259157e-01
2.1903617e-01
2.2836183e-01
2.2826332e-01
2.1660999e-01
1.8116395e-01
9.9975294e-02
-9.1701331e-03
-8.4325094e-02
-1.1059015e-01
-1.1958808e-01
-1.3077374e-01
-1.4217741e-01
-1.4090467e-01
-1.2138702e-01
-9.6829966e-02
-8.6416650e-02
-8.9538583e-02
-8.6428985e-02
-6.6483199e-02
-3.9454891e-02
-1.5404544e-02
9.3147286e-03
4.1569842e-02
7.5439215e-02
9.2417055e-02
8.1455289e-02
5.5502921e-02
3.8532570e-02
3.5844881e-02
2.8435833e-02
-3.3313162e-03
-4.7355140e-02
-6.9425235e-02
-6.3282521e-02
-5.4161868e-02
-6.0889202e-02
-7.6995764e-02
-8.2810302e-02
-7.0100677e-02
-5.0404047e-02
-3.6620270e-02
-2.6566547e-02
-1.0212761e-02
1.1422519e-02
2.2634997e-02
1.3036031e-02
-9.7069298e-03
-2.8201174e-02
-3.6190343e-02
-4.4224333e-02
-5.9599753e-02
-7.2349823e-02
-6.2588052e-02
-2.6911221e-02
1.2855591e-02
4.4893360e-02
7.2031647e-02
9.1334111e-02
1.0312502e-01
1.0135407e-01
7.6730933e-02
4.1651292e-02
1.7549596e-02
9.7837344e-03
5.1732365e-03
-1.0921041e-02
-3.7538508e-02
-6.1336509e-02
-7.9370825e-02
-1.0582371e-01
-1.5033835e-01
-2.0103893e-01
-2.3022002e-01
-2.2087183e-01
-1.8354546e-01
-1.3522363e-01
-7.7277370e-02
1.2939975e-03
9.8727024e-02
1.7387250e-01
1.5543126e-01
6.8565280e-02
4.3649078e-02
1.1494654e-01
2.2603387e-01
3.3696872e-01
4.2031278e-01
4.6293060e-01
4.6875942e-01
4.3696246e-01
3.6090171e-01
2.5211092e-01
1.3653686e-01
2.8766915e-02
-7.8295040e-02
-1.8482095e-01
-2.6390820e-01
-2.8875283e-01
-2.6841042e-01
-2.4201969e-01
-2.3538630e-01
-2.4297224e-01
-2.5254600e-01
-2.6599375e-01
-2.6927147e-01
-2.0992450e-01
-8.6297467e-02
3.1293777e-02
1.0544464e-01
1.2949574e-01
1.0530321e-01
7.3733087e-02
7.9067092e-02
1.1686569e-01
1.4244460e-01
1.2429324e-01
8.0541857e-02
5.4455399e-02
6.6666884e-02
9.4776959e-02
9.9542173e-02
7.0284356e-02
3.3556336e-02
1.7851036e-02
1.5800477e-02
-1.2222560e-03
-3.8648040e-02
-7.6260037e-02
-1.0109344e-01
-1.1471306e-01
-1.1250537e-01
-8.8876473e-02
-5.8235305e-02
-3.7884933e-02
-3.0990951e-02
-3.7664319e-02
-5.2240669e-02
-6.1869528e-02
-6.7051086e-02
-8.4199643e-02
-1.1876844e-01
-1.5399105e-01
-1.6488405e-01
-1.4186195e-01
-1.0944137e-01
-1.0234882e-01
-1.1601340e-01
-1.0783268e-01
-4.9891882e-02
3.9638997e-02
1.2724599e-01
2.1035941e-01
3.0203347e-01
3.8962248e-01
4.3966741e-01
4.4001090e-01
4.0376725e-01
3.3976509e-01
2.4737327e-01
1.1309231e-01
-6.5745910e-02
-2.5095350e-01
-3.8903915e-01
-4.5148091e-01
-4.5157898e-01
-4.2354588e-01
-3.8237028e-01
-3.1943978e-01
-2.2936128e-01
-1.2440807e-01
-2.5135448e-02
5.6571762e-02
1.2000916e-01
1.6765367e-01
1.9956547e-01
2.1486311e-01
2.2202121e-01
2.3657540e-01
2.5536899e-01
2.4711956e-01
1.8402712e-01
8.4020031e-02
-3.2940874e-03
-5.7478511e-02
-9.3662531e-02
-1.2195229e-01
-1.2709918e-01
-9.0229923e-02
-2.7860785e-02
1.4115425e-02
5.3929252e-03
-4.4280841e-02
-1.0012798e-01
-1.3632781e-01
-1.5363069e-01
-1.6188893e-01
-1.6089319e-01
-1.4150255e-01
-9.9919471e-02
-5.2988047e-02
-2.8051132e-02
-3.4578921e-02
-5.6184684e-02
-7.1493070e-02
-7.1181779e-02
-4.8348024e-02
-1.0395311e-02
1.9238830e-02
3.9014669e-02
5.1975048e-02
4.6171006e-02
2.2694180e-02
3.1140394e-03
3.7408922e-03
1.6163714e-02
2.2409474e-02
1.6032116e-02
7.1930240e-03
7.8450367e-03
1.1280374e-02
3.3384876e-03
-1.0098617e-02
-6.5528431e-03
2.2569621e-02
6.0468272e-02
8.7195992e-02
1.0362115e-01
1.2756492e-01
1.6133626e-01
1.7882132e-01
1.4618069e-01
7.5533145e-02
2.7342086e-02
2.3010460e-02
3.6226562e-02
4.4273902e-02
5.0517719e-02
7.1892671e-02
1.0446736e-01
1.2000964e-01
9.1447095e-02
2.1055934e-02
-6.8719571e-02
-1.5213442e-01
-2.0667872e-01
-2.3316794e-01
-2.5325891e-01
-2.8270791e-01
-3.1243370e-01
-3.1232424e-01
-2.6117512e-01
-1.6355912e-01
-3.9535920e-02
8.1789019e-02
1.7263393e-01
2.2311706e-01
2.4099127e-01
2.4079885e-01
2.3304028e-01
2.0796168e-01
1.4726463e-01
6.2779218e-02
-7.0382623e-03
-4.2432564e-02
-5.9199776e-02
-7.0860065e-02
-6.3677093e-02
-3.1717846e-02
4.0022178e-03
2.4871146e-02
2.4201146e-02
1.0961357e-03
-2.7348115e-02
-3.9623847e-02
-4.2278497e-02
-5.6277195e-02
-8.1958558e-02
-9.5622840e-02
-7.3626203e-02
-1.5455875e-02
5.9480864e-02
1.3154831e-01
1.9434719e-01
2.4319087e-01
2.5678903e-01
2.2049571e-01
1.4398247e-01
5.1218135e-02
-2.3786545e-02
-6.0452397e-02
-6.6455628e-02
-5.8120219e-02
-4.6101855e-02
-3.2300644e-02
-2.0931538e-02
-2.8316030e-02
-5.9342620e-02
-9.3548661e-02
-1.1502635e-01
-1.3610999e-01
-1.7788243e-01
-2.3794305e-01
-2.8725390e-01
-2.9785167e-01
-2.6287982e-01
-1.7471155e-01
-5.9113644e-02
2.0388869e-02
6.1565083e-02
9.3553977e-02
1.1638426e-01
1.2683712e-01
1.3030455e-01
1.3342833e-01
1.2840366e-01
9.9282244e-02
4.6144621e-02
-1.3420392e-02
-6.4382956e-02
-1.0789562e-01
-1.5298716e-01
-1.9379238e-01
-2.0494500e-01
-1.6830335e-01
-9.5992905e-02
-1.2942894e-02
7.2820310e-02
1.7292638e-01
2.9487493e-01
4.1420493e-01
4.7278572e-01
4.8655708e-01
5.5994977e-01
7.1205445e-01
8.6966730e-01
9.5711655e-01
9.2409525e-01
7.6876012e-01
5.2678786e-01
2.3724736e-01
-7.7783561e-02
-3.9507665e-01
-6.7658161e-01
-8.9409810e-01
-1.0475369e+00
-1.1492215e+00
-1.2029893e+00
-1.1989860e+00
-1.1314298e+00
-1.0176832e+00
-8.8671244e-01
-7.5632590e-01
-6.1903155e-01
-4.5325960e-01
-2.5005766e-01
-4.7083910e-03
2.3515673e-01
3.9726592e-01
5.1287180e-01
6.3296179e-01
7.4435530e-01
8.2270842e-01
8.5123892e-01
8.2593551e-01
7.5193863e-01
6.2932195e-01
4.6099136e-01
2.6637224e-01
7.1713144e-02
-1.0607340e-01
-2.5757815e-01
-3.6942484e-01
-4.3023969e-01
-4.4247770e-01
-4.1994254e-01
-3.7367539e-01
-3.0249055e-01
-1.9890499e-01
-6.5308260e-02
6.4671936e-02
1.3011872e-01
1.2179261e-01
1.0508622e-01
1.2159504e-01
1.6077208e-01
1.9722844e-01
2.1229670e-01
2.0582710e-01
1.8825696e-01
1.6406214e-01
1.2591044e-01
7.4703662e-02
2.7546218e-02
5.2881220e-04
-7.9662425e-03
-1.4811796e-02
-2.6148067e-02
-2.8950074e-02
-1.4623945e-02
9.0262574e-03
3.0669823e-02
4.5253179e-02
5.6454053e-02
7.0060391e-02
7.5148366e-02
4.3455426e-02
-3.2074378e-02
-1.1903336e-01
-1.8453066e-01
-2.2385981e-01
-2.5491854e-01
-2.9315458e-01
-3.2838136e-01
-3.3659614e-01
-3.0586852e-01
-2.4522775e-01
-1.7208223e-01
-9.3370006e-02
-9.8679347e-03
6.5744978e-02
1.1323420e-01
1.2685351e-01
1.2293921e-01
1.2171989e-01
1.2808614e-01
1.4053462e-01
1.6153080e-01
1.9309335e-01
2.3289008e-01
2.5705152e-01
2.1403156e-01
1.0612310e-01
1.5360723e-02
-1.3121591e-02
1.4023441e-03
2.3903572e-02
2.7971423e-02
1.6724375e-02
8.6583617e-03
9.1306279e-03
9.1042464e-03
5.1884241e-03
7.5724489e-03
2.5527397e-02
4.8940504e-02
5.4251935e-02
2.9178720e-02
-1.4322332e-02
-5.4269802e-02
-8.5549657e-02
-1.2121052e-01
-1.6526784e-01
-1.9850315e-01
-1.9712921e-01
-1.5454870e-01
-7.2594435e-02
1.8440811e-02
7.0699572e-02
9.0032571e-02
1.0082585e-01
9.6924510e-02
7.1383427e-02
3.6012806e-02
1.0452935e-02
-1.7822908e-03
-1.6713022e-02
-4.8239634e-02
-8.9890535e-02
-1.1985612e-01
-1.2812645e-01
-1.2598887e-01
-1.1881106e-01
-9.2215087e-02
-3.3537898e-02
4.6555566e-02
1.2084173e-01
1.7106381e-01
2.0722387e-01
2.4522854e-01
2.7014754e-01
2.5183643e-01
1.8895703e-01
1.1485787e-01
5.9875023e-02
2.3803298e-02
-1.8205871e-02
-7.8866152e-02
-1.3549203e-01
-1.6070925e-01
-1.5579393e-01
-1.4406892e-01
-1.3989031e-01
-1.3530520e-01
-1.1949086e-01
-9.8948930e-02
-8.7350237e-02
-8.4102823e-02
-7.7675288e-02
-6.1891608e-02
-4.9011855e-02
-6.2754007e-02
-1.1075057e-01
-1.7425510e-01
-2.2480484e-01
-2.4864897e-01
-2.5491061e-01
-2.4756175e-01
-2.0451959e-01
-1.0113642e-01
6.2277002e-02
2.5434692e-01
4.3011877e-01
5.6149745e-01
6.5210364e-01
7.1574605e-01
7.4605997e-01
7.2642432e-01
6.6000466e-01
5.7198465e-01
4.8042088e-01
3.7795207e-01
2.5044656e-01
9.3363934e-02
-9.2157286e-02
-2.9864798e-01
-5.0075844e-01
-6.5510945e-01
-7.2532241e-01
-7.0375714e-01
-6.1066103e-01
-4.7972630e-01
-3.4875276e-01
-2.4109442e-01
-1.5024408e-01
-6.9341939e-02
-1.2308134e-02
9.2878535e-03
1.0071958e-02
1.6501528e-02
2.7493557e-02
1.4526159e-02
-3.5360984e-02
-9.7716269e-02
-1.3020701e-01
-1.0599013e-01
-3.3025321e-02
5.2939011e-02
1.1730799e-01
1.4747533e-01
1.4745171e-01
1.2807552e-01
1.0864881e-01
1.0963054e-01
1.3003104e-01
1.4497984e-01
1.3409935e-01
9.7383200e-02
5.8612241e-02
5.3596981e-02
7.7601756e-02
8.4658738e-02
4.9761096e-02
-3.3173511e-03
-2.8665961e-02
-1.2319342e-02
1.0434819e-02
2.7638051e-03
-2.9952273e-02
-5.2219586e-02
-4.1242897e-02
-1.2677242e-02
1.3756994e-04
-1.3112311e-02
-3.0386923e-02
-3.2426059e-02
-2.8718309e-02
-3.7976561e-02
-5.9702738e-02
-7.4259820e-02
-6.6813960e-02
-4.0765258e-02
-1.8000506e-02
-1.5625117e-02
-1.9231229e-02
-1.1093949e-02
4.8949449e-04
1.4905650e-03
-6.0179221e-03
-1.2560474e-02
-1.7531843e-02
-3.0334257e-02
-5.3354125e-02
-6.5467834e-02
-3.9730023e-02
1.8291467e-02
6.6438031e-02
6.7448251e-02
2.2181707e-02
-4.0209322e-02
-9.1750538e-02
-1.1760321e-01
-1.0856326e-01
-5.9357558e-02
2.2396461e-02
1.1050108e-01
1.7396020e-01
1.9401527e-01
1.7584491e-01
1.5092593e-01
1.4305185e-01
1.4499207e-01
1.3987304e-01
1.2238441e-01
9.6234172e-02
5.7713121e-02
-7.7662675e-03
-1.0276773e-01
-2.0233771e-01
-2.6903102e-01
-2.8505575e-01
-2.6500093e-01
-2.3058699e-01
-1.8721131e-01
-1.2767745e-01
-5.4971672e-02
6.4844526e-03
3.4278637e-02
3.2711550e-02
2.6755929e-02
3.4809716e-02
5.1580793e-02
5.9709093e-02
5.7036431e-02
5.7916755e-02
6.3315900e-02
5.6175921e-02
2.8049142e-02
-7.9119135e-03
-2.9520452e-02
-2.7702191e-02
-1.6408037e-02
-1.2799047e-02
-1.3470144e-02
-3.7637047e-03
1.6356183e-02
2.9384355e-02
2.2609616e-02
5.7538144e-03
-7.4577179e-04
4.6039455e-03
3.6224967e-03
-1.5711859e-02
-4.5284800e-02
-6.3717717e-02
-5.7266241e-02
-2.9854654e-02
-3.2070144e-03
5.2609070e-03
9.0412540e-03
2.4161679e-02
4.1628394e-02
4.6377604e-02
4.0605864e-02
3.9865405e-02
5.0579790e-02
6.2190597e-02
6.4278980e-02
5.8000002e-02
5.2079746e-02
5.1775181e-02
4.4593825e-02
1.6817826e-02
-1.9088874e-02
-3.9108642e-02
-3.6945075e-02
-2.6715378e-02
-2.2308811e-02
-1.9662053e-02
-3.6292499e-03
2.6791663e-02
4.2483034e-02
2.6484648e-02
3.3969024e-03
-2.1608824e-03
1.1740220e-02
2.6812985e-02
2.3167978e-02
6.0294561e-03
-2.5583841e-03
6.3973553e-03
1.6324296e-02
8.2161495e-03
-1.4261323e-02
-3.1457964e-02
-3.4106094e-02
-3.3373711e-02
-4.0032802e-02
-4.4435479e-02
-2.8913077e-02
5.1076308e-03
3.3370843e-02
3.7214501e-02
2.7546631e-02
2.8915447e-02
4.6726709e-02
6.2308864e-02
5.7084108e-02
3.4008749e-02
1.2995926e-02
3.4789322e-03
-8.3516234e-03
-3.8516879e-02
-8.1463023e-02
-1.1671852e-01
-1.3525062e-01
-1.4553612e-01
-1.5627324e-01
-1.6400410e-01
-1.5725863e-01
-1.3134215e-01
-8.6978511e-02
-1.5464347e-02
8.4493759e-02
1.8354861e-01
2.3529894e-01
2.0735288e-01
1.0536420e-01
-2.8370399e-02
-1.3859302e-01
-1.8302313e-01
-1.4400488e-01
-4.6716648e-02
5.2323993e-02
1.2146102e-01
1.5643893e-01
1.6927761e-01
1.8408080e-01
2.0233239e-01
1.9975877e-01
1.5713073e-01
8.1180619e-02
-1.9887046e-03
-6.0547104e-02
-7.3177652e-02
-5.5069501e-02
-4.1270378e-02
-4.7427138e-02
-6.6144159e-02
-8.0862555e-02
-8.3815612e-02
-8.5334557e-02
-9.7255251e-02
-1.1135850e-01
-1.0824773e-01
-8.7128204e-02
-7.1466145e-02
-7.1706344e-02
-6.3188854e-02
-1.9984781e-02
5.3673919e-02
1.2547427e-01
1.6547332e-01
1.7591941e-01
1.7409545e-01
1.5998351e-01
1.1714498e-01
3.9346615e-02
-5.0085544e-02
-1.1818347e-01
-1.5220028e-01
-1.5561011e-01
-1.2744864e-01
-6.0446599e-02
3.6034915e-02
1.2700079e-01
1.7536623e-01
1.7288134e-01
1.4496127e-01
1.1984503e-01
9.6569454e-02
4.6909106e-02
-3.1532933e-02
-9.5391021e-02
-1.1617877e-01
-1.0744958e-01
-9.6154089e-02
-9.0665572e-02
-7.4458478e-02
-3.4823858e-02
1.5561254e-02
4.9218314e-02
4.6096787e-02
5.2914854e-03
-6.0993807e-02
-1.4519360e-01
-2.4642401e-01
-3.5198547e-01
-4.3198082e-01
-4.5165553e-01
-3.9446984e-01
-2.8009555e-01
-1.4922514e-01
-3.3342353e-02
5.5879610e-02
1.2839217e-01
2.4108315e-01
3.8482917e-01
4.5902010e-01
4.6818792e-01
4.6245062e-01
4.2521968e-01
3.4071523e-01
2.2505247e-01
1.0757012e-01
3.7321425e-03
-8.8055937e-02
-1.6894410e-01
-2.2770400e-01
-2.5301744e-01
-2.5568359e-01
-2.6103732e-01
-2.7249809e-01
-2.6173106e-01
-1.9772016e-01
-7.3711882e-02
8.6650815e-02
2.4339696e-01
3.6006866e-01
4.0052494e-01
3.0529126e-01
-3.3881868e-02
-5.2599828e-01
-8.5183635e-01
-9.2386366e-01
-8.6315653e-01
-7.5150429e-01
-6.2409276e-01
-4.6587067e-01
-2.4641099e-01
3.8883983e-02
3.6144586e-01
6.7348257e-01
9.3409833e-01
1.1242238e+00
1.2316607e+00
1.2501674e+00
1.1948117e+00
1.0999177e+00
9.9661771e-01
8.9870013e-01
8.1198104e-01
7.4116099e-01
6.8628194e-01
6.3579038e-01
5.6030844e-01
4.2389938e-01
2.1368288e-01
-5.3960842e-02
-3.4233566e-01
-5.9936146e-01
-7.9282380e-01
-9.1923695e-01
-9.7023647e-01
-9.4720954e-01
-8.9063016e-01
-8.4276913e-01
-8.0747165e-01
-7.5736399e-01
-6.6964674e-01
-5.6342725e-01
-4.8278305e-01
-4.5278806e-01
-4.5708487e-01
-4.4973650e-01
-4.0602499e-01
-3.4285529e-01
-2.8212646e-01
-2.2767627e-01
-1.7390955e-01
-1.1110826e-01
-6.1076178e-04
1.3474879e-01
1.9101458e-01
1.6322230e-01
1.1140354e-01
5.7152620e-02
1.1736586e-02
-8.0021205e-03
1.0887720e-02
6.1940522e-02
1.3618747e-01
2.3165150e-01
3.3281401e-01
4.1620499e-01
4.6481521e-01
4.6831633e-01
4.3681203e-01
3.9539857e-01
3.6355617e-01
3.4421905e-01
3.1799430e-01
2.6723369e-01
2.0115591e-01
1.3557238e-01
7.3591100e-02
1.4932973e-02
-4.8077171e-02
-1.3711069e-01
-2.7366364e-01
-4.6423483e-01
-6.8083570e-01
-8.5923631e-01
-9.4241543e-01
-9.2301036e-01
-8.3601080e-01
-7.1267362e-01
-5.5181917e-01
-3.3542861e-01
-7.1034249e-02
2.0334698e-01
4.6150305e-01
6.8683378e-01
8.5323512e-01
9.3662728e-01
9.2132078e-01
8.1171657e-01
6.3907639e-01
4.4990848e-01
2.8228341e-01
1.4005935e-01
-1.0442322e-03
-1.2378917e-01
-1.7067922e-01
-1.4557812e-01
-1.0221925e-01
-7.6127592e-02
-6.8285251e-02
-5.1522718e-02
-5.3551806e-03
6.0074927e-02
1.2432486e-01
1.8349681e-01
2.4536839e-01
3.0798590e-01
3.5057299e-01
3.5248687e-01
3.1711900e-01
2.6167520e-01
1.9005096e-01
9.1934064e-02
-3.7677646e-02
-1.7883646e-01
-2.9536559e-01
-3.7186224e-01
-4.2232357e-01
-4.6666506e-01
-5.1377853e-01
-5.5841768e-01
-5.9505812e-01
-6.2236609e-01
-6.2863306e-01
-5.9610969e-01
-5.1373627e-01
-3.8514575e-01
-2.3177238e-01
-7.9223239e-02
6.1266864e-02
1.8597898e-01
2.7743250e-01
3.1387671e-01
2.9558541e-01
2.4649326e-01
1.9041108e-01
1.2938213e-01
5.2496432e-02
-3.8259476e-02
-1.2229426e-01
-1.7622432e-01
-1.8899009e-01
-1.5125939e-01
-1.7238097e-02
1.8805759e-01
3.3827569e-01
4.0726045e-01
4.4468591e-01
4.6508873e-01
4.7539462e-01
4.7802798e-01
4.5604086e-01
3.9005920e-01
2.7683759e-01
1.2338387e-01
-4.7322492e-02
-2.0140411e-01
-3.0832572e-01
-3.3836190e-01
-2.6735572e-01
-9.6899152e-02
1.4410406e-01
4.1776789e-01
6.8724641e-01
9.1544474e-01
1.0580581e+00
1.0657025e+00
9.0317736e-01
5.5662862e-01
1.1999129e-01
-2.2687757e-01
-4.3255688e-01
-5.5626056e-01
-6.3467279e-01
-6.6375753e-01
-6.2811360e-01
-5.4433272e-01
-4.4886286e-01
-3.6323186e-01
-2.8481308e-01
-2.0559257e-01
-1.3645510e-01
-9.8585476e-02
-9.5140603e-02
-1.0514974e-01
-1.1055770e-01
-1.1673222e-01
-1.3487150e-01
-1.6160961e-01
-1.7826841e-01
-1.6884620e-01
-1.3975858e-01
-1.0775545e-01
-6.9257821e-02
-1.5734597e-02
3.8380261e-02
7.2415795e-02
7.4658077e-02
5.3772403e-02
3.7960204e-02
4.2350885e-02
5.1640932e-02
4.3771444e-02
1.9175848e-02
-1.3679053e-03
-3.3851944e-03
1.2921529e-03
-8.0215998e-03
-2.8491466e-02
-3.7801570e-02
-2.5535987e-02
-5.0412064e-03
5.6180683e-03
4.2675345e-03
3.7680719e-03
1.2357759e-02
2.2175407e-02
2.2800650e-02
1.6346097e-02
1.6874215e-02
3.0918412e-02
4.1784859e-02
3.1402295e-02
6.6020857e-03
-1.3161658e-02
-2.2820189e-02
-3.3160664e-02
-5.1761013e-02
-7.0276105e-02
-7.1452632e-02
-4.8489394e-02
-1.4041036e-02
1.4119783e-02
3.4049342e-02
5.7577197e-02
8.7436007e-02
1.0562722e-01
9.2361632e-02
5.1343364e-02
6.1541318e-03
-2.6739008e-02
-5.3074856e-02
-8.0866329e-02
-9.7594640e-02
-8.5727957e-02
-4.7199313e-02
-7.3136543e-04
3.4544670e-02
5.3450912e-02
6.4153161e-02
6.7623221e-02
5.0896867e-02
1.0835784e-02
-3.2832688e-02
-5.6774797e-02
-5.8480710e-02
-5.4627503e-02
-5.2723442e-02
-3.9768935e-02
-1.0325790e-03
5.5511458e-02
9.7327159e-02
1.0483707e-01
9.3655433e-02
8.4897138e-02
7.7242875e-02
5.5196156e-02
9.5601213e-03
-5.5067688e-02
-1.1020717e-01
-1.2630634e-01
-1.1371678e-01
-9.0650966e-02
-5.4806328e-02
-6.5822623e-03
3.5968662e-02
4.9516121e-02
3.1989912e-02
6.8314055e-03
-2.5328300e-03
2.8826742e-03
5.5078255e-03
2.9086198e-04
2.1789799e-03
2.4114941e-02
5.5968644e-02
7.4236237e-02
7.1039138e-02
5.8939502e-02
5.2634374e-02
5.1927755e-02
4.4870488e-02
2.6939354e-02
7.0079131e-03
-2.4440198e-03
-3.8083333e-03
-1.4581146e-02
-3.9870122e-02
-6.2012046e-02
-6.3287634e-02
-4.8104037e-02
-3.3615666e-02
-2.6843136e-02
-1.8067332e-02
3.7647161e-03
2.9429225e-02
3.8580286e-02
2.7924421e-02
1.4450202e-02
1.2661207e-02
1.4365067e-02
2.0996548e-03
-2.2819909e-02
-3.9844105e-02
-3.5646593e-02
-2.3906209e-02
-2.5542473e-02
-3.7500823e-02
-3.6822572e-02
-1.5192523e-02
5.7958227e-03
3.6444986e-03
-1.7680653e-02
-3.4935762e-02
-3.3688729e-02
-2.4471316e-02
-2.4509726e-02
-3.1785567e-02
-2.8761567e-02
-8.4916394e-03
1.4935282e-02
2.4286867e-02
2.0025884e-02
1.8503948e-02
2.6976702e-02
3.3331727e-02
2.7410677e-02
1.6813883e-02
1.9907368e-02
4.8238980e-02
9.2912897e-02
1.3044375e-01
1.4775806e-01
1.5125582e-01
1.5199333e-01
1.5183225e-01
1.4454136e-01
1.3316235e-01
1.2804743e-01
1.2637113e-01
1.0906276e-01
6.4330657e-02
7.3362414e-03
-3.6856447e-02
-6.3461206e-02
-9.2597218e-02
-1.4116121e-01
-1.9563149e-01
-2.2469528e-01
-2.1989033e-01
-2.0650500e-01
-2.1071553e-01
-2.3179643e-01
-2.5103620e-01
-2.5704327e-01
-2.5429808e-01
-2.4577143e-01
-2.0919986e-01
-1.0084009e-01
6.7130208e-02
2.1297660e-01
2.9424261e-01
3.1985369e-01
3.0549765e-01
2.6312591e-01
1.8820804e-01
7.4769445e-02
-6.0431964e-02
-1.8426946e-01
-2.7079310e-01
-3.0934195e-01
-2.9437311e-01
-2.1648251e-01
-7.6873143e-02
9.1406100e-02
2.3083155e-01
2.9888838e-01
2.9622703e-01
2.5144626e-01
1.8819338e-01
1.1566236e-01
4.8021775e-02
1.1634243e-02
2.3009516e-02
6.1755717e-02
8.4408827e-02
7.4270416e-02
5.0796059e-02
3.7342896e-02
3.5155687e-02
2.8273177e-02
1.0881539e-02
-2.5716387e-03
3.0192272e-03
2.3041923e-02
3.9805886e-02
4.2851215e-02
3.5855775e-02
2.5429880e-02
1.0633005e-02
-1.0939232e-02
-3.1047525e-02
-3.4365026e-02
-1.6498882e-02
5.5330176e-03
8.6504466e-03
-1.1077132e-02
-3.8115993e-02
-5.9694465e-02
-7.6628056e-02
-9.3500542e-02
-1.0777384e-01
-1.0827652e-01
-9.0196630e-02
-6.6675964e-02
-5.5227002e-02
-5.6865772e-02
-5.3232386e-02
-3.1042718e-02
-3.9204955e-03
4.4596209e-03
-1.0585804e-02
-3.2353349e-02
-4.3564830e-02
-4.6674199e-02
-5.6480828e-02
-7.4744305e-02
-8.3263511e-02
-6.7976362e-02
-3.8508843e-02
-9.7300979e-03
