-5.5124926e-02
-3.4350940e-02
-2.0740188e-02
-1.9227765e-02
-2.7158453e-02
-3.6675714e-02
-3.9448017e-02
-2.1821080e-02
2.9546277e-02
1.2957838e-01
2.9667215e-01
5.1208459e-01
6.8009854e-01
6.7158984e-01
4.3025133e-01
3.8641018e-02
-3.3105759e-01
-5.4862524e-01
-5.9110353e-01
-4.9745224e-01
-3.2156242e-01
-1.1794166e-01
5.4022698e-02
1.3999014e-01
1.3365375e-01
8.7225925e-02
7.4142501e-02
1.3617004e-01
2.5200709e-01
3.4510983e-01
3.2504996e-01
1.6610855e-01
-6.0217812e-02
-2.5503283e-01
-3.6473616e-01
-3.8211051e-01
-3.2726474e-01
-2.4350227e-01
-1.8058371e-01
-1.6044106e-01
-1.5612706e-01
-1.1809614e-01
-1.3026697e-02
1.7223040e-01
4.1156278e-01
6.1438538e-01
6.7738897e-01
5.6171776e-01
3.1202382e-01
1.8835928e-02
-2.3918754e-01
-4.1993742e-01
-5.0682327e-01
-4.9995711e-01
-4.1531270e-01
-2.7231279e-01
-7.8590858e-02
1.5149399e-01
3.5476840e-01
4.2268686e-01
2.9517405e-01
4.3425973e-02
-1.8736526e-01
-2.9988398e-01
-2.8272290e-01
-1.5505323e-01
6.9563634e-02
3.3936827e-01
5.3574953e-01
5.4527198e-01
3.5813460e-01
7.1612004e-02
-1.9443256e-01
-3.6808714e-01
-4.3962024e-01
-4.3785589e-01
-3.9481370e-01
-3.3264088e-01
-2.6221620e-01
-1.7659617e-01
-6.3133399e-02
9.1379368e-02
2.9587348e-01
5.1638350e-01
6.6427974e-01
6.5099979e-01
4.6895748e-01
2.0248518e-01
-4.8748118e-02
-2.2776697e-01
-3.2683986e-01
-3.7052897e-01
-3.8079990e-01
-3.6064677e-01
-3.0921737e-01
-2.3010446e-01
-1.3162338e-01
-2.9473376e-02
5.0790560e-02
8.5305182e-02
8.0815641e-02
7.5128134e-02
1.0491395e-01
1.7950804e-01
2.7018637e-01
3.2345037e-01
2.9415656e-01
1.7681515e-01
1.3193817e-02
-1.3590634e-01
-2.2870786e-01
-2.6226843e-01
-2.6505881e-01
-2.7157634e-01
-2.9461968e-01
-3.1288081e-01
-2.9280147e-01
-2.0752697e-01
-3.1614501e-02
2.4920764e-01
5.9467314e-01
8.7671711e-01
9.3506853e-01
7.0684784e-01
2.9015937e-01
-1.3740759e-01
-4.4175213e-01
-5.7602537e-01
-5.5852941e-01
-4.4233389e-01
-3.0063215e-01
-2.0174284e-01
-1.6145212e-01
-1.4477255e-01
-1.1185976e-01
-3.8415840e-02
7.6901187e-02
2.0401869e-01
2.8214506e-01
2.5194184e-01
1.2143783e-01
-2.5699451e-02
-1.0450269e-01
-7.6375795e-02
5.0222167e-02
2.2898623e-01
3.8915234e-01
4.5042276e-01
3.6775252e-01
1.6803869e-01
-7.1243529e-02
-2.6827099e-01
-3.7607946e-01
-3.9313704e-01
-3.4834127e-01
-2.8072459e-01
-2.1802582e-01
-1.6936464e-01
-1.3112007e-01
-9.4582126e-02
-5.3040028e-02
1.8668378e-03
8.1535827e-02
1.8928419e-01
3.0582169e-01
3.8309184e-01
3.6732611e-01
2.3554816e-01
2.7933992e-02
-1.6079895e-01
-2.5624316e-01
-2.4725081e-01
-1.6713536e-01
-6.8049822e-02
1.0565977e-02
6.3146489e-02
1.0960676e-01
1.6533818e-01
2.1755847e-01
2.3883923e-01
2.0348889e-01
8.6932938e-02
-9.6106425e-02
-2.7395903e-01
-3.8147780e-01
-3.9629151e-01
-3.1416881e-01
-1.4020016e-01
8.0297836e-02
2.4627980e-01
2.6266056e-01
1.3186176e-01
-3.9969040e-02
-1.3766292e-01
-1.1124379e-01
3.2937357e-02
2.4575685e-01
4.2317584e-01
4.3760210e-01
2.4582430e-01
-5.5377545e-02
-3.1797391e-01
-4.4888137e-01
-4.3336258e-01
-3.0365415e-01
-1.1822976e-01
3.5597485e-02
8.4244482e-02
3.7227095e-02
-2.3053773e-02
-1.3819497e-02
1.0485278e-01
3.0852490e-01
4.9619099e-01
5.3425069e-01
3.6126448e-01
5.9185780e-02
-2.2015076e-01
-3.8314805e-01
-4.1809241e-01
-3.5283454e-01
-2.3604292e-01
-1.4065065e-01
-1.2995256e-01
-1.9085415e-01
-2.4248988e-01
-2.1273655e-01
-7.1219341e-02
1.6956160e-01
4.3121308e-01
5.7925129e-01
5.1546951e-01
2.8131454e-01
2.8664167e-02
-1.1813651e-01
-1.2171268e-01
-2.2701064e-02
6.9493813e-02
4.9241562e-02
-8.4983792e-02
-2.3596683e-01
-3.1084264e-01
-2.7578649e-01
-1.3582802e-01
7.2735288e-02
2.6065673e-01
3.1298795e-01
1.8269553e-01
-5.6959785e-02
-2.7891173e-01
-4.0522086e-01
-4.1729074e-01
-3.2314286e-01
-1.4386052e-01
9.3116140e-02
3.5010207e-01
5.8366406e-01
7.3959038e-01
7.4755679e-01
5.6200220e-01
2.1970426e-01
-1.5833902e-01
-4.4422991e-01
-5.8254141e-01
-5.9296628e-01
-5.2427755e-01
-4.1645211e-01
-2.9809140e-01
-1.8722935e-01
-7.9960393e-02
3.1672501e-02
1.4435682e-01
2.4289009e-01
2.9997529e-01
3.0782822e-01
2.9884318e-01
3.1422070e-01
3.5703980e-01
3.6665403e-01
2.5969279e-01
2.5318495e-02
-2.5054125e-01
-4.6504459e-01
-5.6674273e-01
-5.6119437e-01
-4.8549108e-01
-3.7641396e-01
-2.5426331e-01
-1.2191445e-01
3.9088223e-02
2.5574418e-01
5.1954954e-01
7.5884933e-01
8.5995525e-01
7.4337598e-01
4.3918330e-01
6.3700188e-02
-2.6606082e-01
-4.9136313e-01
-6.0741915e-01
-6.2775514e-01
-5.6876953e-01
-4.4248184e-01
-2.5824663e-01
-3.9239345e-02
1.6364279e-01
2.8412758e-01
2.8762713e-01
2.0811416e-01
1.2574163e-01
1.1294807e-01
1.9727520e-01
3.3714606e-01
4.2522815e-01
3.5357216e-01
1.1149592e-01
-1.9136736e-01
-4.2109912e-01
-5.1433172e-01
-4.7953728e-01
-3.5305331e-01
-1.7720971e-01
-1.3880924e-02
6.4744956e-02
4.2173007e-02
-2.0128881e-02
-4.0541142e-02
4.0476001e-02
2.3889370e-01
4.9451133e-01
6.7258954e-01
6.4388885e-01
3.9577012e-01
4.1514278e-02
-2.8362013e-01
-5.0363779e-01
-6.0842827e-01
-6.2054095e-01
-5.6649151e-01
-4.7003851e-01
-3.4520233e-01
-1.8540474e-01
3.1286774e-02
3.1319853e-01
6.1823335e-01
8.4118978e-01
8.6880083e-01
6.7159192e-01
3.3266825e-01
-1.4327218e-02
-2.6564572e-01
-3.8597373e-01
-3.9891281e-01
-3.5539011e-01
-3.1046635e-01
-2.9761669e-01
-3.0681158e-01
-3.0264163e-01
-2.5906701e-01
-1.6064224e-01
-8.3793262e-03
1.7443799e-01
3.6054967e-01
5.0955818e-01
5.6035320e-01
4.6823145e-01
2.5938877e-01
1.7761502e-02
-1.7509662e-01
-2.7135122e-01
-2.8034540e-01
-2.4773739e-01
-2.0771460e-01
-1.7230472e-01
-1.3440972e-01
-7.2713536e-02
2.9633859e-02
1.5450073e-01
2.3760906e-01
2.0917775e-01
6.4054704e-02
-1.2663457e-01
-2.8113819e-01
-3.5390042e-01
-3.3696098e-01
-2.3950033e-01
-6.9215627e-02
1.5716697e-01
3.9464773e-01
5.5940455e-01
5.6176708e-01
3.8125524e-01
9.8823980e-02
-1.5713697e-01
-2.9601679e-01
-2.9718195e-01
-1.9097494e-01
-4.6435894e-02
4.1930713e-02
8.5917399e-03
-1.2383642e-01
-2.6149452e-01
-3.2091761e-01
-2.7069490e-01
-1.1104803e-01
1.4789023e-01
4.5967119e-01
7.0327760e-01
7.4665435e-01
5.6045958e-01
2.3437279e-01
-9.9568977e-02
-3.4593288e-01
-4.7408539e-01
-5.0259390e-01
-4.6997511e-01
-4.1129482e-01
-3.4397565e-01
-2.6257715e-01
-1.5413221e-01
-2.6024801e-02
8.1515049e-02
1.1782169e-01
7.2479954e-02
-1.9202905e-03
-2.6992654e-02
5.7044858e-02
2.6941917e-01
5.6352679e-01
8.1056564e-01
8.4919168e-01
6.1043591e-01
1.8758279e-01
-2.4471327e-01
-5.5493334e-01
-7.0654399e-01
-7.3232422e-01
-6.8184487e-01
-5.9015168e-01
-4.7382952e-01
-3.3491875e-01
-1.5399234e-01
1.0598394e-01
4.5611269e-01
8.2149182e-01
1.0352241e+00
9.5486252e-01
6.0656005e-01
1.6972428e-01
-1.7723720e-01
-3.6237094e-01
-4.0402289e-01
-3.6385583e-01
-3.1492662e-01
-2.9804465e-01
-3.0446565e-01
-3.0350246e-01
-2.5812891e-01
-1.3285618e-01
6.3402748e-02
2.4190763e-01
2.8094871e-01
1.4535968e-01
-6.7675884e-02
-2.3410374e-01
-2.9386044e-01
-2.3205057e-01
-4.3012979e-02
2.5555653e-01
5.8149010e-01
7.9567324e-01
7.7843645e-01
5.1471296e-01
1.1467309e-01
-2.5940301e-01
-4.9633905e-01
-5.7098886e-01
-5.0522179e-01
-3.3868532e-01
-1.4372778e-01
-1.9043928e-02
-2.4404779e-02
-1.2437879e-01
-2.2498131e-01
-2.5810965e-01
-1.9909992e-01
-3.6470265e-02
2.1922196e-01
4.9411333e-01
6.5032622e-01
5.7846840e-01
3.0725606e-01
-1.6116900e-02
-2.4877177e-01
-3.2789269e-01
-2.5874538e-01
-9.0907500e-02
7.5151280e-02
1.2206388e-01
8.3442043e-03
-1.9114365e-01
-3.5638196e-01
-4.1859249e-01
-3.7179077e-01
-2.3392695e-01
-2.5965469e-02
2.1743444e-01
4.3434825e-01
5.6871244e-01
6.0340749e-01
5.4269764e-01
3.8886018e-01
1.5001858e-01
-1.3372904e-01
-3.8568641e-01
-5.3749447e-01
-5.7399188e-01
-5.1680071e-01
-3.8144001e-01
-1.7878668e-01
5.0693325e-02
2.2535578e-01
2.6648975e-01
1.7156273e-01
2.1717550e-02
-8.3728745e-02
-7.9007395e-02
5.4697292e-02
2.8200062e-01
5.0569261e-01
6.0442299e-01
5.1628901e-01
2.8140460e-01
1.8860500e-03
-2.3017962e-01
-3.7371566e-01
-4.3753669e-01
-4.5072933e-01
-4.3597801e-01
-4.1411078e-01
-3.8589443e-01
-3.2053848e-01
-1.9669013e-01
-1.2495419e-02
2.0984527e-01
3.9847551e-01
4.6568362e-01
3.8090313e-01
2.0474720e-01
4.5197775e-02
-2.2649366e-02
2.5159842e-02
1.7483483e-01
3.5999239e-01
4.6683208e-01
3.9897902e-01
1.5992597e-01
-1.4376861e-01
-3.9040696e-01
-5.1915881e-01
-5.3397553e-01
-4.7173936e-01
-3.7373338e-01
-2.6726174e-01
-1.6330427e-01
-5.9205045e-02
5.5296937e-02
1.8498017e-01
3.2457214e-01
4.4979370e-01
5.1033513e-01
4.5010107e-01
2.5785564e-01
-5.7157154e-03
-2.4934938e-01
-4.0800174e-01
-4.6662044e-01
-4.4041716e-01
-3.4659337e-01
-1.9929065e-01
-1.3588647e-02
1.9536390e-01
4.0948978e-01
5.8044257e-01
6.2708859e-01
5.0023439e-01
2.4109707e-01
-4.1542301e-02
-2.4860296e-01
-3.4017056e-01
-3.2976467e-01
-2.6334810e-01
-1.9139158e-01
-1.4641441e-01
-1.4368171e-01
-1.7779988e-01
-2.2498874e-01
-2.6135279e-01
-2.7065965e-01
-2.3695734e-01
-1.4468908e-01
1.2119287e-02
2.2733418e-01
4.7106999e-01
6.8148034e-01
7.8507877e-01
7.2814319e-01
5.1083819e-01
2.0290645e-01
-9.3405939e-02
-3.0279494e-01
-4.0655156e-01
-4.3318110e-01
-4.2288676e-01
-4.0265512e-01
-3.8384781e-01
-3.6435484e-01
-3.3248462e-01
-2.6874523e-01
-1.5594993e-01
2.7351468e-03
1.7228985e-01
2.8835723e-01
2.9513447e-01
2.0092545e-01
7.9993747e-02
1.6896800e-02
6.3670176e-02
2.2545703e-01
4.4463849e-01
6.0128736e-01
5.7219892e-01
3.2794320e-01
-3.2552028e-02
-3.6197462e-01
-5.6775157e-01
-6.4068057e-01
-6.1419236e-01
-5.1942082e-01
-3.6820406e-01
-1.6204627e-01
8.5186431e-02
3.3780913e-01
5.3272270e-01
6.0065906e-01
5.2107676e-01
3.3408952e-01
1.0904840e-01
-8.3273966e-02
-1.9727779e-01
-2.1948718e-01
-1.5878977e-01
-5.2697960e-02
3.8883198e-02
6.6158278e-02
1.9450119e-02
-6.4390958e-02
-1.3102581e-01
-1.4630723e-01
-1.1095368e-01
-5.5929907e-02
-1.7042269e-02
-5.2657812e-03
-1.0352731e-02
-2.4072538e-02
-4.4991652e-02
-6.7124613e-02
-8.2358421e-02
-7.8159107e-02
-3.2769709e-02
5.6167462e-02
1.6203246e-01
2.3923532e-01
2.3319932e-01
1.3085236e-01
-1.6015212e-02
-1.3974280e-01
-2.0635238e-01
-2.2804096e-01
-2.3779915e-01
-2.4396464e-01
-2.2100944e-01
-1.3891546e-01
1.7380352e-02
2.3460184e-01
4.5196146e-01
5.7162260e-01
5.2367214e-01
3.3366754e-01
1.0112529e-01
-8.3632936e-02
-1.7869415e-01
-1.8890702e-01
-1.5642073e-01
-1.3469512e-01
-1.5749620e-01
-2.2035826e-01
-2.9319140e-01
-3.5108989e-01
-3.7717775e-01
-3.5765434e-01
-2.8646939e-01
-1.6137689e-01
2.2057653e-02
2.7215366e-01
5.7765403e-01
8.5762307e-01
9.6262383e-01
7.9506218e-01
4.1811147e-01
3.5399749e-03
-3.0392200e-01
-4.5756028e-01
-4.8108894e-01
-4.2477171e-01
-3.4348966e-01
-2.7339701e-01
-2.2307982e-01
-1.8771775e-01
-1.5594895e-01
-1.1408389e-01
-6.7247498e-02
-3.9203356e-02
-4.0366022e-02
-5.1655444e-02
-3.6765826e-02
4.4184710e-02
2.1842695e-01
4.6106532e-01
6.6420643e-01
6.8901995e-01
4.8470618e-01
1.3782929e-01
-2.0506617e-01
-4.4305278e-01
-5.5426117e-01
-5.6661401e-01
-5.2179379e-01
-4.5524695e-01
-3.8472813e-01
-3.0185543e-01
-1.7636198e-01
2.7676373e-02
3.2275584e-01
6.6312497e-01
9.2805628e-01
9.7611383e-01
7.6268278e-01
3.8665063e-01
9.3794007e-03
-2.5416026e-01
-3.7324803e-01
-3.7703625e-01
-3.2432847e-01
-2.7743560e-01
-2.7136504e-01
-2.9950220e-01
-3.3140871e-01
-3.3747256e-01
-3.0042034e-01
-2.1879186e-01
-9.8916381e-02
4.9952746e-02
2.0878171e-01
3.4603407e-01
4.2368812e-01
4.1910811e-01
3.3786184e-01
2.1189870e-01
9.6048987e-02
3.2356206e-02
1.3391971e-02
-7.5319788e-03
-7.7710411e-02
-2.0374950e-01
-3.3855361e-01
-4.2174091e-01
-4.2738805e-01
-3.6025810e-01
-2.3029346e-01
-4.6138829e-02
1.8422497e-01
4.4207478e-01
6.6297322e-01
7.3869483e-01
6.0244272e-01
2.9859266e-01
-5.0302455e-02
-3.2783917e-01
-4.8530549e-01
-5.3388268e-01
-5.0078814e-01
-4.1511707e-01
-3.0014077e-01
-1.6276460e-01
-4.4880636e-03
1.5659941e-01
2.6692431e-01
2.6131964e-01
1.3345164e-01
-3.7081339e-02
-1.4800072e-01
-1.4595875e-01
-2.2295572e-02
2.0761122e-01
4.8383332e-01
6.9132129e-01
7.0800947e-01
4.9482064e-01
1.3635158e-01
-2.2122630e-01
-4.7079361e-01
-5.8703599e-01
-5.9916720e-01
-5.4948182e-01
-4.6813751e-01
-3.6781853e-01
-2.4253414e-01
-7.1697029e-02
1.5505327e-01
4.0627322e-01
5.9482173e-01
6.1626082e-01
4.4246003e-01
1.6674599e-01
-7.5656812e-02
-2.0041285e-01
-1.8818544e-01
-7.8770428e-02
3.8983786e-02
8.0258611e-02
2.2953731e-02
-8.5210878e-02
-1.7369942e-01
-1.9914701e-01
-1.5432268e-01
-6.4543907e-02
1.9379650e-02
4.9757812e-02
1.5454879e-02
-4.8164842e-02
-8.9515498e-02
-8.0379773e-02
-1.8769481e-02
8.3477096e-02
2.0391545e-01
3.0846126e-01
3.4256868e-01
2.5573257e-01
5.6318131e-02
-1.8082162e-01
-3.6622920e-01
-4.4703655e-01
-4.1726071e-01
-2.9710120e-01
-1.0724137e-01
1.2726109e-01
3.4140670e-01
4.3875806e-01
3.6616743e-01
1.7469656e-01
-1.5012436e-02
-1.1124993e-01
-8.8231436e-02
2.8969592e-02
1.7030406e-01
2.4025893e-01
1.6252256e-01
-4.8477355e-02
-2.7789468e-01
-4.1883872e-01
-4.4685364e-01
-3.9405578e-01
-3.0636964e-01
-2.1714358e-01
-1.2716859e-01
-7.2174512e-03
1.7179487e-01
4.0139241e-01
6.1261858e-01
7.0965483e-01
6.3934087e-01
4.2561626e-01
1.4726624e-01
-1.1245997e-01
-3.0142871e-01
-4.0582609e-01
-4.3948542e-01
-4.2485569e-01
-3.7821270e-01
-3.0256303e-01
-1.9356960e-01
-5.9240737e-02
7.2226438e-02
1.6376467e-01
1.8775409e-01
1.4890366e-01
8.4203688e-02
3.4129578e-02
2.3126180e-02
5.8704604e-02
1.3352869e-01
2.1949369e-01
2.7353922e-01
2.5963710e-01
1.6866898e-01
3.0116701e-02
-1.0871037e-01
-2.1579445e-01
-2.7442084e-01
-2.8058707e-01
-2.5661701e-01
-2.3624118e-01
-2.3943231e-01
-2.6466721e-01
-2.8746254e-01
-2.8312981e-01
-2.3774650e-01
-1.3478736e-01
4.5247064e-02
3.0581889e-01
6.0808010e-01
8.6027050e-01
9.4006251e-01
7.7396170e-01
4.1337116e-01
7.6470693e-03
-3.0054527e-01
-4.5001173e-01
-4.5437882e-01
-3.6020480e-01
-2.2791626e-01
-1.2390844e-01
-9.2007841e-02
-1.2743036e-01
-1.8879056e-01
-2.3269223e-01
-2.3759853e-01
-2.0641843e-01
-1.5063020e-01
-7.5998026e-02
2.3033569e-02
1.6174824e-01
3.4401316e-01
5.2735073e-01
6.1681561e-01
5.2664727e-01
2.6311726e-01
-6.6466920e-02
-3.3679912e-01
-4.8266355e-01
-4.9905456e-01
-4.1443148e-01
-2.7520652e-01
-1.3028852e-01
-1.6471887e-02
5.8494200e-02
1.1851873e-01
1.9763229e-01
3.0991807e-01
4.2514803e-01
4.7590060e-01
4.0439872e-01
2.1354833e-01
-3.0733037e-02
-2.4939062e-01
-3.9336275e-01
-4.5133062e-01
-4.3696543e-01
-3.7162471e-01
-2.7872775e-01
-1.8501474e-01
-1.0731956e-01
-3.9346273e-02
4.4016912e-02
1.7534495e-01
3.6972878e-01
5.8867148e-01
7.2118175e-01
6.4579486e-01
3.5882626e-01
-8.8512718e-03
-3.1285517e-01
-4.8287171e-01
-5.2147768e-01
-4.6896498e-01
-3.7329192e-01
-2.7330393e-01
-1.8951747e-01
-1.2024969e-01
-4.8221623e-02
4.1600283e-02
1.5335448e-01
2.8560832e-01
4.2370068e-01
5.2590797e-01
5.3380721e-01
4.0678058e-01
1.6568379e-01
-1.0469290e-01
-3.1230450e-01
-4.1230814e-01
-4.1485856e-01
-3.5568504e-01
-2.7182237e-01
-1.9118083e-01
-1.2216002e-01
-5.6327191e-02
1.9638543e-02
1.2040644e-01
2.4663516e-01
3.5262514e-01
3.6424465e-01
2.4844531e-01
4.7933989e-02
-1.4741186e-01
-2.6582676e-01
-2.8988486e-01
-2.2824275e-01
-8.8416264e-02
1.0076845e-01
2.6074838e-01
2.9790498e-01
1.7880028e-01
-3.5026877e-02
-2.3658090e-01
-3.5443544e-01
-3.6800212e-01
-2.7970335e-01
-9.6218145e-02
1.5630803e-01
3.9807973e-01
5.2904305e-01
5.0764844e-01
3.6997322e-01
1.8457473e-01
6.6805492e-03
-1.3910805e-01
-2.4813126e-01
-3.1678079e-01
-3.4477682e-01
-3.3643764e-01
-2.8828235e-01
-1.9385796e-01
-6.6488339e-02
4.4381534e-02
8.2769796e-02
3.9488551e-02
-3.6868891e-02
-7.9631694e-02
-5.0981732e-02
5.3587780e-02
2.1027846e-01
3.6623737e-01
4.6382000e-01
4.6602009e-01
3.7426204e-01
2.2839492e-01
7.2548552e-02
-7.4594672e-02
-2.0791495e-01
-3.1348422e-01
-3.7283051e-01
-3.7721088e-01
-3.3406815e-01
-2.5941178e-01
-1.7117079e-01
-9.5127014e-02
-4.8479511e-02
-1.3723909e-02
4.5497166e-02
1.4566783e-01
2.6234354e-01
3.3443908e-01
3.0292686e-01
1.6700447e-01
-9.8410596e-03
-1.5422552e-01
-2.2992729e-01
-2.4381820e-01
-2.0759219e-01
-1.1369823e-01
3.0337112e-02
1.8558818e-01
2.9146584e-01
2.8622089e-01
1.6645442e-01
-2.8274611e-03
-1.5255342e-01
-2.4206849e-01
-2.5932078e-01
-2.1891094e-01
-1.4498415e-01
-5.3468886e-02
5.3511154e-02
1.7895783e-01
3.1130166e-01
4.0393935e-01
3.8773621e-01
2.2972018e-01
-1.7505174e-02
-2.4817561e-01
-3.8874001e-01
-4.2487593e-01
-3.6932513e-01
-2.3926722e-01
-7.4230966e-02
5.2492714e-02
9.4089981e-02
7.9199211e-02
7.7388538e-02
1.4295917e-01
2.7799027e-01
4.1853143e-01
4.6498932e-01
3.5629044e-01
1.3106024e-01
-1.0430815e-01
-2.6300953e-01
-3.1924893e-01
-2.9801761e-01
-2.5143745e-01
-2.3648332e-01
-2.7352725e-01
-3.2361333e-01
-3.3360454e-01
-2.7448916e-01
-1.3099076e-01
1.0303236e-01
4.0360843e-01
6.8169065e-01
7.9642032e-01
6.6563995e-01
3.4949608e-01
-3.4871264e-03
-2.7109330e-01
-4.1343049e-01
-4.5242920e-01
-4.3341631e-01
-3.9140058e-01
-3.3408652e-01
-2.4703355e-01
-1.0469411e-01
9.9420611e-02
3.1718199e-01
4.4518177e-01
3.9277586e-01
1.7638123e-01
-7.9996514e-02
-2.5035128e-01
-2.8033615e-01
-1.5990073e-01
9.6223759e-02
4.1368224e-01
6.4707615e-01
6.4921894e-01
3.9873556e-01
3.2661899e-02
-2.8315692e-01
-4.6711203e-01
-5.2080959e-01
-4.8542073e-01
-4.0404589e-01
-3.0877336e-01
-2.2517332e-01
-1.6669948e-01
-1.2260064e-01
-6.9124329e-02
1.9267763e-02
1.7196035e-01
3.9382768e-01
6.2788351e-01
7.6303787e-01
6.9775975e-01
4.3168699e-01
8.2773607e-02
-2.1106216e-01
-3.7887329e-01
-4.2225309e-01
-3.8751955e-01
-3.2727239e-01
-2.7671763e-01
-2.5242554e-01
-2.4610160e-01
-2.3474283e-01
-2.0185956e-01
-1.4003694e-01
-4.5562791e-02
9.0246965e-02
2.7961151e-01
4.9542586e-01
6.3048186e-01
5.7196793e-01
3.2489827e-01
1.3915779e-02
-2.2707121e-01
-3.4285310e-01
-3.4907406e-01
-2.9140802e-01
-2.2324792e-01
-1.7628857e-01
-1.4451187e-01
-1.0973004e-01
-5.5893690e-02
3.2840269e-02
1.6059965e-01
3.0685759e-01
4.1642793e-01
4.2784063e-01
3.2463628e-01
1.4235828e-01
-6.4854938e-02
-2.4951694e-01
-3.7861754e-01
-4.4198485e-01
-4.4615321e-01
-4.0390618e-01
-3.2230466e-01
-1.8840611e-01
1.4948903e-02
2.7746566e-01
5.3720164e-01
6.9313400e-01
6.6315321e-01
4.5102750e-01
1.5699219e-01
-9.9579996e-02
-2.5184239e-01
-2.9077072e-01
-2.3435494e-01
-1.1462176e-01
4.9762297e-03
5.0000316e-02
-1.0555666e-02
-1.4542602e-01
-2.8882989e-01
-3.8576454e-01
-4.1767609e-01
-3.8773173e-01
-2.9594953e-01
-1.3903858e-01
8.7207427e-02
3.7462929e-01
6.6017223e-01
8.2634186e-01
7.7729734e-01
5.1800276e-01
1.5758626e-01
-1.6474005e-01
-3.6108094e-01
-4.1724778e-01
-3.6149941e-01
-2.4432189e-01
-1.3408200e-01
-8.9725989e-02
-1.2468484e-01
-2.0059806e-01
-2.6120036e-01
-2.6582672e-01
-2.0312838e-01
-8.7784511e-02
7.2268704e-02
2.8180941e-01
5.1246106e-01
6.7034797e-01
6.3864946e-01
3.8716489e-01
1.5366615e-02
-3.2501022e-01
-5.2802281e-01
-5.7791051e-01
-5.1989654e-01
-4.0704080e-01
-2.7209188e-01
-1.2330074e-01
5.1380482e-02
2.6891739e-01
5.0361354e-01
6.5685759e-01
6.1779745e-01
3.8417404e-01
8.2802017e-02
-1.4744468e-01
-2.3814084e-01
-1.9420801e-01
-8.2622431e-02
6.0770449e-03
1.5648925e-02
-4.7499791e-02
-1.3404108e-01
-1.9451556e-01
-2.0447806e-01
-1.6776766e-01
-1.0852006e-01
-5.0746605e-02
-3.5204328e-03
3.1617909e-02
4.3570097e-02
1.4708765e-02
-5.4981772e-02
-1.3576227e-01
-1.8173303e-01
-1.6389997e-01
-8.0625817e-02
5.6173006e-02
2.2650630e-01
3.9388745e-01
4.9414239e-01
4.7083584e-01
3.2577830e-01
1.1427953e-01
-1.0100605e-01
-2.8156744e-01
-4.0996457e-01
-4.8123492e-01
-4.9526404e-01
-4.5578071e-01
-3.7109829e-01
-2.4316846e-01
-6.4906053e-02
1.6876470e-01
4.4111433e-01
6.8220936e-01
7.7528199e-01
6.5226470e-01
3.7578405e-01
9.0209597e-02
-8.9225624e-02
-1.2996945e-01
-7.8583554e-02
-3.2021251e-02
-6.8692367e-02
-1.8662383e-01
-3.2061258e-01
-4.0858066e-01
-4.2748279e-01
-3.8545567e-01
-3.0533750e-01
-2.1301577e-01
-1.2774673e-01
-5.4665133e-02
1.4034610e-02
9.3123793e-02
1.9780635e-01
3.2577925e-01
4.4201560e-01
4.9097836e-01
4.3457266e-01
2.8468567e-01
9.9420615e-02
-5.2012117e-02
-1.2881388e-01
-1.3256883e-01
-9.9293304e-02
-7.6738105e-02
-8.9068317e-02
-1.2058195e-01
-1.3600548e-01
-1.1388961e-01
-6.6875779e-02
-2.9392032e-02
-2.6443603e-02
-5.8526148e-02
-1.0054151e-01
-1.2407744e-01
-1.1927545e-01
-8.6412120e-02
-3.6128759e-02
1.0049145e-02
3.5666766e-02
2.9485455e-02
-1.6337589e-02
-8.9495327e-02
-1.5149873e-01
-1.5758233e-01
-7.2986016e-02
1.2129866e-01
4.0089833e-01
6.6253544e-01
7.5574512e-01
6.0586265e-01
2.9201881e-01
-3.1972595e-02
-2.5571401e-01
-3.4672130e-01
-3.3502876e-01
-2.8551402e-01
-2.5376651e-01
-2.5527297e-01
-2.7449784e-01
-2.8662654e-01
-2.7304513e-01
-2.2693894e-01
-1.4421897e-01
-2.7119064e-02
9.2752441e-02
1.5879420e-01
1.3830666e-01
6.0310444e-02
-6.7009483e-03
-8.9952575e-03
7.0100468e-02
2.1468656e-01
3.6349700e-01
4.3337650e-01
3.8382139e-01
2.3261498e-01
3.8917209e-02
-1.2224270e-01
-2.0051305e-01
-1.8722342e-01
-1.0466025e-01
4.6413287e-03
8.4653610e-02
8.7317415e-02
9.8294118e-04
-1.3504131e-01
-2.5438020e-01
-3.1317542e-01
-3.0564504e-01
-2.4944316e-01
-1.7288481e-01
-1.0919430e-01
-7.9213559e-02
-7.1343768e-02
-5.7035363e-02
-1.2174450e-02
7.8362448e-02
2.1365091e-01
3.7373313e-01
5.1903646e-01
5.9454873e-01
5.5618824e-01
3.9908196e-01
1.5682536e-01
-1.1352360e-01
-3.5031407e-01
-5.1243424e-01
-5.8806611e-01
-5.7999423e-01
-4.9510169e-01
-3.4542417e-01
-1.4384543e-01
9.7434989e-02
3.4479549e-01
5.1756047e-01
5.2758999e-01
3.6130268e-01
1.0476371e-01
-1.2039659e-01
-2.4090138e-01
-2.4948518e-01
-1.8198276e-01
-9.0304936e-02
-8.5965488e-03
6.4007382e-02
1.5113735e-01
2.6749611e-01
3.8138365e-01
4.1130939e-01
3.0147473e-01
9.3344746e-02
-1.1596327e-01
-2.5691989e-01
-3.1853928e-01
-3.2444604e-01
-2.9852202e-01
-2.7149453e-01
-2.6969489e-01
-2.8078948e-01
-2.7265822e-01
-2.2837639e-01
-1.5483154e-01
-6.7319149e-02
3.1326410e-02
1.5849963e-01
3.4093777e-01
5.7122611e-01
7.6066313e-01
7.7151639e-01
5.4763425e-01
1.8832929e-01
-1.4379165e-01
-3.4701554e-01
-4.0849449e-01
-3.6657146e-01
-2.7646893e-01
-1.9504532e-01
-1.5908385e-01
-1.6878475e-01
-1.9788584e-01
-2.1464304e-01
-1.9820349e-01
-1.4580312e-01
-6.4813459e-02
3.0447554e-02
1.0778389e-01
1.2793390e-01
8.2257618e-02
1.5408143e-02
-4.2377066e-03
6.9275521e-02
2.3931153e-01
4.4952289e-01
5.8433352e-01
5.4171418e-01
3.2661013e-01
4.7125088e-02
-1.7597543e-01
-2.8254484e-01
-2.7882969e-01
-2.1579184e-01
-1.6194171e-01
-1.5778457e-01
-1.9307018e-01
-2.2909216e-01
-2.3451586e-01
-1.9958892e-01
-1.2641536e-01
-3.3310664e-02
3.5890297e-02
3.4480367e-02
-4.8256071e-02
-1.6475635e-01
-2.4192970e-01
-2.4023183e-01
-1.5137443e-01
3.5603853e-02
3.1606659e-01
6.2667463e-01
8.4446756e-01
8.4823991e-01
6.1100498e-01
2.3639419e-01
-1.2304172e-01
-3.7496205e-01
-5.0086138e-01
-5.2735771e-01
-5.0195756e-01
-4.5073346e-01
-3.6939795e-01
-2.5045826e-01
-9.2401089e-02
1.0832054e-01
3.4522797e-01
5.6032795e-01
6.3877845e-01
4.9309528e-01
1.6982976e-01
-1.7554514e-01
-4.1669739e-01
-5.1433171e-01
-4.9071539e-01
-3.9635570e-01
-2.7418080e-01
-1.4221942e-01
4.4755488e-03
1.7672626e-01
3.6546671e-01
5.2531699e-01
5.9263128e-01
5.3421330e-01
3.8056942e-01
2.0226064e-01
5.4047900e-02
-5.2353381e-02
-1.4566778e-01
-2.6707927e-01
-4.1552917e-01
-5.3458012e-01
-5.7041238e-01
-5.1883636e-01
-4.1158823e-01
-2.8141426e-01
-1.5024792e-01
-2.7948543e-02
9.7073788e-02
2.4469774e-01
4.1018955e-01
5.5992406e-01
6.5278486e-01
6.5821493e-01
5.6770130e-01
3.9630650e-01
1.7271301e-01
-6.7907689e-02
-2.8875674e-01
-4.5940472e-01
-5.5735754e-01
-5.7467173e-01
-5.2005673e-01
-4.1004965e-01
-2.6690914e-01
-1.1434929e-01
2.4212093e-02
1.2691775e-01
1.7819278e-01
1.7266215e-01
1.3156470e-01
1.0113514e-01
1.2067037e-01
2.0250393e-01
3.2125996e-01
4.1561527e-01
4.2367486e-01
3.2653342e-01
1.5809974e-01
-2.3656325e-02
-1.6924026e-01
-2.5065533e-01
-2.6577202e-01
-2.4011523e-01
-2.0206464e-01
-1.6263554e-01
-1.2630152e-01
-9.2235728e-02
-5.9528937e-02
-3.8324345e-02
-4.6328657e-02
-1.0881441e-01
-2.0305403e-01
-2.5389282e-01
-2.4427263e-01
-2.0946877e-01
-1.6919979e-01
-1.2497020e-01
-5.6621532e-02
7.3448723e-02
2.9387393e-01
5.8981323e-01
8.6469252e-01
9.6321757e-01
7.8881183e-01
3.9564413e-01
-5.3935583e-02
-4.1268832e-01
-6.1718169e-01
-6.7778697e-01
-6.4064896e-01
-5.4755511e-01
-4.2354070e-01
-2.8048088e-01
-1.1556049e-01
8.4153870e-02
3.1629283e-01
5.2166773e-01
5.9579992e-01
4.7918024e-01
2.3136873e-01
-1.4076610e-02
-1.5531390e-01
-1.6030699e-01
-6.5585030e-02
2.5582109e-02
6.7742767e-03
-1.2963065e-01
-2.8900363e-01
-3.8328143e-01
-3.9188939e-01
-3.2342426e-01
-1.9113454e-01
-1.0906705e-02
2.0299688e-01
4.2226836e-01
6.0294802e-01
6.8577493e-01
6.0996981e-01
3.6231644e-01
1.3685082e-02
-3.0775394e-01
-5.0945281e-01
-5.7857983e-01
-5.4689511e-01
-4.5881078e-01
-3.4836873e-01
-2.2071982e-01
-5.3011223e-02
1.8509681e-01
4.6549819e-01
6.4610102e-01
5.8057555e-01
2.8721811e-01
-6.6535267e-02
-3.1613740e-01
-3.9911332e-01
-3.3183420e-01
-1.4417426e-01
1.3382971e-01
4.3464553e-01
6.3521043e-01
6.2267412e-01
3.8359407e-01
1.5736526e-02
-3.3360047e-01
-5.5758841e-01
-6.3713249e-01
-6.0638752e-01
-5.1331334e-01
-4.0197914e-01
-2.8713319e-01
-1.5777582e-01
6.1301075e-03
2.2639797e-01
4.9765552e-01
7.6408709e-01
9.2211868e-01
8.6260203e-01
5.6778291e-01
1.5188008e-01
-2.2624567e-01
-4.7017946e-01
-5.7253931e-01
-5.7417652e-01
-5.1899196e-01
-4.3511032e-01
-3.4253357e-01
-2.6013056e-01
-1.9103863e-01
-1.1475324e-01
-5.5337947e-03
1.4065245e-01
2.8614360e-01
3.6132030e-01
3.2415759e-01
2.1547822e-01
1.2586108e-01
1.1909068e-01
2.1454916e-01
3.7880717e-01
5.0164315e-01
4.5677261e-01
2.1787373e-01
-1.1140607e-01
-3.8947679e-01
-5.4079002e-01
-5.7308221e-01
-5.3486782e-01
-4.7374799e-01
-4.1206406e-01
-3.4037787e-01
-2.3634101e-01
-7.9540340e-02
1.5425317e-01
4.6448024e-01
7.6971359e-01
9.1730653e-01
7.9591123e-01
4.4627475e-01
2.8894211e-02
-3.0236888e-01
-4.7212610e-01
-4.7922976e-01
-3.6700808e-01
-2.0561751e-01
-8.2819358e-02
-6.0104903e-02
-1.2530772e-01
-2.1410817e-01
-2.6330683e-01
-2.3764861e-01
-1.3374061e-01
3.9192870e-02
2.6764391e-01
5.1012387e-01
6.8116013e-01
6.7769785e-01
4.6275973e-01
1.1315824e-01
-2.3197343e-01
-4.5260562e-01
-5.0923443e-01
-4.4374625e-01
-3.3263602e-01
-2.4153544e-01
-1.8781913e-01
-1.3603900e-01
-3.3407851e-02
1.4351609e-01
3.4142489e-01
4.4156544e-01
3.6751626e-01
1.6270675e-01
-5.3869776e-02
-1.7790382e-01
-1.6718314e-01
-2.8451374e-02
1.9318924e-01
3.8773207e-01
4.1354026e-01
2.2788161e-01
-5.4865851e-02
-2.7937017e-01
-3.7203317e-01
-3.4448558e-01
-2.4688574e-01
-1.3571829e-01
-6.0699979e-02
-5.3304016e-02
-1.0947776e-01
-1.8696212e-01
-2.3561355e-01
-2.3401425e-01
-1.8770955e-01
-1.0326440e-01
2.0937619e-02
1.9568879e-01
4.2374187e-01
6.5335728e-01
7.7797689e-01
7.1092021e-01
4.6247291e-01
1.3520777e-01
-1.5791050e-01
-3.5677087e-01
-4.6005736e-01
-4.9786668e-01
-4.9384971e-01
-4.4962540e-01
-3.5621383e-01
-2.0949948e-01
-2.0048867e-02
1.7527683e-01
3.0685300e-01
3.1056368e-01
1.9548324e-01
4.4749792e-02
-5.5013680e-02
-6.3234779e-02
4.6639021e-03
8.5855283e-02
1.0543449e-01
3.6040798e-02
-7.9895931e-02
-1.7931282e-01
-2.2453845e-01
-2.0334736e-01
-1.2072137e-01
9.3087897e-03
1.6704962e-01
3.1325401e-01
3.8514397e-01
3.3332153e-01
1.7655887e-01
-6.6402427e-03
-1.4106186e-01
-1.9865905e-01
-2.0422628e-01
-1.9994407e-01
-2.0197978e-01
-1.9494606e-01
-1.5206709e-01
-6.0386869e-02
5.4881312e-02
1.3879913e-01
1.4931765e-01
9.0191010e-02
1.2749672e-02
-2.0037872e-02
2.4788324e-02
1.4561103e-01
3.0094383e-01
4.0646406e-01
3.8722163e-01
2.3704265e-01
1.5307702e-02
-2.0488721e-01
-3.7558736e-01
-4.8230897e-01
-5.3252439e-01
-5.3183119e-01
-4.7990481e-01
-3.8167941e-01
-2.5307684e-01
-1.1158106e-01
4.2429022e-02
2.2758035e-01
4.6646380e-01
7.4902265e-01
9.8784052e-01
1.0371772e+00
8.0887449e-01
3.6772452e-01
-1.1594957e-01
-4.8909604e-01
-6.8482232e-01
-7.1903549e-01
-6.5062280e-01
-5.3443502e-01
-4.0375421e-01
-2.6952615e-01
-1.2189525e-01
5.1203850e-02
2.4578546e-01
4.2791698e-01
5.3126759e-01
4.9376780e-01
3.1373146e-01
5.8617988e-02
-1.7861584e-01
-3.2373637e-01
-3.4753125e-01
-2.6842166e-01
-1.4645469e-01
-6.2016852e-02
-5.9851606e-02
-1.1126583e-01
-1.4488458e-01
-1.0064856e-01
5.2053808e-02
3.0573307e-01
5.8080252e-01
7.1463717e-01
5.7111862e-01
1.9068354e-01
-2.3233409e-01
-5.1856201e-01
-6.1395100e-01
-5.5527069e-01
-3.8164444e-01
-1.1086427e-01
2.1809894e-01
4.9911451e-01
5.8921088e-01
4.3114029e-01
1.2319621e-01
-1.6718370e-01
-3.2593251e-01
-3.2444247e-01
-1.9292690e-01
1.4431638e-03
1.5965864e-01
1.9264486e-01
9.4195382e-02
-5.7856125e-02
-1.7049726e-01
-1.8987041e-01
-1.1830105e-01
-9.7927725e-03
5.6195137e-02
3.0861819e-02
-5.4672082e-02
-1.2046411e-01
-1.1312827e-01
-2.0783831e-02
1.4240606e-01
3.2506134e-01
4.3231788e-01
3.6782163e-01
1.2583623e-01
-1.8467475e-01
-4.3537372e-01
-5.5858353e-01
-5.5187272e-01
-4.4609689e-01
-2.8228489e-01
-9.5714066e-02
1.0536104e-01
3.2805152e-01
5.6239995e-01
7.5317271e-01
8.1241194e-01
6.8733583e-01
4.0411218e-01
5.3302150e-02
-2.5844456e-01
-4.6202362e-01
-5.4376422e-01
-5.2831916e-01
-4.5204708e-01
-3.4213509e-01
-2.1296030e-01
-7.4617135e-02
4.9308107e-02
1.2187800e-01
1.2791613e-01
9.6145954e-02
7.7167203e-02
9.9411429e-02
1.3240411e-01
9.3999097e-02
-2.2002929e-02
-1.1536916e-01
-1.4166521e-01
-1.2220210e-01
-7.1936033e-02
-6.7838614e-03
6.1426379e-02
1.3120597e-01
2.0223501e-01
2.6388160e-01
2.9073816e-01
2.4715719e-01
1.2073820e-01
-4.7062420e-02
-1.9424007e-01
-2.8692789e-01
-3.2576163e-01
-3.2912284e-01
-3.1409125e-01
-2.7896635e-01
-2.0504886e-01
-7.3530140e-02
1.2627870e-01
3.6433416e-01
5.4007671e-01
5.4286555e-01
3.5651238e-01
8.2408668e-02
-1.4665929e-01
-2.5367540e-01
-2.2476570e-01
-8.7155782e-02
8.3396249e-02
1.7489690e-01
1.2409430e-01
-2.2317772e-02
-1.5976659e-01
-2.1510991e-01
-1.7133852e-01
-4.7316158e-02
1.0718515e-01
2.0900591e-01
1.7576493e-01
-8.2210361e-04
-2.3057374e-01
-4.0306848e-01
-4.6683976e-01
-4.2480300e-01
-3.0085781e-01
-1.2344832e-01
7.0890162e-02
2.3756553e-01
3.5608291e-01
4.4700780e-01
5.4246164e-01
6.3805437e-01
6.6763191e-01
5.5183202e-01
2.8224500e-01
-5.7021533e-02
-3.4479337e-01
-5.0574813e-01
-5.4096873e-01
-4.9202368e-01
-4.0422294e-01
-3.1274801e-01
-2.4756786e-01
-2.2895433e-01
-2.4567623e-01
-2.5920872e-01
-2.3025288e-01
-1.3700706e-01
2.2799687e-02
2.4290191e-01
4.9199862e-01
6.8537751e-01
7.2625279e-01
5.8650726e-01
3.3909052e-01
1.0351327e-01
-3.9947802e-02
-7.7596847e-02
-5.2809370e-02
-4.2037657e-02
-9.9582258e-02
-2.1652252e-01
-3.3580110e-01
-4.0174479e-01
-3.9392345e-01
-3.1923333e-01
-1.9515310e-01
-5.2945050e-02
5.6032638e-02
7.5506303e-02
-6.7655458e-03
-1.2932234e-01
-2.0812835e-01
-2.0133422e-01
-1.1036491e-01
4.6159866e-02
2.3605512e-01
4.1437080e-01
5.4201531e-01
5.9665763e-01
5.6568546e-01
4.4597057e-01
2.6110183e-01
5.4936660e-02
-1.3309141e-01
-2.7514668e-01
-3.6452930e-01
-4.1224123e-01
-4.2333245e-01
-3.9727794e-01
-3.3900465e-01
-2.5565412e-01
-1.5592888e-01
-4.8444921e-02
5.5372230e-02
1.2868929e-01
1.4250137e-01
9.4585423e-02
1.2607803e-02
-5.9889407e-02
-8.0130452e-02
-2.2722793e-02
1.1278680e-01
3.0074520e-01
4.7982107e-01
5.5305539e-01
4.4359674e-01
1.6867758e-01
-1.5998577e-01
-4.1428728e-01
-5.2550816e-01
-4.9424354e-01
-3.5662805e-01
-1.5458461e-01
7.1718818e-02
2.6636274e-01
3.6039348e-01
3.1619915e-01
1.5506970e-01
-5.3311686e-02
-2.2566800e-01
-3.0685691e-01
-2.8087633e-01
-1.5285258e-01
5.6757423e-02
2.8855592e-01
4.3776732e-01
4.1254297e-01
2.2090776e-01
-2.8652023e-02
-2.2478435e-01
-3.1574666e-01
-3.0389592e-01
-2.1331777e-01
-7.5301144e-02
5.6140418e-02
1.1715105e-01
8.2824258e-02
-2.7887324e-03
-6.6240493e-02
-6.4027718e-02
1.2274820e-02
1.4075808e-01
2.5635683e-01
2.7410198e-01
1.5628197e-01
-4.1063172e-02
-2.1049589e-01
-2.8151597e-01
-2.4223065e-01
-1.2419515e-01
-5.3280558e-03
3.5518806e-02
-1.8569208e-02
-1.2295025e-01
-2.0867880e-01
-2.2651029e-01
-1.6675018e-01
-3.7775647e-02
1.5845542e-01
4.0300011e-01
6.1267033e-01
6.6597673e-01
4.8908263e-01
1.3404448e-01
-2.3162690e-01
-4.6441992e-01
-5.3738699e-01
-4.9827846e-01
-4.0786230e-01
-3.0588116e-01
-1.9191708e-01
-3.3539362e-02
2.0118275e-01
4.8318265e-01
6.8105110e-01
6.6453386e-01
4.4747984e-01
1.6140919e-01
-6.5796733e-02
-1.7607388e-01
-1.8382691e-01
-1.5354410e-01
-1.5450050e-01
-2.0881829e-01
-2.8577533e-01
-3.4043436e-01
-3.4913024e-01
-3.1364062e-01
-2.4276814e-01
-1.4106219e-01
-2.0127038e-02
8.4539985e-02
1.2181064e-01
7.1370238e-02
-2.0201227e-02
-7.5091555e-02
-3.5076459e-02
1.3598521e-01
4.3205101e-01
7.5425086e-01
9.2862942e-01
8.1616368e-01
4.3717519e-01
-3.0999445e-02
-4.0380973e-01
-6.0258057e-01
-6.4427769e-01
-5.8628337e-01
-4.8848919e-01
-3.9201251e-01
-3.1161813e-01
-2.3952378e-01
-1.4933743e-01
-1.0094671e-02
1.9496914e-01
4.4761141e-01
6.6787734e-01
7.4228361e-01
6.1390626e-01
3.2674681e-01
-8.0638685e-03
-2.8081678e-01
-4.4071583e-01
-4.9443340e-01
-4.7203415e-01
-4.0490808e-01
-3.1177122e-01
-2.0039534e-01
-7.9530891e-02
3.7314181e-02
1.2769386e-01
1.7058340e-01
1.7285668e-01
1.7508963e-01
2.1850096e-01
3.1171505e-01
4.2742661e-01
5.0435873e-01
4.7068042e-01
2.9156618e-01
3.2876414e-03
-2.9869597e-01
-5.1947183e-01
-6.1410473e-01
-5.9298448e-01
-4.9115860e-01
-3.4325501e-01
-1.8536688e-01
-4.9650395e-02
5.0556223e-02
1.2323776e-01
1.9255733e-01
2.8559698e-01
4.0734193e-01
5.1709207e-01
5.3595643e-01
4.0650164e-01
1.5299588e-01
-1.2649136e-01
-3.3649125e-01
-4.4196556e-01
-4.4963354e-01
-3.7837423e-01
-2.5240895e-01
-9.1222904e-02
8.4817126e-02
2.3710332e-01
3.0951563e-01
2.6439681e-01
1.3431067e-01
2.3599278e-03
-6.8432347e-02
-6.3798451e-02
-1.4640317e-02
2.3535021e-02
1.5496681e-02
-2.9639078e-02
-8.0669148e-02
-1.0853825e-01
-1.0004149e-01
-6.4781240e-02
-2.6693368e-02
-7.8542296e-03
-9.0677250e-03
-5.6661327e-03
2.7584547e-02
8.3488322e-02
1.2624314e-01
1.2911093e-01
9.9880932e-02
7.2706741e-02
6.8418813e-02
6.3696077e-02
1.6798189e-02
-8.1280930e-02
-1.9460254e-01
-2.7552786e-01
-3.0172408e-01
-2.7558623e-01
-2.0446825e-01
-9.4682745e-02
4.4313770e-02
1.9444520e-01
3.1774237e-01
3.5990515e-01
2.9773580e-01
1.6768782e-01
3.6784521e-02
-3.5894691e-02
-2.1292884e-02
7.1813865e-02
1.8341373e-01
2.1334376e-01
1.0302267e-01
-1.0423928e-01
-3.1001992e-01
-4.4094979e-01
-4.8313110e-01
-4.6036173e-01
-3.9595310e-01
-2.9870864e-01
-1.6177886e-01
2.4426265e-02
2.4480799e-01
4.5715709e-01
6.1964201e-01
7.0333468e-01
6.8900690e-01
5.6806901e-01
3.4035647e-01
2.9576491e-02
-2.9449382e-01
-5.4837865e-01
-6.9153551e-01
-7.2389648e-01
-6.5868809e-01
-5.1599745e-01
-3.1561417e-01
-6.5879441e-02
2.3008553e-01
5.2648912e-01
7.1075768e-01
6.6980789e-01
4.0934644e-01
8.0324472e-02
-1.5084157e-01
-2.0665028e-01
-9.6490953e-02
1.0009483e-01
2.5328720e-01
2.4756327e-01
6.7999010e-02
-1.8762804e-01
-3.9660529e-01
-4.9238910e-01
-4.7333390e-01
-3.6581864e-01
-1.9520015e-01
1.8202661e-02
2.3990728e-01
4.0052806e-01
4.3947569e-01
3.5521875e-01
2.0908085e-01
9.8292175e-02
7.7134513e-02
1.1225755e-01
1.2060597e-01
3.5922277e-02
-1.3343940e-01
-3.1049676e-01
-4.1842318e-01
-4.2841397e-01
-3.5478721e-01
-2.4087141e-01
-1.3722419e-01
-7.1434414e-02
-4.0145123e-02
-1.4511032e-02
4.2584353e-02
1.5767402e-01
3.4192377e-01
5.6430794e-01
7.2703626e-01
7.1341023e-01
4.7919678e-01
1.0006963e-01
-2.7329727e-01
-5.2184170e-01
-6.1713285e-01
-5.9254102e-01
-5.0021021e-01
-3.9266589e-01
-3.0481499e-01
-2.3352253e-01
-1.4801695e-01
-1.0332176e-02
2.0808498e-01
4.9121522e-01
7.5168419e-01
8.5410014e-01
7.1167986e-01
3.7657921e-01
2.2953066e-03
-2.6961494e-01
-3.7836660e-01
-3.5431339e-01
-2.8650351e-01
-2.6270857e-01
-3.1159949e-01
-3.8560730e-01
-4.1559579e-01
-3.7085056e-01
-2.5137446e-01
-6.1550832e-02
1.8267755e-01
4.1767510e-01
5.2597471e-01
4.2572908e-01
1.7344684e-01
-7.2643610e-02
-1.8592970e-01
-1.2126711e-01
1.0893498e-01
4.1932170e-01
6.3970672e-01
6.0848282e-01
3.1755567e-01
-7.8621699e-02
-4.0554311e-01
-5.7959757e-01
-6.0783991e-01
-5.4421606e-01
-4.5158715e-01
-3.6753288e-01
-2.9038712e-01
-1.9146778e-01
-3.3752359e-02
2.1012841e-01
5.2564330e-01
8.0896473e-01
8.9185672e-01
6.7970093e-01
2.5709850e-01
-1.8021660e-01
-4.7787373e-01
-5.8556928e-01
-5.2825616e-01
-3.6428349e-01
-1.6440977e-01
3.5407409e-03
1.0746967e-01
1.5840191e-01
1.8110374e-01
1.8792363e-01
1.7572937e-01
1.4794664e-01
1.2237010e-01
1.1346382e-01
1.1381427e-01
9.2216223e-02
2.7000096e-02
-7.5377416e-02
-1.8662790e-01
-2.6029175e-01
-2.6382934e-01
-2.0909254e-01
-1.4317759e-01
-1.1590965e-01
-1.4378430e-01
-1.9703045e-01
-2.2800696e-01
-2.0760551e-01
-1.3328598e-01
-2.2246532e-02
1.0337867e-01
2.3897881e-01
3.9707423e-01
5.6573277e-01
6.7568178e-01
6.3024668e-01
3.8397315e-01
4.4257671e-03
-3.5996323e-01
-5.8988548e-01
-6.5742327e-01
-5.9373562e-01
-4.3744254e-01
-2.0658808e-01
9.1542648e-02
3.9892597e-01
5.8302123e-01
5.2885628e-01
2.5932019e-01
-6.9122465e-02
-2.9632207e-01
-3.5099225e-01
-2.3930790e-01
-1.2841061e-02
2.2477449e-01
3.3655547e-01
2.5111349e-01
3.4526481e-02
-1.7403240e-01
-2.7097412e-01
-2.1302575e-01
-9.3667907e-03
2.6089111e-01
4.5570539e-01
4.4965492e-01
2.4533890e-01
-3.0084738e-02
-2.5261083e-01
-3.7953958e-01
-4.2415909e-01
-4.1000727e-01
-3.5291220e-01
-2.7277455e-01
-2.0297681e-01
-1.6697112e-01
-1.5577953e-01
-1.3358412e-01
-5.5350176e-02
1.1350380e-01
3.7656827e-01
6.7740077e-01
8.8986489e-01
8.8877176e-01
6.5035555e-01
2.6989172e-01
-1.1329908e-01
-3.9896224e-01
-5.5349590e-01
-5.9676580e-01
-5.7095151e-01
-5.1025966e-01
-4.3082255e-01
-3.3467838e-01
-2.1506815e-01
-6.1683543e-02
1.3176498e-01
3.5495639e-01
5.6146780e-01
6.7403018e-01
6.3178583e-01
4.3508305e-01
1.4972048e-01
-1.3009812e-01
-3.3155105e-01
-4.2718217e-01
-4.2969275e-01
-3.7273898e-01
-2.9489185e-01
-2.2619155e-01
-1.7038246e-01
-1.1086227e-01
-3.2508550e-02
7.4786892e-02
2.2185029e-01
3.9707968e-01
5.3571037e-01
5.4433765e-01
3.6597842e-01
5.0050198e-02
-2.5973809e-01
-4.4705926e-01
-4.9147227e-01
-4.2917849e-01
-3.0379646e-01
-1.4574430e-01
3.4943550e-02
2.3801986e-01
4.3667135e-01
5.6280316e-01
5.4720153e-01
3.8681581e-01
1.6087068e-01
-4.3094846e-02
-1.8539456e-01
-2.6627902e-01
-3.0815904e-01
-3.3208263e-01
-3.4320816e-01
-3.3982078e-01
-3.1581692e-01
-2.6251335e-01
-1.8757665e-01
-1.1279051e-01
-4.7285547e-02
2.2022497e-02
1.2092462e-01
2.6471601e-01
4.3235113e-01
5.6080781e-01
5.7281271e-01
4.4240235e-01
2.2633633e-01
1.1707931e-02
-1.4268758e-01
-2.2176827e-01
-2.4604233e-01
-2.4963248e-01
-2.5364895e-01
-2.5269666e-01
-2.2986543e-01
-1.8048611e-01
-1.1057590e-01
-2.5447169e-02
7.8475113e-02
1.9349927e-01
2.6356456e-01
2.2594056e-01
8.5109563e-02
-9.0482789e-02
-2.2464477e-01
-2.7708807e-01
-2.5100235e-01
-1.8203553e-01
-1.0478585e-01
-1.9788199e-02
9.1623859e-02
2.4860513e-01
4.4951284e-01
6.2627529e-01
6.6002617e-01
4.7668497e-01
1.3182780e-01
-2.2510946e-01
-4.7630967e-01
-5.8857316e-01
-5.8756249e-01
-5.2620176e-01
-4.4910123e-01
-3.7231912e-01
-2.8552261e-01
-1.6436688e-01
1.2410697e-02
2.5954886e-01
5.6975054e-01
8.7224001e-01
1.0324537e+00
9.3871995e-01
6.0150281e-01
1.5173832e-01
-2.5448044e-01
-5.2599458e-01
-6.5244556e-01
-6.6860364e-01
-6.1779689e-01
-5.3302162e-01
-4.3667245e-01
-3.3685065e-01
-2.3241077e-01
-1.2081357e-01
7.6487275e-03
1.6173232e-01
3.4295164e-01
5.3990733e-01
7.1256533e-01
7.9264899e-01
7.1393077e-01
4.6752374e-01
1.1744716e-01
-2.3179926e-01
-4.7674260e-01
-5.7389221e-01
-5.5350047e-01
-4.7210032e-01
-3.7365814e-01
-2.7079465e-01
-1.4666236e-01
2.4411865e-02
2.4962509e-01
4.7337769e-01
5.7313724e-01
4.6985536e-01
2.2134536e-01
-4.2482245e-02
-2.2733622e-01
-3.0682326e-01
-3.0741178e-01
-2.7624971e-01
-2.4579405e-01
-2.2199732e-01
-1.9130104e-01
-1.3566355e-01
-4.6132166e-02
7.4659241e-02
2.0969134e-01
3.2080292e-01
3.5304210e-01
2.8059592e-01
1.4078863e-01
6.5655659e-03
-5.6125764e-02
-3.7177764e-02
3.7283244e-03
-1.8693676e-03
-7.3075273e-02
-1.6913508e-01
-2.2231580e-01
-1.8752982e-01
-5.0674586e-02
1.7373970e-01
4.1857967e-01
5.6651866e-01
5.1490431e-01
2.5621971e-01
-1.0572740e-01
-4.2766395e-01
-6.1865219e-01
-6.6946420e-01
-6.1416469e-01
-4.7853724e-01
-2.6860990e-01
-2.6344769e-03
2.6028726e-01
4.3410157e-01
4.6000211e-01
3.6431246e-01
2.4733153e-01
2.0207986e-01
2.5646737e-01
3.6292606e-01
4.1448554e-01
3.0783675e-01
4.6582873e-02
-2.4283612e-01
-4.3836189e-01
-5.1033258e-01
-4.8512583e-01
-3.9636127e-01
-2.6280804e-01
-9.3643633e-02
8.2207891e-02
2.2062398e-01
2.9160917e-01
2.8943779e-01
2.2221131e-01
1.0351171e-01
-4.4313298e-02
-1.8801901e-01
-2.9081344e-01
-3.3046500e-01
-2.9921394e-01
-1.8969532e-01
1.3326504e-04
2.3497914e-01
4.2036074e-01
4.5786612e-01
3.3117743e-01
1.1752901e-01
-7.2310823e-02
-1.5907879e-01
-1.2460650e-01
-5.7994614e-03
1.2347840e-01
1.8253871e-01
1.3753978e-01
1.7235117e-02
-1.2743966e-01
-2.4985164e-01
-3.2148916e-01
-3.3588285e-01
-2.9003534e-01
-1.9419466e-01
-9.4134979e-02
-3.4930698e-02
-1.7180899e-02
-8.6556622e-03
3.3001312e-02
1.4836605e-01
3.6028522e-01
6.1450448e-01
7.3965826e-01
5.8655608e-01
2.0419151e-01
-2.0993499e-01
-4.9201846e-01
-5.9071442e-01
-5.4208588e-01
-4.2512273e-01
-3.0392471e-01
-2.0044689e-01
-1.0689539e-01
-3.3331639e-03
1.3056100e-01
2.9972256e-01
4.6862306e-01
5.6603070e-01
5.2061511e-01
3.1485197e-01
1.4221599e-02
-2.8074855e-01
-4.9140714e-01
-5.7765724e-01
-5.4384818e-01
-4.2379287e-01
-2.4557034e-01
-1.6734495e-02
2.7104619e-01
5.9252070e-01
8.2447475e-01
8.1215094e-01
5.2398387e-01
9.3552147e-02
-2.9503962e-01
-5.3137853e-01
-6.0336576e-01
-5.5676064e-01
-4.4777514e-01
-3.1996971e-01
-1.8916277e-01
-4.0210598e-02
1.4201338e-01
3.4218083e-01
5.0176690e-01
5.3949803e-01
4.1041232e-01
1.5523033e-01
-1.2371035e-01
-3.3381474e-01
-4.2610451e-01
-3.9620833e-01
-2.6246947e-01
-3.9356583e-02
2.4395162e-01
5.0672193e-01
6.2787160e-01
5.2435734e-01
2.2854485e-01
-1.2625807e-01
-4.0448042e-01
-5.4560321e-01
-5.5702302e-01
-4.7099520e-01
-3.0971262e-01
-8.6092642e-02
1.5529760e-01
3.3284447e-01
3.8732596e-01
3.3950222e-01
2.6664254e-01
2.2619342e-01
2.2028729e-01
2.0160234e-01
1.1117584e-01
-5.4348627e-02
-2.3500063e-01
-3.7304475e-01
-4.4349483e-01
-4.4478001e-01
-3.9339882e-01
-3.0813167e-01
-2.0020238e-01
-7.1600906e-02
9.2387892e-02
3.1015230e-01
5.6467751e-01
7.6584567e-01
7.7935661e-01
5.5004357e-01
1.6635878e-01
-2.1361507e-01
-4.7022029e-01
-5.8125076e-01
-5.9689963e-01
-5.8283392e-01
-5.8871542e-01
-6.2890566e-01
-6.7371785e-01
-6.6485690e-01
-5.4495639e-01
-3.0599100e-01
-6.3381251e-03
