-9.0381688e-04
-3.0773173e-02
-5.1893861e-02
-7.1458879e-02
-9.1916547e-02
-1.1363120e-01
-1.3963167e-01
-1.5994648e-01
-1.5933270e-01
-1.5069376e-01
-1.4390457e-01
-1.1459598e-01
-5.6632095e-02
8.5664475e-03
6.7534703e-02
1.1546638e-01
1.5025944e-01
1.8004091e-01
2.1002522e-01
2.2404080e-01
2.1495525e-01
1.9784904e-01
1.7680041e-01
1.3185336e-01
3.3532259e-02
-9.8349129e-02
-1.9988129e-01
-2.4268431e-01
-2.3102438e-01
-1.9088601e-01
-1.4448721e-01
-9.4633555e-02
-5.0385524e-02
-9.8103915e-03
2.5129625e-02
3.9163064e-02
3.1985048e-02
2.7721100e-02
3.8135609e-02
3.5725872e-02
1.2436017e-03
-5.2292041e-02
-1.0747067e-01
-1.5646042e-01
-2.0297187e-01
-2.4656991e-01
-2.7271643e-01
-2.6836222e-01
-2.1689050e-01
-9.8601996e-02
4.9759969e-02
1.5101117e-01
1.9805486e-01
2.1800619e-01
2.0521139e-01
1.6569008e-01
1.3624211e-01
1.3278875e-01
1.2789765e-01
1.0283365e-01
6.2549634e-02
1.2663485e-02
-3.8912075e-02
-7.9702621e-02
-1.0323378e-01
-1.1078580e-01
-1.0357646e-01
-7.6507015e-02
-2.5037846e-02
3.8727234e-02
9.1725626e-02
1.2519145e-01
1.5067515e-01
1.6668260e-01
1.4802858e-01
9.8931017e-02
4.9204884e-02
9.0004860e-03
-2.1242016e-02
-4.3711895e-02
-6.4795191e-02
-8.7755413e-02
-1.1425073e-01
-1.4080300e-01
-1.5172247e-01
-1.3236146e-01
-7.7870872e-02
-3.1956029e-03
6.4121160e-02
1.0632695e-01
1.2319991e-01
1.3319778e-01
1.4558176e-01
1.6200234e-01
1.8084584e-01
1.8723646e-01
1.7205316e-01
1.4136980e-01
9.7395357e-02
1.8967003e-02
-7.7807765e-02
-1.5092311e-01
-1.9633731e-01
-2.0788038e-01
-1.8640834e-01
-1.4464553e-01
-9.0479748e-02
-3.5479289e-02
7.2696811e-03
3.0613961e-02
3.8484610e-02
3.2297197e-02
3.0765471e-02
3.9055957e-02
2.8433113e-02
-9.2452082e-03
-5.5042963e-02
-9.0900134e-02
-1.2616602e-01
-1.7401200e-01
-2.2474342e-01
-2.5544759e-01
-2.4257474e-01
-1.7762900e-01
-6.3285485e-02
6.0440882e-02
1.4100016e-01
1.8434723e-01
2.1096327e-01
2.1063301e-01
1.8369727e-01
1.5513753e-01
1.3801008e-01
1.1351868e-01
6.1965143e-02
-1.6342147e-03
-4.4285851e-02
-5.3501149e-02
-5.0220728e-02
-4.1668237e-02
-1.3253259e-02
3.5079389e-02
9.8021001e-02
1.5650129e-01
1.9198543e-01
2.1113865e-01
2.2284111e-01
2.2635127e-01
2.0101824e-01
1.0636002e-01
-3.2830588e-02
-1.2397767e-01
-1.5249170e-01
-1.7028686e-01
-1.8544136e-01
-1.9167255e-01
-2.0783193e-01
-2.2690761e-01
-2.1543646e-01
-1.7004173e-01
-1.1419914e-01
-6.3883234e-02
-2.1115508e-02
2.5824146e-03
-6.1356866e-03
-3.4985109e-02
-5.8007012e-02
-6.2215792e-02
-5.3646736e-02
-5.4450469e-02
-8.4180055e-02
-1.3401380e-01
-1.7702381e-01
-1.8685948e-01
-1.4345989e-01
-6.2678330e-02
1.1875199e-02
7.7432275e-02
1.4470507e-01
1.9328008e-01
2.1404286e-01
2.1172514e-01
1.8499061e-01
1.4834207e-01
1.1594058e-01
7.9160743e-02
4.2611016e-02
2.4872158e-02
1.9192139e-02
-7.9303406e-04
-3.3332156e-02
-5.8069759e-02
-8.0234654e-02
-1.1200696e-01
-1.4117751e-01
-1.4518851e-01
-1.1692514e-01
-6.7605697e-02
-1.6667539e-02
3.2157229e-02
8.1039728e-02
1.1411423e-01
1.2794771e-01
1.2977410e-01
1.1271096e-01
8.4976547e-02
6.8154373e-02
6.2280062e-02
5.3077935e-02
2.9186226e-02
-1.1858337e-02
-5.0731008e-02
-7.2137882e-02
-8.4427691e-02
-9.8851200e-02
-1.0998677e-01
-8.7809340e-02
-3.1433242e-02
2.9758735e-02
7.9542134e-02
1.1467757e-01
1.4310336e-01
1.5927544e-01
1.4681615e-01
1.0846859e-01
6.2620366e-02
1.5618894e-02
-2.4926892e-02
-5.0411878e-02
-7.7349548e-02
-1.0519043e-01
-1.1383255e-01
-1.0794592e-01
-9.9731913e-02
-8.6807409e-02
-6.6606001e-02
-3.6935464e-02
4.1019496e-03
4.4152117e-02
6.6090535e-02
7.6082394e-02
8.8789838e-02
9.8342505e-02
9.1524269e-02
7.0101560e-02
5.0127739e-02
3.5684268e-02
1.9175384e-02
-4.0477092e-03
-4.1369422e-02
-8.8160049e-02
-1.2631819e-01
-1.4194969e-01
-1.3037230e-01
-9.6024158e-02
-5.2457990e-02
-9.7907783e-03
4.3441408e-02
9.5689228e-02
1.0906075e-01
8.8424602e-02
7.2209071e-02
7.7707119e-02
9.0015617e-02
8.2343302e-02
4.4618483e-02
-6.3505710e-03
-5.2655680e-02
-9.3731009e-02
-1.2836748e-01
-1.3845837e-01
-1.1330301e-01
-6.4849920e-02
-1.7106891e-02
2.1115896e-03
-1.0288903e-03
9.6014845e-03
3.6886151e-02
5.6014640e-02
5.8845569e-02
5.3088178e-02
5.0138091e-02
5.2654124e-02
5.1026499e-02
3.8209419e-02
8.9211850e-03
-2.5455260e-02
-5.1673399e-02
-8.2027721e-02
-1.1372571e-01
-1.2764619e-01
-1.1396635e-01
-7.4957675e-02
-2.8588548e-02
1.3718936e-02
5.9377652e-02
1.0445960e-01
1.2988177e-01
1.2272349e-01
8.8739095e-02
5.2288703e-02
2.7584573e-02
1.5805118e-02
1.0314713e-02
-4.5739095e-03
-3.4919958e-02
-6.6361511e-02
-8.4612976e-02
-9.4624978e-02
-1.0001933e-01
-8.7385271e-02
-5.4428326e-02
-1.5215851e-02
3.1444131e-02
7.6089174e-02
9.4984625e-02
9.5227250e-02
8.9245763e-02
7.9288831e-02
7.0489082e-02
5.6060850e-02
3.2591129e-02
1.4912246e-02
6.7033297e-03
-1.4717730e-02
-5.5521117e-02
-8.8613121e-02
-1.0326599e-01
-1.0726791e-01
-9.5124175e-02
-6.7213122e-02
-3.0597101e-02
1.5221428e-02
5.5376469e-02
7.5460372e-02
8.4765532e-02
9.1046090e-02
8.6526321e-02
7.1036633e-02
5.5519694e-02
3.3568742e-02
-2.1721837e-03
-3.5258141e-02
-5.0861117e-02
-6.6116544e-02
-1.0321244e-01
-1.3925116e-01
-1.4643397e-01
-1.2807037e-01
-8.6903978e-02
-3.9280717e-02
-5.6547998e-03
2.0760625e-02
4.6367325e-02
6.3457523e-02
6.7059729e-02
6.7632190e-02
7.9449376e-02
9.0325708e-02
7.4665245e-02
4.2398365e-02
1.5852816e-02
-2.3658641e-03
-1.1871847e-02
-2.4520025e-02
-4.7085566e-02
-6.0302874e-02
-4.8563200e-02
-1.1410256e-02
3.2762950e-02
6.2505592e-02
9.2920549e-02
1.3204779e-01
1.4726804e-01
1.1794854e-01
6.4242810e-02
2.0752986e-02
-1.9515251e-03
-7.3096626e-03
-9.9447580e-03
-2.3599587e-02
-4.1629502e-02
-6.4603899e-02
-9.4792918e-02
-1.1939564e-01
-1.3250902e-01
-1.4015117e-01
-1.2624110e-01
-7.9977378e-02
-3.0285125e-02
-7.8518726e-04
2.2880186e-03
-1.4161719e-02
-2.6784384e-02
-2.8014703e-02
-3.2611695e-02
-5.0671741e-02
-6.4174293e-02
-5.1615123e-02
-1.2317317e-02
3.1355971e-02
4.2712864e-02
2.6985312e-02
6.7733838e-03
-2.5464682e-02
-6.3430872e-02
-7.8069228e-02
-5.8814481e-02
-1.5925993e-02
2.6926191e-02
5.0844909e-02
7.3094577e-02
1.0975190e-01
1.4256557e-01
1.4954963e-01
1.2548706e-01
8.9043581e-02
6.2650315e-02
4.9939290e-02
4.1402120e-02
2.2611135e-02
-7.7858821e-03
-4.4137293e-02
-8.3979676e-02
-1.2204192e-01
-1.5317432e-01
-1.6588126e-01
-1.4950636e-01
-1.0494791e-01
-4.5466890e-02
6.6376695e-03
4.8997092e-02
8.6277200e-02
1.1238448e-01
1.2811640e-01
1.2871663e-01
1.1257061e-01
9.3518533e-02
7.2791885e-02
4.3384517e-02
1.6031840e-03
-4.3036513e-02
-6.9859859e-02
-8.5230849e-02
-1.0102004e-01
-1.1304241e-01
-1.1830388e-01
-1.0906566e-01
-8.3228871e-02
-4.6976802e-02
1.3172264e-03
5.7376229e-02
1.0237944e-01
1.2667195e-01
1.2748365e-01
1.0219594e-01
7.2920270e-02
6.4044590e-02
7.0690777e-02
7.6612285e-02
7.0256386e-02
4.0343290e-02
-1.0200231e-02
-5.3500220e-02
-8.1864319e-02
-1.0980569e-01
-1.3962667e-01
-1.5677139e-01
-1.4202807e-01
-9.7271481e-02
-4.5721725e-02
-3.8645962e-03
3.3701564e-02
7.5776538e-02
1.1748798e-01
1.3601396e-01
1.2263880e-01
9.8317771e-02
8.0222750e-02
6.7303669e-02
4.4913363e-02
1.1494609e-02
-2.1342537e-02
-5.3889593e-02
-8.1986193e-02
-1.0436996e-01
-1.2589259e-01
-1.2379142e-01
-8.8912326e-02
-4.5319292e-02
-4.1981705e-03
2.7289769e-02
5.2411994e-02
8.6209868e-02
1.1706199e-01
1.2075850e-01
1.0466877e-01
9.5006142e-02
9.1764463e-02
7.2724223e-02
2.2663862e-02
-3.8324714e-02
-8.1469168e-02
-9.9860406e-02
-1.0291439e-01
-1.1283898e-01
-1.2877699e-01
-1.2520606e-01
-9.3894736e-02
-5.1612536e-02
-1.3093471e-02
2.2482587e-02
6.3624819e-02
1.0297742e-01
1.1825381e-01
1.0829003e-01
8.6944406e-02
5.9651032e-02
3.2946868e-02
1.5326001e-02
3.0521261e-03
-4.9245892e-03
-7.7393768e-03
-1.3441037e-02
-2.4938510e-02
-5.1903278e-02
-8.8550753e-02
-1.0784209e-01
-9.6516746e-02
-5.7337431e-02
-1.3924570e-02
1.6439789e-02
3.9122130e-02
6.1870895e-02
8.3184382e-02
9.2191574e-02
8.5568894e-02
7.4920815e-02
6.9174608e-02
6.5786431e-02
5.8349974e-02
4.0597319e-02
1.0634898e-02
-2.2762245e-02
-5.0053804e-02
-7.2460890e-02
-8.5701827e-02
-8.2896604e-02
-7.1005699e-02
-7.1573442e-02
-8.8851002e-02
-9.2780770e-02
-6.0375922e-02
6.3811716e-03
7.0474254e-02
8.8308584e-02
7.3899301e-02
6.3724733e-02
5.7452332e-02
5.0391738e-02
4.4461493e-02
2.6531033e-02
-1.2912614e-03
-2.1041919e-02
-3.2502989e-02
-5.4848737e-02
-9.5027222e-02
-1.3179761e-01
-1.3549743e-01
-1.0603077e-01
-6.9594224e-02
-2.4036150e-02
3.7664098e-02
9.2718303e-02
1.2192413e-01
1.2604667e-01
1.1295517e-01
1.0614985e-01
1.2429356e-01
1.4138317e-01
1.3444292e-01
1.0416359e-01
5.2415014e-02
-1.7355695e-02
-9.7276450e-02
-1.6555973e-01
-2.1801852e-01
-2.6075439e-01
-2.7892802e-01
-2.6992598e-01
-2.6309205e-01
-2.7304192e-01
-2.7665995e-01
-2.7154385e-01
-2.6868397e-01
-2.7315924e-01
-2.8355550e-01
-2.7596593e-01
-2.2074864e-01
-5.9416075e-02
1.6869076e-01
3.1118476e-01
3.3853575e-01
2.9991614e-01
2.2058089e-01
1.3327835e-01
6.4382668e-02
2.6329083e-02
1.1730297e-02
7.9360212e-03
1.4458168e-02
3.2829358e-02
6.3325891e-02
1.0862990e-01
1.5974957e-01
1.9847102e-01
2.2990734e-01
2.7519259e-01
3.3135572e-01
3.6239812e-01
3.4404381e-01
2.9418560e-01
2.3205602e-01
1.6040429e-01
5.4183327e-02
-9.5657355e-02
-2.1787928e-01
-2.6587816e-01
-2.6106565e-01
-2.2975170e-01
-1.7642941e-01
-9.8104065e-02
-1.0134864e-02
6.5376605e-02
1.0550851e-01
1.0778042e-01
8.9274617e-02
7.3605803e-02
6.9773590e-02
6.2718090e-02
5.2695347e-02
5.1074899e-02
6.5314518e-02
9.1060779e-02
1.2251916e-01
1.5876886e-01
1.8740175e-01
2.0698891e-01
1.8899649e-01
5.7602244e-02
-1.4420427e-01
-2.5990795e-01
-2.5834972e-01
-2.1048338e-01
-1.5712846e-01
-1.1131672e-01
-8.0164903e-02
-6.3302128e-02
-4.9982470e-02
-4.2248675e-02
-4.6884540e-02
-5.9384807e-02
-6.8407646e-02
-6.8069082e-02
-6.9354825e-02
-8.7192148e-02
-1.1469951e-01
-1.3161435e-01
-1.1988357e-01
-7.8038429e-02
-3.6403341e-02
-1.2979493e-02
8.7020553e-03
3.8109267e-02
6.8910690e-02
8.9307046e-02
9.5044688e-02
9.3821763e-02
8.7681651e-02
7.6980200e-02
5.6402402e-02
2.2347807e-02
-1.2370445e-02
-3.5879863e-02
-5.7222561e-02
-8.8633160e-02
-1.1305671e-01
-1.0731272e-01
-7.0881804e-02
-2.5835213e-02
1.0987034e-02
4.0613334e-02
6.7368965e-02
9.2927081e-02
1.0471260e-01
9.7581406e-02
8.5330042e-02
7.6258637e-02
6.6574356e-02
4.7509351e-02
1.3658769e-02
-2.3219932e-02
-5.1760064e-02
-7.2711846e-02
-8.8750798e-02
-1.0638650e-01
-1.1213301e-01
-8.9332484e-02
-5.1230223e-02
-1.5594701e-02
1.3905652e-02
3.9540893e-02
6.2542027e-02
8.6510077e-02
1.0500059e-01
1.0364807e-01
8.3445560e-02
5.4516683e-02
3.1876941e-02
1.5493500e-02
-1.2362689e-02
-5.2807974e-02
-8.9038846e-02
-1.1034692e-01
-1.1688709e-01
-1.0677658e-01
-8.6703303e-02
-6.4739659e-02
-3.2878969e-02
5.4301772e-03
2.7969786e-02
4.5641682e-02
7.6984863e-02
1.0041532e-01
1.0533468e-01
9.7289006e-02
8.3274633e-02
7.7149166e-02
6.2861658e-02
8.4959354e-03
-7.2841191e-02
-1.3306643e-01
-1.5215731e-01
-1.4434234e-01
-1.2815091e-01
-1.1697581e-01
-1.0331991e-01
-6.8260206e-02
-1.6739626e-02
3.2779482e-02
7.6438731e-02
1.1320907e-01
1.2788744e-01
1.2065035e-01
1.0709249e-01
8.2620736e-02
5.1227019e-02
3.0010364e-02
2.2889040e-02
3.1634380e-02
4.2166307e-02
3.0646316e-02
-6.6723029e-04
-4.8818428e-02
-1.1753127e-01
-1.7847554e-01
-1.9704667e-01
-1.6856876e-01
-1.0331834e-01
-3.3938795e-02
5.5391129e-03
2.8440730e-02
5.7805898e-02
8.5614187e-02
9.9494750e-02
9.8828195e-02
8.2248048e-02
5.2221104e-02
9.8697165e-03
-4.9696530e-02
-1.0879415e-01
-1.2720002e-01
-9.5037394e-02
-4.9687239e-02
-1.3900533e-02
2.1503545e-02
5.9092853e-02
8.9834106e-02
1.0250938e-01
9.6855392e-02
9.1334882e-02
9.5855258e-02
9.9542601e-02
8.4859245e-02
3.5764699e-02
-3.6653546e-02
-9.7862134e-02
-1.3358363e-01
-1.4383278e-01
-1.2762935e-01
-1.0405088e-01
-9.3878668e-02
-8.7959277e-02
-7.3944678e-02
-5.5015012e-02
-2.3337721e-02
2.0330121e-02
5.7034675e-02
8.5646051e-02
1.0350472e-01
1.0508245e-01
1.0267019e-01
9.9140648e-02
8.4873980e-02
5.0697622e-02
-4.5884422e-03
-6.2812831e-02
-1.0918411e-01
-1.5275559e-01
-2.1131593e-01
-2.8792391e-01
-3.5103707e-01
-3.5749834e-01
-2.9392953e-01
-1.4784227e-01
4.6448954e-02
1.9412931e-01
2.7577077e-01
3.1101417e-01
2.9198586e-01
2.4584885e-01
2.1960631e-01
2.1439846e-01
2.0091429e-01
1.6452649e-01
1.0754472e-01
4.4458204e-02
-3.6175047e-03
-2.6442706e-02
-3.7048938e-02
-5.3001148e-02
-7.5381308e-02
-9.6379387e-02
-1.0489152e-01
-9.5836663e-02
-7.2796487e-02
-3.0390159e-02
2.6562456e-02
7.1011419e-02
8.3381656e-02
6.8005026e-02
4.5694104e-02
3.4104205e-02
2.8301962e-02
1.1028783e-02
-1.7142753e-02
-3.6866666e-02
-3.8436844e-02
-3.5493971e-02
-4.5214326e-02
-6.0998081e-02
-7.4394045e-02
-7.7040563e-02
-5.4923038e-02
-1.8259863e-02
3.3957232e-02
1.1315801e-01
1.9925079e-01
2.6237693e-01
2.9888582e-01
3.2438053e-01
3.5346701e-01
3.7868335e-01
3.5244589e-01
2.1179216e-01
-3.9711198e-03
-1.5728881e-01
-2.1800722e-01
-2.5502362e-01
-3.0042613e-01
-3.3770272e-01
-3.3832347e-01
-2.9155059e-01
-2.0173096e-01
-9.0944028e-02
1.0574460e-02
8.9420846e-02
1.3682121e-01
1.4636525e-01
1.2297846e-01
8.1204759e-02
5.5730052e-02
5.8128005e-02
6.1888191e-02
5.9451079e-02
6.1975705e-02
6.1587975e-02
4.0735032e-02
-6.7409334e-03
-8.1152461e-02
-1.5512473e-01
-1.9548849e-01
-2.1181579e-01
-2.1055864e-01
-1.8186547e-01
-1.3237368e-01
-6.8041487e-02
2.2583888e-05
4.8601558e-02
7.0727011e-02
7.6811859e-02
7.9803859e-02
7.4148918e-02
4.3929262e-02
-1.2015342e-03
-4.3904475e-02
-7.7954210e-02
-1.0723554e-01
-1.3810177e-01
-1.5970671e-01
-1.5603437e-01
-1.2624091e-01
-8.5032686e-02
-3.5265252e-02
3.9761556e-02
1.3679252e-01
2.2033803e-01
2.5913151e-01
2.5629370e-01
2.3599998e-01
2.2129894e-01
2.0794596e-01
1.6490984e-01
8.6948664e-02
5.3474665e-03
-5.2552951e-02
-9.5220595e-02
-1.4793328e-01
-2.0418195e-01
-2.3165317e-01
-2.2416933e-01
-1.9761710e-01
-1.6673248e-01
-1.4873001e-01
-1.3962981e-01
-1.2623912e-01
-1.0696183e-01
-8.6074214e-02
-6.6647554e-02
-1.8843558e-02
6.1656223e-02
1.1879208e-01
1.2980057e-01
1.1612307e-01
9.5409374e-02
7.0937423e-02
4.4177508e-02
3.3452544e-02
4.9116605e-02
7.8985943e-02
1.0754325e-01
1.2462878e-01
1.2444928e-01
1.0644343e-01
9.0962158e-02
9.6204330e-02
1.1140890e-01
1.2411030e-01
1.4043797e-01
1.6977545e-01
2.0842650e-01
2.3452930e-01
2.2430316e-01
1.6996869e-01
5.5146042e-02
-8.7411285e-02
-1.7546113e-01
-2.0066343e-01
-1.9087159e-01
-1.5227326e-01
-1.0441540e-01
-7.4100781e-02
-6.2695675e-02
-6.0713349e-02
-6.2707806e-02
-5.3988752e-02
-4.0199993e-02
-4.1330184e-02
-5.4438935e-02
-6.8712438e-02
-8.7411958e-02
-1.1253762e-01
-1.3644455e-01
-1.5150127e-01
-1.4807525e-01
-1.2192727e-01
-8.0878354e-02
-3.8085467e-02
1.6979611e-03
3.1725405e-02
4.3272952e-02
4.9027971e-02
5.7268822e-02
5.3371612e-02
3.4410499e-02
1.4716049e-02
5.1558931e-03
1.0137012e-02
2.3334150e-02
2.7334355e-02
1.0614908e-02
-1.3849160e-02
-2.6730616e-02
-2.7685994e-02
-2.1497074e-02
-6.9346917e-03
1.0680172e-02
1.8972761e-02
1.7694067e-02
1.5474455e-02
1.0213489e-02
-5.5218901e-03
-3.4685772e-02
-5.5999576e-02
-4.2003863e-02
-7.3541087e-03
2.3102134e-02
4.2348447e-02
5.2922708e-02
5.9920008e-02
4.6307367e-02
1.6245054e-03
-4.9900884e-02
-8.1952958e-02
-8.9612859e-02
-9.0115490e-02
-9.1062625e-02
-7.9649614e-02
-5.1406974e-02
-9.8787331e-03
3.2322358e-02
5.4455131e-02
5.1716142e-02
3.8286308e-02
2.4502992e-02
9.6774852e-03
-5.8475997e-03
-2.1761171e-02
-2.7858850e-02
-2.0912553e-02
-2.1072473e-02
-4.7493366e-02
-9.6213381e-02
-1.4185873e-01
-1.7272281e-01
-1.8747256e-01
-1.6888329e-01
-9.6666603e-02
1.5539545e-02
1.2541202e-01
1.9916881e-01
2.2470711e-01
2.2269117e-01
2.1829115e-01
2.1133618e-01
1.9580582e-01
1.7184306e-01
1.5071436e-01
1.3379991e-01
1.1285986e-01
8.7081216e-02
5.6148081e-02
3.5299831e-02
2.1662455e-02
-3.4279018e-02
-1.2896046e-01
-1.7839871e-01
-1.5478955e-01
-1.0948551e-01
-7.2742026e-02
-4.6730697e-02
-3.4611919e-02
-3.1691444e-02
-2.3284295e-02
-2.3563560e-03
8.9404126e-03
-6.9434588e-03
-3.7458781e-02
-6.5262603e-02
-8.4558188e-02
-1.1373456e-01
-1.6152352e-01
-1.9929773e-01
-2.0423183e-01
-1.8504828e-01
-1.6317575e-01
-1.4590150e-01
-1.2424144e-01
-8.4503692e-02
-4.5986919e-03
1.1395818e-01
2.2276411e-01
2.7905796e-01
2.7866456e-01
2.3977320e-01
1.8200480e-01
1.1840139e-01
4.8034837e-02
-4.3921132e-02
-1.5506302e-01
-2.3666845e-01
-2.3130723e-01
-1.3820769e-01
-1.7676073e-02
7.0730769e-02
1.2118146e-01
1.4547492e-01
1.3860181e-01
1.0308634e-01
5.9524003e-02
3.2632409e-02
3.1459482e-02
4.4168089e-02
5.2448463e-02
6.5352848e-02
9.3494577e-02
1.0573395e-01
8.2227773e-02
3.1200987e-02
-3.9253325e-02
-1.0532253e-01
-1.3539601e-01
-1.2837555e-01
-1.0703815e-01
-8.5276969e-02
-5.1868679e-02
-5.2744431e-03
2.8378709e-02
3.5186595e-02
2.2955829e-02
1.0183524e-02
2.9774218e-04
-1.9734650e-02
-6.1746860e-02
-1.1913154e-01
-1.6013052e-01
-1.7651738e-01
-1.8316945e-01
-1.8086549e-01
-1.4483671e-01
-6.8787100e-02
4.7037345e-03
5.0230916e-02
7.9698594e-02
1.1599867e-01
1.6151985e-01
1.9316135e-01
1.9597749e-01
1.8231123e-01
1.7254166e-01
1.5829561e-01
1.2979454e-01
9.5754034e-02
6.5241370e-02
3.9316431e-02
7.7284285e-03
-2.9866931e-02
-6.4116178e-02
-9.0721520e-02
-1.0200753e-01
-8.9831336e-02
-4.8382817e-02
1.8564338e-02
8.6917208e-02
1.3443059e-01
1.5734219e-01
1.6531518e-01
1.6438771e-01
1.4819015e-01
1.2521354e-01
1.1323845e-01
1.1440752e-01
1.0894804e-01
6.8581555e-02
3.3057915e-03
-5.8588312e-02
-1.0919069e-01
-1.4347876e-01
-1.6072454e-01
-1.5901281e-01
-1.3891813e-01
-1.1252276e-01
-7.7779225e-02
-2.8318056e-02
2.2971617e-02
5.5715354e-02
6.3028594e-02
5.0989424e-02
2.8415454e-02
5.5013297e-03
-1.4860765e-02
-3.6028954e-02
-6.2635027e-02
-9.6477752e-02
-1.2742288e-01
-1.4172576e-01
-1.3968117e-01
-1.3177439e-01
-1.1051952e-01
-6.6944585e-02
-2.2165919e-02
1.8223103e-02
6.1160517e-02
9.0097996e-02
1.0552995e-01
1.1659110e-01
1.1672252e-01
1.1457571e-01
1.2628221e-01
1.4830171e-01
1.6912105e-01
1.7858209e-01
1.5858468e-01
9.5053913e-02
-2.8823496e-02
-1.8632506e-01
-2.9098296e-01
-3.2172878e-01
-3.0234988e-01
-2.4541067e-01
-1.8052188e-01
-1.2459585e-01
-6.8314798e-02
8.9231261e-03
1.0524760e-01
1.7799712e-01
1.8443840e-01
1.3497310e-01
7.7449506e-02
3.5728604e-02
-5.3595352e-04
-4.3911998e-02
-8.3174375e-02
-1.0419136e-01
-1.1907042e-01
-1.4193774e-01
-1.6082606e-01
-1.5746764e-01
-1.3266491e-01
-8.0360042e-02
-2.8396219e-03
6.8964333e-02
1.2193264e-01
1.5943775e-01
1.8100018e-01
1.8504900e-01
1.7423115e-01
1.5339290e-01
1.1789727e-01
6.7477339e-02
1.2622188e-02
-4.5281563e-02
-8.6806864e-02
-8.5496132e-02
-6.1103718e-02
-4.5041074e-02
-3.8046065e-02
-1.9073571e-02
2.5058266e-02
7.9443210e-02
1.2055134e-01
1.4422400e-01
1.5026219e-01
1.3313924e-01
8.4613722e-02
2.2334194e-02
-1.1181475e-02
-1.8189127e-02
-2.5229236e-02
-4.3810113e-02
-6.8407873e-02
-8.6575513e-02
-1.0131151e-01
-1.1248970e-01
-1.0709115e-01
-8.1333326e-02
-4.4055396e-02
4.5265701e-03
5.2946747e-02
7.4837414e-02
7.1282389e-02
6.8965401e-02
8.3298133e-02
1.0436317e-01
1.0792447e-01
9.1305546e-02
8.1622381e-02
7.9061596e-02
5.8984407e-02
1.3383560e-02
-4.5786464e-02
-9.4077078e-02
-1.1808842e-01
-1.2791703e-01
-1.3934627e-01
-1.5008447e-01
-1.4377319e-01
-1.1579549e-01
-7.2728475e-02
-2.5321865e-02
1.2692816e-02
4.5009169e-02
7.3559706e-02
8.2196608e-02
7.0319149e-02
5.0040788e-02
3.0511016e-02
1.3195496e-02
-1.0845523e-02
-4.9961082e-02
-9.6448838e-02
-1.2804446e-01
-1.4133170e-01
-1.4639548e-01
-1.2592755e-01
-6.4973762e-02
1.8930335e-02
1.1713764e-01
2.2696289e-01
3.2172874e-01
3.7874539e-01
3.9652959e-01
3.8438740e-01
3.5575392e-01
3.1379909e-01
2.5710834e-01
1.9217250e-01
1.1846971e-01
2.5915925e-02
-8.8057630e-02
-2.2383786e-01
-3.6375736e-01
-4.8664421e-01
-6.0333756e-01
-7.2166771e-01
-8.1866868e-01
-8.5201684e-01
-7.9104552e-01
-6.3723217e-01
-3.5495903e-01
1.1564219e-02
2.8067870e-01
4.0701340e-01
4.4156080e-01
4.1121619e-01
3.5588356e-01
2.9386530e-01
2.2411552e-01
1.3701823e-01
4.3268391e-02
-1.4124992e-02
-1.2695985e-02
2.7836759e-02
7.7111513e-02
1.2169175e-01
1.5605153e-01
1.7064355e-01
1.7038438e-01
1.6538910e-01
1.6661730e-01
1.9061070e-01
2.2468461e-01
2.2997135e-01
1.8983108e-01
9.5632871e-02
-2.3862283e-02
-9.3002594e-02
-1.0958988e-01
-1.1323865e-01
-1.1329711e-01
-1.1585157e-01
-1.1857506e-01
-1.2732396e-01
-1.4555685e-01
-1.4508734e-01
-9.8228662e-02
-2.0290763e-02
4.2039718e-02
7.0287625e-02
8.2549363e-02
8.4405680e-02
6.5437680e-02
2.6884599e-02
-2.3675307e-02
-7.5481816e-02
-1.1197852e-01
-1.3069446e-01
-1.3125390e-01
-1.1001363e-01
-7.9708205e-02
-4.2464472e-02
5.2784863e-04
3.4737340e-02
6.0490635e-02
8.9196122e-02
1.1220919e-01
1.0435825e-01
7.7915253e-02
6.1716408e-02
5.7816763e-02
5.8271765e-02
5.4814179e-02
4.9007147e-02
4.2767260e-02
3.2566930e-02
2.1201849e-02
1.0764736e-02
-8.1811370e-04
-1.4309775e-02
-1.8641505e-02
-1.1411971e-02
-7.0132134e-03
-5.6247419e-03
-5.2378134e-03
-1.9742883e-02
-3.7036515e-02
-2.2698464e-02
2.2330586e-02
7.5771349e-02
1.1737061e-01
1.2153628e-01
8.0006820e-02
1.2166206e-02
-6.1747757e-02
-1.2701180e-01
-1.7864525e-01
-2.2560378e-01
-2.5902857e-01
-2.6057153e-01
-2.4448789e-01
-2.3082160e-01
-2.1344709e-01
-1.6805680e-01
-7.0058706e-02
5.3892998e-02
1.4449208e-01
1.8598392e-01
2.0009880e-01
2.0509415e-01
2.0047934e-01
1.6929593e-01
9.2079268e-02
-2.7054410e-02
-1.3653261e-01
-1.8517064e-01
-1.8241375e-01
-1.4940752e-01
-8.5731004e-02
-7.0048183e-03
6.1195235e-02
1.0404520e-01
1.1314018e-01
9.9538709e-02
8.7921695e-02
7.8079852e-02
5.9327630e-02
4.2821146e-02
3.7546145e-02
2.9089408e-02
2.2217351e-03
-3.9232854e-02
-8.0793105e-02
-1.0168565e-01
-8.9611001e-02
-5.3837670e-02
-1.4630287e-02
4.5350488e-03
8.6851250e-03
2.4559400e-02
5.6114328e-02
8.5547298e-02
9.1639195e-02
7.0735023e-02
4.0740582e-02
3.1113979e-02
5.7775933e-02
9.4506046e-02
1.0460998e-01
8.5737116e-02
4.7577321e-02
-1.9448622e-03
-3.2797932e-02
-2.4383287e-02
1.6951760e-03
9.9903513e-03
-1.1521207e-03
-1.3518196e-03
1.3401915e-02
2.1841014e-02
1.1147058e-02
-8.0161006e-03
-7.2658759e-03
8.0105941e-03
1.3243880e-02
6.3157200e-03
-3.5106882e-03
-1.8925410e-03
1.1847805e-02
1.8044111e-02
7.0494578e-03
-1.1907479e-02
-2.5649231e-02
-3.4932356e-02
-5.2640771e-02
-7.5046049e-02
-8.7896654e-02
-8.6479432e-02
-6.6819596e-02
-3.2043836e-02
1.1372526e-03
2.3218864e-02
4.0046854e-02
5.4611469e-02
5.9846845e-02
5.4534838e-02
5.1348646e-02
5.5448729e-02
5.9016757e-02
5.3082607e-02
2.6646485e-02
-1.0655515e-02
-3.8913850e-02
-5.8234119e-02
-6.9231321e-02
-7.0716353e-02
-5.9963666e-02
-3.1576875e-02
1.2204779e-03
2.9822050e-02
6.0846847e-02
9.4632195e-02
1.2679133e-01
1.4244116e-01
1.2372872e-01
7.0848102e-02
1.2091759e-03
-5.4925609e-02
-7.0473128e-02
-5.8637500e-02
-5.9039877e-02
-7.9954005e-02
-1.1896429e-01
-1.9015642e-01
-2.5701183e-01
-2.4899599e-01
-1.5550286e-01
-2.1425541e-02
9.3258295e-02
1.4963676e-01
1.5873815e-01
1.5468605e-01
1.4789022e-01
1.2089198e-01
6.2614798e-02
-6.3699115e-03
-5.2370445e-02
-7.4637726e-02
-1.0039077e-01
-1.3983852e-01
-1.7600561e-01
-1.8920963e-01
-1.8105569e-01
-1.6439439e-01
-1.3676675e-01
-7.6302343e-02
1.2862174e-02
9.2165616e-02
1.4086468e-01
1.5908674e-01
1.6333825e-01
1.6436264e-01
1.5290018e-01
1.2746236e-01
9.2799321e-02
5.8073193e-02
3.5895991e-02
2.9561774e-02
2.3987954e-02
1.4780422e-03
-2.4720463e-02
-2.9828439e-02
-2.0932471e-02
-1.4105792e-02
-7.2613523e-03
1.0833976e-02
4.1408003e-02
7.4075921e-02
1.0347357e-01
1.1132886e-01
7.4598319e-02
2.1430785e-02
-7.0799447e-03
-2.3952033e-02
-4.2156112e-02
-5.4299429e-02
-6.0497581e-02
-6.2431048e-02
-6.9820436e-02
-8.6063686e-02
-9.5032500e-02
-8.8663535e-02
-7.2110479e-02
-4.3644200e-02
-3.3635314e-03
3.3169310e-02
4.7144494e-02
3.9515969e-02
2.3906992e-02
5.8519227e-03
4.3462902e-03
3.0611543e-02
5.3021937e-02
4.8729424e-02
2.3067452e-02
-4.3550240e-03
-1.5393978e-02
-1.9205124e-02
-3.2613195e-02
-5.0642754e-02
-4.8503869e-02
-1.6515686e-02
2.7672599e-02
6.6188207e-02
9.7366458e-02
1.2482646e-01
1.4252315e-01
1.3788306e-01
1.0577848e-01
6.8033160e-02
4.5392549e-02
3.1113320e-02
1.5034224e-02
-1.1244080e-02
-5.0609315e-02
-8.2100254e-02
-8.6113046e-02
-7.4043506e-02
-6.3009449e-02
-6.3725184e-02
-7.2875344e-02
-6.7963595e-02
-4.3555302e-02
-1.9034902e-02
-9.7776562e-03
-1.0450233e-02
-1.3928305e-02
-2.3950571e-02
-4.2063643e-02
-6.3834015e-02
-7.6160246e-02
-7.4912207e-02
-7.6063199e-02
-8.6000592e-02
-8.9619201e-02
-6.8799744e-02
-3.0345571e-02
-2.7594035e-03
1.6961513e-02
4.8501918e-02
8.5082957e-02
1.1680528e-01
1.3474838e-01
1.2832525e-01
1.0207189e-01
6.9014621e-02
4.2006642e-02
2.2354369e-02
4.9104927e-03
-5.0976835e-03
-7.8985923e-03
-1.1365393e-02
-2.7961184e-02
-6.3910047e-02
-9.2697015e-02
-8.9257415e-02
-6.9059419e-02
-5.5180514e-02
-4.9280799e-02
-3.8385709e-02
-7.3579377e-03
3.5150810e-02
6.3163341e-02
5.9278063e-02
3.0267943e-02
-2.8087499e-03
-3.5922566e-02
-6.8668186e-02
-9.4153314e-02
-9.8899702e-02
-6.0729430e-02
4.2858311e-03
3.7829765e-02
3.0186426e-02
2.5043748e-02
4.8868823e-02
9.6292858e-02
1.4140605e-01
1.5317913e-01
1.0974192e-01
1.3754591e-02
-9.2268316e-02
-1.5581591e-01
-1.6154167e-01
-1.2185648e-01
-6.5189605e-02
-2.5047621e-02
-7.4430952e-03
-6.0562326e-03
-1.9884203e-02
-3.4804891e-02
-4.7052583e-02
-5.8960594e-02
-5.6301137e-02
-4.3025084e-02
-2.1075626e-02
2.1343293e-02
6.8686339e-02
1.0186126e-01
1.1916469e-01
1.2458183e-01
1.2774638e-01
1.2886441e-01
1.1734608e-01
9.1697534e-02
6.6543051e-02
5.3389533e-02
3.6436980e-02
-2.8642021e-03
-5.0561951e-02
-7.8187880e-02
-7.7195374e-02
-6.8481668e-02
-6.8317391e-02
-6.3064139e-02
-3.9136448e-02
-3.7405928e-03
2.9734491e-02
5.8795688e-02
8.3427124e-02
9.2660504e-02
8.2844589e-02
6.5992125e-02
4.9183353e-02
3.4104625e-02
2.0537905e-02
6.1410801e-03
-1.0404055e-02
-3.2742340e-02
-5.8420774e-02
-7.8932256e-02
-8.5702355e-02
-8.7558665e-02
-9.8008026e-02
-9.7884637e-02
-7.1190691e-02
-3.0891438e-02
3.8049656e-03
2.1099468e-02
2.4114519e-02
2.5073679e-02
3.1794188e-02
2.9858395e-02
1.2043675e-02
9.3353597e-03
4.1047402e-02
7.4337793e-02
7.0203499e-02
3.2082375e-02
-1.0196688e-02
-2.8618293e-02
-2.5086171e-02
-2.7536895e-02
-4.0508580e-02
-4.5218396e-02
-3.6503338e-02
-1.7387205e-02
5.3659968e-03
1.7581688e-02
2.7858262e-02
5.6480488e-02
9.4454170e-02
1.2066334e-01
1.2946344e-01
1.3052918e-01
1.3666811e-01
1.4739000e-01
1.5009909e-01
1.3659282e-01
1.0155498e-01
2.2959271e-02
-9.3103029e-02
-1.8206707e-01
-2.1723802e-01
-2.1824119e-01
-1.9766448e-01
-1.7177695e-01
-1.4775958e-01
-1.1736461e-01
-7.0973749e-02
-1.2915237e-02
3.4073432e-02
5.0450815e-02
4.3084493e-02
3.5024658e-02
3.0521353e-02
1.5900876e-02
-1.1032361e-02
-4.7474905e-02
-9.5619362e-02
-1.4075241e-01
-1.6862940e-01
-1.9268122e-01
-2.1433414e-01
-2.1093364e-01
-1.4796900e-01
-2.3158264e-02
1.0102958e-01
1.7923806e-01
2.1743500e-01
2.2862310e-01
2.0646675e-01
1.5763944e-01
1.1147997e-01
7.8194759e-02
5.4143794e-02
3.7350807e-02
2.5206130e-02
7.4163087e-03
-2.1848249e-02
-6.3449434e-02
-1.1762414e-01
-1.6070056e-01
-1.6629856e-01
-1.2985659e-01
-7.1712627e-02
-1.7406181e-02
3.1513206e-02
6.1395898e-02
5.5920102e-02
3.9398242e-02
4.6581280e-02
7.0173534e-02
7.5753463e-02
6.0793426e-02
4.3258426e-02
2.9811168e-02
8.6925146e-03
-3.0837902e-02
-6.5484507e-02
-7.2578723e-02
-6.2419763e-02
-4.7224389e-02
-3.3348908e-02
-2.0863037e-02
-7.1581596e-03
-5.5591176e-03
-2.2877273e-02
-4.5160475e-02
-4.4196094e-02
-1.0920890e-02
2.5725686e-02
4.5468894e-02
4.7300943e-02
4.0298854e-02
4.6213642e-02
6.2029146e-02
6.7037156e-02
5.9281059e-02
4.3224292e-02
2.6874039e-02
1.7397507e-02
1.3840470e-02
1.0401262e-02
4.6032600e-03
2.9374781e-03
6.6890839e-03
1.5945223e-02
2.9744437e-02
4.1907421e-02
5.7244634e-02
7.2395578e-02
7.5765691e-02
7.0478615e-02
5.9456128e-02
5.8492890e-02
7.2080403e-02
7.4596719e-02
6.0516782e-02
3.4891983e-02
-7.5665145e-03
-5.9417443e-02
-1.0019073e-01
-1.1115791e-01
-9.4845683e-02
-7.0069725e-02
-3.9520354e-02
-1.0126948e-02
1.1074175e-02
2.6109012e-02
2.8778957e-02
2.2546610e-02
1.2746337e-02
-2.9759821e-03
-2.3413884e-02
-4.6250759e-02
-6.5551412e-02
-7.9192582e-02
-9.6415185e-02
-1.1166716e-01
-1.0253225e-01
-6.8786490e-02
-3.5347624e-02
-1.2530505e-02
5.8123860e-03
3.1083600e-02
6.3787906e-02
8.6015256e-02
8.9397732e-02
7.8489068e-02
5.9745802e-02
3.8210647e-02
2.0547893e-02
6.4986622e-03
-1.3308974e-02
-3.5341151e-02
-4.8252743e-02
-5.6308325e-02
-6.5868383e-02
-6.5636770e-02
-4.5493303e-02
-1.1793309e-02
2.3947054e-02
5.2070454e-02
6.3018371e-02
6.5557684e-02
7.7877899e-02
8.6644557e-02
7.5707998e-02
5.6335521e-02
3.4340707e-02
6.1323662e-03
-1.9810028e-02
-3.8822209e-02
-5.8332898e-02
-7.0628390e-02
-7.5498485e-02
-9.3336628e-02
-1.2603870e-01
-1.6194409e-01
-1.7010367e-01
-1.2319275e-01
-4.4257771e-02
3.0535208e-02
8.1839003e-02
1.0631374e-01
1.0882007e-01
8.7805620e-02
4.9916814e-02
1.2925563e-02
-3.9785935e-03
1.7909523e-03
6.9828772e-03
-8.0787581e-03
-3.6406259e-02
-4.1114504e-02
-8.5617609e-03
3.0287682e-02
5.4622175e-02
6.5979712e-02
7.2185926e-02
7.0429150e-02
3.2642689e-02
-5.0098715e-02
-1.2755181e-01
-1.5164252e-01
-1.1888850e-01
-6.0153052e-02
-2.1691886e-02
-1.1743581e-02
-7.9688199e-03
-1.3638533e-03
3.0169168e-03
4.7106651e-03
1.1312079e-02
2.2163005e-02
3.1481865e-02
3.7983756e-02
3.6789306e-02
2.0100219e-02
-8.4546713e-03
-3.4901594e-02
-4.2303260e-02
-1.5318585e-02
3.8033202e-02
8.1459564e-02
9.4293791e-02
8.8055034e-02
6.8336195e-02
2.9100091e-02
-1.8330746e-02
-5.1045185e-02
-6.3250293e-02
-7.0367289e-02
-7.3055118e-02
-4.8655369e-02
-4.6386679e-03
2.2789819e-02
2.8383070e-02
2.8945075e-02
2.9353338e-02
2.7069701e-02
1.2256713e-02
-1.6756237e-02
-3.2400143e-02
-9.3929611e-03
3.7657109e-02
7.4612456e-02
7.7715922e-02
4.4761369e-02
-8.7247432e-04
-3.0159224e-02
-3.8330766e-02
-4.4484283e-02
-5.0297172e-02
-3.8557128e-02
-1.6230660e-02
3.9530149e-03
2.0675457e-02
2.5782394e-02
2.2177728e-02
2.7770207e-02
4.5686439e-02
6.7978891e-02
9.8460271e-02
1.3431790e-01
1.6510937e-01
1.8089189e-01
1.6722032e-01
1.2300940e-01
5.5942361e-02
-1.5522572e-02
-6.1250988e-02
-7.7048348e-02
-7.1704000e-02
-4.5438840e-02
-8.3277255e-03
2.3497156e-02
4.0961280e-02
4.6659380e-02
4.3127692e-02
2.2246176e-02
-2.8145924e-02
-1.0075889e-01
-1.6288167e-01
-1.9728996e-01
-2.0501707e-01
-1.8816054e-01
-1.6289833e-01
-1.4536132e-01
-1.3420517e-01
-1.1560368e-01
-8.5997747e-02
-5.1786610e-02
-1.2973448e-02
3.7380787e-02
8.6004102e-02
8.8293149e-02
5.3026151e-02
3.2601666e-02
3.4405677e-02
4.4307900e-02
5.5565391e-02
5.6527532e-02
4.5778658e-02
4.1256476e-02
4.2096432e-02
2.7497165e-02
-4.9982274e-03
-2.8153056e-02
-1.7515795e-02
5.9513496e-03
1.4750749e-02
1.5237281e-02
2.3384710e-02
3.3172708e-02
3.3349487e-02
3.9718638e-02
4.7107678e-02
3.3073836e-02
2.0964881e-02
3.0745252e-02
3.5418191e-02
1.9410080e-02
-7.3537550e-03
-3.1014647e-02
-4.2526793e-02
-4.8451495e-02
-5.2995608e-02
-5.3763114e-02
-4.7365288e-02
-3.0615954e-02
-6.1428242e-03
1.6604450e-02
2.6571971e-02
2.7177726e-02
3.0436369e-02
3.1251892e-02
2.3668484e-02
1.0094391e-02
-7.0910713e-03
-1.6153969e-02
-1.6914186e-02
-1.8951394e-02
-2.2391159e-02
-2.5062453e-02
-1.1313381e-02
2.5809532e-02
6.7747590e-02
1.0406779e-01
1.3847629e-01
1.7468513e-01
1.9813521e-01
1.9719054e-01
1.7381112e-01
1.3839755e-01
1.0538996e-01
5.8706826e-02
-1.1229378e-02
-7.9047475e-02
-1.2239924e-01
-1.3860475e-01
-1.3699712e-01
-1.2271561e-01
-9.8430208e-02
-7.0048062e-02
-3.7260726e-02
-1.2127038e-03
2.2195558e-02
1.6243559e-02
-1.7747822e-02
-5.5388545e-02
-7.3264107e-02
-7.1768980e-02
-6.4337643e-02
-6.3344856e-02
-6.3456692e-02
-6.2507277e-02
-6.8147659e-02
-7.0684911e-02
-6.8170727e-02
-6.8954220e-02
-6.6291720e-02
-5.5380341e-02
-4.5662023e-02
-3.9743961e-02
-2.7226730e-02
-1.1913831e-02
-3.9787875e-03
3.0705614e-03
9.0211523e-03
1.0012924e-02
7.3106653e-03
-1.8883475e-03
-1.2084329e-02
-4.5105394e-03
2.8134237e-02
5.8587316e-02
5.9428356e-02
3.7579137e-02
1.4291185e-02
-8.2791888e-04
-5.4829280e-03
-3.0965299e-03
3.4898187e-03
2.0176879e-02
4.4207243e-02
6.4850123e-02
7.0833735e-02
6.2074416e-02
5.7720587e-02
7.0678111e-02
8.5198148e-02
7.6728380e-02
4.8676436e-02
2.1612479e-02
1.6222340e-02
2.2590034e-02
9.8080979e-03
-1.5203407e-02
-3.6827950e-02
-5.4136938e-02
-6.5281735e-02
-7.3054736e-02
-8.0209860e-02
-7.9671240e-02
-6.0641984e-02
-2.2098260e-02
1.8617906e-02
4.4804481e-02
5.7120054e-02
5.7415232e-02
4.8277128e-02
3.5041395e-02
1.7440032e-02
-6.3093511e-03
-3.4421721e-02
-5.7492263e-02
-7.3191483e-02
-8.9761079e-02
-1.0088649e-01
-9.3626633e-02
-7.9046731e-02
-7.2619949e-02
-6.7501143e-02
-5.5123736e-02
-3.4534408e-02
-1.2647993e-02
-2.6938571e-03
-2.4926809e-03
-1.7696335e-04
2.7024718e-03
-5.9127163e-04
-1.4009479e-02
-3.4576110e-02
-4.8315879e-02
-4.9653136e-02
-3.9101411e-02
-7.0256624e-03
3.8433420e-02
7.9911787e-02
1.2224348e-01
1.6000121e-01
1.6374548e-01
1.2130682e-01
6.1109314e-02
1.2143384e-02
-2.1278084e-02
-3.6968906e-02
-3.7676270e-02
-2.1522680e-02
1.0142591e-02
2.9181615e-02
3.1531479e-02
3.8895985e-02
5.3997178e-02
6.6404186e-02
6.1788902e-02
3.5886772e-02
7.1539651e-03
-5.3432796e-03
8.0087086e-04
1.3102370e-02
1.0832109e-02
-1.2579033e-02
-3.6801539e-02
-4.1981531e-02
-4.7517964e-02
-7.4303766e-02
-1.0861585e-01
-1.3259179e-01
-1.3594300e-01
-1.2193225e-01
-1.0458038e-01
-9.2670663e-02
-7.3319722e-02
-3.5469117e-02
-9.6451272e-04
1.9458582e-02
4.0759936e-02
5.9467732e-02
6.4917231e-02
7.1062325e-02
8.4580984e-02
9.3310631e-02
9.2637680e-02
8.0467744e-02
6.4217929e-02
5.7550940e-02
4.8948667e-02
3.0221549e-02
1.5090372e-02
4.9006378e-03
-1.7597392e-02
-5.5923973e-02
-9.5768450e-02
-1.2113752e-01
-1.1972617e-01
-9.4061872e-02
-5.7408970e-02
-1.0931901e-02
4.7336383e-02
9.1119904e-02
1.0197059e-01
9.2079512e-02
8.1250809e-02
7.6790489e-02
6.6490219e-02
4.6462154e-02
2.2723315e-02
-4.1619362e-03
-3.2492258e-02
-5.7892495e-02
-7.6241534e-02
-8.0958578e-02
-7.0174102e-02
-5.3261764e-02
-3.0438358e-02
-4.5961676e-04
2.3261050e-02
4.1163148e-02
6.3614244e-02
8.0908380e-02
8.1634450e-02
7.5020547e-02
7.1694414e-02
6.5514090e-02
4.8165734e-02
1.9468089e-02
-1.2917905e-02
-3.9656003e-02
-5.8253259e-02
-7.0727909e-02
-8.1430910e-02
-8.0728413e-02
-6.1472760e-02
-3.1510312e-02
7.0362343e-03
4.7412128e-02
7.7965334e-02
9.4028911e-02
9.5713682e-02
8.9885510e-02
7.7477329e-02
5.2727233e-02
2.9273211e-02
2.2038768e-02
1.5599191e-02
-4.6728485e-03
-3.3806599e-02
-6.7719827e-02
-9.1016741e-02
-9.2372802e-02
-8.1960363e-02
-6.1765690e-02
-2.7572575e-02
1.7151223e-02
5.3223776e-02
6.2113662e-02
4.9134315e-02
3.1431668e-02
2.6974983e-02
3.1242820e-02
2.1225400e-02
-3.0540690e-03
-2.7528687e-02
-4.1896711e-02
-4.5896116e-02
-6.3262035e-02
-9.6273586e-02
-1.1598879e-01
-1.1100022e-01
-8.4804246e-02
-4.6674744e-02
-6.0185196e-03
3.4150358e-02
7.3475629e-02
1.0630698e-01
1.1591146e-01
1.0001144e-01
8.0744771e-02
6.4813678e-02
3.9352584e-02
3.1574838e-03
-3.3006475e-02
-5.5389700e-02
-6.4506814e-02
-6.7672465e-02
-6.0380366e-02
-4.7526554e-02
-3.0835628e-02
-2.3101398e-03
2.6501643e-02
4.9563838e-02
7.2355938e-02
8.9425847e-02
9.6321921e-02
9.7201161e-02
9.7463063e-02
8.7065528e-02
5.0392137e-02
-3.0164214e-03
-4.4236042e-02
-6.8659206e-02
-9.3162549e-02
-1.1602024e-01
-1.2481680e-01
-1.1397966e-01
-9.4083353e-02
-7.7687398e-02
-5.7747795e-02
-2.3946044e-02
2.3058948e-02
6.8140881e-02
8.8073663e-02
7.9811059e-02
6.8585105e-02
6.6716184e-02
5.8546148e-02
3.2475441e-02
2.1670609e-03
-1.0888608e-02
-1.2262669e-02
-2.1053513e-02
-4.3505862e-02
-7.2446231e-02
-8.5069875e-02
-7.0522143e-02
-4.7119387e-02
-2.7389143e-02
-1.0462534e-02
6.8115108e-03
2.5827808e-02
4.1943276e-02
5.0211475e-02
5.0625271e-02
4.9510804e-02
4.6600421e-02
3.0566931e-02
2.2222226e-04
-2.9798112e-02
-5.5252315e-02
-8.4631078e-02
-1.1428413e-01
-1.2828187e-01
-1.1835963e-01
-9.6341904e-02
-7.4710149e-02
-5.0729445e-02
-2.3550861e-02
9.9608428e-03
5.2546199e-02
8.9067465e-02
1.1385314e-01
1.3618619e-01
1.5278456e-01
1.5538608e-01
1.3854178e-01
9.2813077e-02
1.2212509e-02
-9.1982896e-02
-1.7838619e-01
-2.0950971e-01
-1.8427182e-01
-1.1842154e-01
-3.8503629e-02
3.7490137e-02
1.0122285e-01
1.3447663e-01
1.2931344e-01
1.0305582e-01
8.1086627e-02
6.9455772e-02
6.0486514e-02
5.0566459e-02
3.2933309e-02
2.0366266e-02
2.3126731e-02
1.2414357e-02
-2.3290335e-02
-6.3930550e-02
-8.7910786e-02
-8.8549538e-02
-7.2270189e-02
-4.8949008e-02
-2.2533772e-02
1.1216336e-02
4.0505422e-02
5.3348607e-02
5.4283514e-02
5.4487523e-02
6.4353351e-02
7.5560939e-02
7.1561361e-02
4.7670384e-02
1.8612956e-02
1.1253511e-03
-1.3020658e-02
-3.6012753e-02
-6.5781863e-02
-9.2638581e-02
-1.0261093e-01
-1.0012642e-01
-9.7984145e-02
-7.9782516e-02
-4.0184922e-02
4.4232190e-03
5.4517162e-02
9.6509015e-02
1.1128914e-01
1.0940330e-01
1.0153965e-01
8.6318060e-02
6.2887928e-02
3.3960117e-02
-5.6506760e-03
-6.1283625e-02
-1.2026874e-01
-1.7956458e-01
-2.4670098e-01
-3.0403285e-01
-3.3222620e-01
-3.4660501e-01
-3.4501404e-01
-2.8895002e-01
-1.4139910e-01
6.8236785e-02
2.3261312e-01
2.9862607e-01
2.9904361e-01
2.7812444e-01
2.4612662e-01
2.0393947e-01
1.7323198e-01
1.5054710e-01
1.1065155e-01
5.9480619e-02
2.0233651e-02
-7.0119006e-03
-3.1446361e-02
-3.2648829e-02
1.8449638e-02
9.8802307e-02
1.7510922e-01
2.5482416e-01
3.4029643e-01
4.0898646e-01
4.4381119e-01
4.3325371e-01
3.5504256e-01
1.6617372e-01
-9.0934238e-02
-2.6635237e-01
-3.1719708e-01
-3.0950802e-01
-2.8340961e-01
-2.4921348e-01
-2.2129848e-01
-2.1455663e-01
-2.1552219e-01
-2.0070260e-01
-1.6892029e-01
-1.4280934e-01
-1.2757315e-01
-1.0818557e-01
-8.5113185e-02
-5.1005872e-02
3.5482576e-03
5.8227357e-02
9.0699576e-02
1.0373931e-01
1.0093136e-01
5.8344756e-02
-3.0546975e-02
-1.1568712e-01
-1.4777778e-01
-1.2775089e-01
-8.6738086e-02
-4.4021036e-02
-1.3095014e-03
3.1733071e-02
3.9047176e-02
2.0905061e-02
-5.6894985e-03
-2.3440437e-02
-1.1646109e-02
3.5968092e-02
8.1774561e-02
9.1254689e-02
7.5925206e-02
4.6904226e-02
7.2968994e-03
-3.7911929e-02
-8.6864263e-02
-1.2015331e-01
-1.3158286e-01
-1.4308594e-01
-1.7277435e-01
-2.1662587e-01
-2.3556124e-01
-1.7676442e-01
-6.0709783e-02
2.4476572e-02
5.4882752e-02
8.0284376e-02
1.3717881e-01
2.0774879e-01
2.5299723e-01
2.6038598e-01
2.4338727e-01
2.1852815e-01
1.8709940e-01
1.4383328e-01
8.1960799e-02
1.6756879e-03
-8.4051728e-02
-1.6244649e-01
-2.1892103e-01
-2.2564129e-01
-1.8615453e-01
-1.4154922e-01
-1.0898653e-01
-9.2160800e-02
-8.4599426e-02
-5.4083475e-02
1.9658448e-02
1.0847800e-01
1.6176326e-01
1.6503080e-01
1.4752552e-01
1.3557234e-01
1.3139087e-01
1.2680849e-01
1.1518417e-01
1.0042454e-01
8.5161408e-02
6.7644034e-02
3.2968737e-02
-2.7247359e-02
-8.5230094e-02
-1.2364086e-01
-1.5328186e-01
-1.7499986e-01
-1.8220286e-01
-1.7022523e-01
-1.2701745e-01
-6.7723173e-02
-2.3425804e-02
8.3183028e-03
4.8082863e-02
1.0961377e-01
1.6961031e-01
1.9050787e-01
1.6687454e-01
1.1664947e-01
6.9822181e-02
3.7180693e-02
8.8333254e-03
-1.7297931e-02
-3.4838871e-02
-4.3967101e-02
-5.3435373e-02
-6.2804777e-02
-7.1556099e-02
-7.1866999e-02
-5.1457537e-02
-2.2986688e-02
-3.8216643e-03
1.3156970e-02
4.6691326e-02
9.3183010e-02
1.3309884e-01
1.5240344e-01
1.4902262e-01
1.3120790e-01
9.5885813e-02
4.9985403e-02
6.6314287e-03
-4.2295836e-02
-9.1842677e-02
-1.2367146e-01
-1.3368673e-01
-1.3635930e-01
-1.4654505e-01
-1.5095058e-01
-1.2447275e-01
-7.0413720e-02
-1.8213123e-02
1.2111726e-02
2.6365768e-02
3.9079113e-02
4.4212943e-02
2.6901787e-02
-7.6094498e-03
-3.8350469e-02
-5.5795173e-02
-7.4207979e-02
-9.6595788e-02
-1.1128884e-01
-1.0249045e-01
-5.3403757e-02
1.8299512e-02
6.6532940e-02
7.9595624e-02
8.5549634e-02
1.0036490e-01
1.1990656e-01
1.3117772e-01
1.2634996e-01
1.0920851e-01
8.0438634e-02
4.6313308e-02
1.7053100e-02
-7.1627361e-03
-2.9919187e-02
-4.9031047e-02
-5.8116283e-02
-5.2803281e-02
-3.6919995e-02
-2.2783181e-02
-6.5314041e-03
1.5836494e-02
2.9998927e-02
2.5762110e-02
1.0501917e-02
-6.9774089e-03
-2.6060428e-02
-3.3190817e-02
-2.9707392e-02
-3.1187002e-02
-2.6469125e-02
-1.4429302e-02
-1.6352641e-02
-3.1321028e-02
-3.9489063e-02
-3.9520380e-02
-4.9614502e-02
-6.8936352e-02
-7.8733158e-02
-7.2948861e-02
-5.1240792e-02
-1.8658767e-02
1.0388100e-02
3.4241856e-02
5.6073519e-02
7.4519873e-02
8.2493161e-02
7.0506203e-02
5.2704663e-02
4.6756375e-02
4.2731433e-02
3.2637834e-02
1.7887931e-02
-7.6613397e-03
-3.9419516e-02
-6.5462025e-02
-8.4030343e-02
-9.6761075e-02
-1.0169230e-01
-9.4770175e-02
-6.9698979e-02
-3.1297322e-02
1.5343728e-03
2.2616026e-02
4.7505032e-02
8.1704802e-02
1.0119479e-01
9.7569192e-02
8.8793196e-02
8.3310635e-02
7.8323849e-02
6.1938760e-02
3.4997550e-02
1.4201874e-02
3.1423537e-04
-2.2695659e-02
-6.3574586e-02
-1.0097793e-01
-1.0860095e-01
-8.3371395e-02
-3.9848203e-02
-1.4968801e-03
1.9813047e-02
2.9021825e-02
4.1535911e-02
5.6825706e-02
4.9736654e-02
2.0356407e-02
-5.0262001e-03
-1.7999114e-02
-3.0787320e-02
-5.3951153e-02
-8.0351149e-02
-8.8979482e-02
-7.1367660e-02
-4.0600510e-02
-1.5589012e-02
-4.8711248e-03
2.5874051e-03
1.9240195e-02
4.0754114e-02
4.3726502e-02
1.8123793e-02
-1.4650660e-02
-3.7828291e-02
-4.3233567e-02
-3.2435046e-02
-1.4201232e-02
1.8383569e-02
6.3938378e-02
9.7831383e-02
1.0059208e-01
8.1010077e-02
6.5470912e-02
5.2109918e-02
2.9401421e-02
1.6549007e-03
-3.2260384e-02
-6.1636508e-02
-6.9809922e-02
-5.8527818e-02
-3.0004403e-02
1.5376164e-02
6.6556559e-02
1.1226411e-01
1.3021353e-01
1.1224351e-01
9.2196504e-02
9.2086765e-02
8.8517320e-02
5.9764009e-02
2.4441765e-02
-5.7855922e-05
-1.3636474e-02
-2.1419829e-02
-3.4460846e-02
-5.1818958e-02
-6.1353727e-02
-5.6233305e-02
-4.8097351e-02
-5.5273769e-02
-7.7351633e-02
-9.1868259e-02
-8.0258871e-02
-4.5987283e-02
2.3978327e-03
5.0836207e-02
7.7942399e-02
7.9950932e-02
7.4155280e-02
7.1915109e-02
5.9470088e-02
3.1759829e-02
1.6840677e-02
2.8951828e-02
4.4658671e-02
4.1478553e-02
2.2846241e-02
3.5329040e-03
-9.1923092e-03
-2.6157517e-02
-5.8818489e-02
-8.9407176e-02
-9.7290902e-02
-9.9587368e-02
-1.0505339e-01
-9.3081304e-02
-7.2306226e-02
-5.7463315e-02
-3.4472746e-02
-4.5655633e-03
1.5448977e-02
3.0659842e-02
5.3994452e-02
8.1367203e-02
9.8094312e-02
9.7003652e-02
8.3736190e-02
6.7420298e-02
5.0075936e-02
2.6060687e-02
-6.0527314e-03
-4.0609285e-02
-7.1347283e-02
-9.5513362e-02
-1.1627891e-01
-1.3500866e-01
-1.3809531e-01
-1.0632892e-01
-5.0328820e-02
-4.5239119e-03
2.2387545e-02
3.9572003e-02
5.0416430e-02
6.3001312e-02
7.7064579e-02
8.0730566e-02
7.0552755e-02
5.5588739e-02
4.9253330e-02
4.1497364e-02
1.5910651e-02
-6.2425177e-03
-7.2123503e-03
-1.8160955e-03
-5.6988290e-03
-2.0180311e-02
-3.8509039e-02
-5.8550457e-02
-7.5329528e-02
-7.5971287e-02
-6.2678951e-02
-4.3227093e-02
-1.3761376e-02
1.6328222e-02
3.0479381e-02
2.4796611e-02
8.4732999e-03
8.8703470e-04
2.0042831e-03
-2.0487443e-03
-1.5661413e-02
-3.4626218e-02
-4.3431377e-02
-3.6809058e-02
-1.7790391e-02
4.2121874e-04
-3.4453452e-03
-2.4205995e-02
-4.4820489e-02
-6.0532114e-02
-7.7638106e-02
-9.0132544e-02
-7.8343811e-02
-4.3636596e-02
-4.1315901e-03
2.8118900e-02
5.4413384e-02
8.1164011e-02
1.0761274e-01
1.2667117e-01
1.2704455e-01
1.0583752e-01
7.7085908e-02
5.3339389e-02
2.8907824e-02
1.2377048e-03
-1.4139183e-02
-1.1199206e-02
-1.0110791e-02
-2.7200098e-02
-5.6279734e-02
-8.4587414e-02
-9.6665736e-02
-8.0847313e-02
-4.2561303e-02
-2.5953896e-03
2.9626699e-02
6.3235573e-02
8.9511326e-02
9.4417759e-02
9.3248889e-02
1.0627824e-01
1.2034319e-01
1.0512354e-01
6.4278721e-02
2.4075211e-02
-7.2109297e-05
-5.2766427e-03
-4.2467867e-03
-1.6189367e-02
-4.3722515e-02
-6.9796884e-02
-8.3886240e-02
-8.6631155e-02
-8.2672087e-02
-7.3621998e-02
-5.4166051e-02
-3.0676010e-02
-1.1958529e-02
2.2486189e-03
1.8416350e-02
4.6746676e-02
7.8276816e-02
9.3008330e-02
8.3421066e-02
5.7937046e-02
3.8588469e-02
3.3911382e-02
3.1680708e-02
3.0868205e-02
4.1002114e-02
5.5575658e-02
6.6096621e-02
6.9482037e-02
5.5175038e-02
2.7959096e-02
5.4504894e-03
