4.0308040e-04
-3.8745395e-04
-9.2507182e-04
-1.0396513e-03
-6.5688843e-04
1.9290997e-04
1.3843605e-03
2.7077400e-03
3.9245305e-03
4.8029985e-03
5.0526616e-03
4.3759183e-03
2.7153201e-03
3.3095098e-04
-2.3868544e-03
-5.0725110e-03
-7.4310713e-03
-9.2318387e-03
-1.0216720e-02
-1.0106040e-02
-8.8049648e-03
-6.4226509e-03
-3.0307338e-03
1.3389986e-03
6.3895063e-03
1.1433635e-02
1.5567504e-02
1.7877930e-02
1.7776634e-02
1.5313350e-02
1.0997273e-02
5.4887652e-03
-5.0452608e-04
-6.3078686e-03
-1.1252739e-02
-1.4773240e-02
-1.6801842e-02
-1.7749119e-02
-1.7728267e-02
-1.6148728e-02
-1.2450675e-02
-6.8427045e-03
-1.1373161e-04
6.8601396e-03
1.3252975e-02
1.8162990e-02
2.0670146e-02
2.0167561e-02
1.6684018e-02
1.1046516e-02
4.5989514e-03
-1.5072763e-03
-6.6619875e-03
-1.0536524e-02
-1.3016495e-02
-1.4509619e-02
-1.5625535e-02
-1.6148210e-02
-1.4877184e-02
-1.0767426e-02
-3.8313556e-03
4.8698124e-03
1.3574170e-02
2.0397610e-02
2.4057188e-02
2.4163916e-02
2.0927072e-02
1.4813998e-02
6.6240735e-03
-2.3286570e-03
-1.0531113e-02
-1.6921003e-02
-2.1025514e-02
-2.2509912e-02
-2.1151966e-02
-1.7345412e-02
-1.2063459e-02
-6.3175459e-03
-8.3828697e-04
4.0580130e-03
8.4623976e-03
1.2593476e-02
1.6359370e-02
1.8991966e-02
1.9190222e-02
1.5946911e-02
9.4695262e-03
1.4175596e-03
-5.8770071e-03
-1.0689119e-02
-1.2668364e-02
-1.2583168e-02
-1.1485318e-02
-1.0083672e-02
-8.4762445e-03
-6.2880002e-03
-3.2986762e-03
1.5024430e-04
3.4751686e-03
6.3286420e-03
8.7788013e-03
1.1103246e-02
1.3060627e-02
1.3612748e-02
1.1847220e-02
7.8068145e-03
2.3705161e-03
-3.2437702e-03
-7.9543003e-03
-1.1182727e-02
-1.2926216e-02
-1.3590731e-02
-1.3631091e-02
-1.2911985e-02
-1.0708079e-02
-6.7157280e-03
-1.5502711e-03
3.9686804e-03
9.4959358e-03
1.4808763e-02
1.9118263e-02
2.1107900e-02
1.9688884e-02
1.4806081e-02
7.6636262e-03
9.3529945e-05
-6.5008224e-03
-1.1554080e-02
-1.4823116e-02
-1.6081569e-02
-1.5504417e-02
-1.3705876e-02
-1.1045859e-02
-7.3346969e-03
-2.5627102e-03
2.4057105e-03
6.3149623e-03
8.6112705e-03
9.5762612e-03
9.4096518e-03
7.8940653e-03
4.9967763e-03
1.2837005e-03
-2.2599669e-03
-4.8355193e-03
-6.2827318e-03
-6.8623732e-03
-6.8367641e-03
-6.3273457e-03
-5.4572058e-03
-4.4824599e-03
-3.4066215e-03
-1.5723193e-03
1.7186501e-03
6.3589965e-03
1.1698155e-02
1.6876271e-02
2.0421588e-02
2.0601743e-02
1.6741778e-02
9.7290317e-03
1.3202575e-03
-6.5781991e-03
-1.2343547e-02
-1.5243712e-02
-1.5775868e-02
-1.5097184e-02
-1.4059769e-02
-1.2652370e-02
-1.0149453e-02
-5.9253285e-03
-2.6092963e-04
5.6890617e-03
1.0633707e-02
1.3694989e-02
1.4310361e-02
1.2082744e-02
7.1598845e-03
6.7029706e-04
-5.5829127e-03
-1.0056120e-02
-1.2047783e-02
-1.1640959e-02
-9.4293281e-03
-6.1375480e-03
-2.4988084e-03
5.4632683e-04
2.2171348e-03
2.7004460e-03
3.0225793e-03
4.0269806e-03
5.9476066e-03
8.6534156e-03
1.1502004e-02
1.3172063e-02
1.2389485e-02
8.9511508e-03
3.9151598e-03
-1.1680175e-03
-5.2211244e-03
-7.9503526e-03
-9.5097866e-03
-1.0179291e-02
-1.0212095e-02
-9.8277244e-03
-9.3349169e-03
-8.9324469e-03
-8.3167638e-03
-6.7822333e-03
-3.7426903e-03
8.0050720e-04
6.2142472e-03
1.1712669e-02
1.6662998e-02
2.0267946e-02
2.1303497e-02
1.8701006e-02
1.2546059e-02
4.1595886e-03
-4.7484960e-03
-1.2743732e-02
-1.8777351e-02
-2.2081029e-02
-2.2330099e-02
-1.9844968e-02
-1.5274234e-02
-9.2767284e-03
-2.6377899e-03
3.8573241e-03
9.6678749e-03
1.4262725e-02
1.7131652e-02
1.8175360e-02
1.7556323e-02
1.5310256e-02
1.1423135e-02
6.1183670e-03
5.5398970e-05
-5.7141633e-03
-1.0271507e-02
-1.3345744e-02
-1.5053006e-02
-1.5349837e-02
-1.4151669e-02
-1.1778171e-02
-8.7964011e-03
-5.4289238e-03
-1.4278635e-03
3.5141734e-03
9.2940421e-03
1.5092059e-02
1.9512216e-02
2.1181733e-02
1.9375205e-02
1.4335015e-02
7.1072015e-03
-1.0264567e-03
-8.7955154e-03
-1.4708188e-02
-1.7584992e-02
-1.7697455e-02
-1.6514127e-02
-1.5097138e-02
-1.3182108e-02
-9.7746618e-03
-4.3779811e-03
2.4371372e-03
9.4676885e-03
1.5454135e-02
1.9193271e-02
1.9731678e-02
1.6994385e-02
1.2093198e-02
6.7375114e-03
2.1468905e-03
-1.6086291e-03
-5.0501604e-03
-8.2085063e-03
-1.0543653e-02
-1.1721886e-02
-1.1979792e-02
-1.1734597e-02
-1.1032664e-02
-9.4748957e-03
-6.6108295e-03
-2.3532040e-03
2.8842703e-03
8.4484922e-03
1.3610433e-02
1.7358934e-02
1.8589067e-02
1.6761529e-02
1.2257158e-02
6.0846414e-03
-7.4083138e-04
-7.3437382e-03
-1.2629675e-02
-1.5456844e-02
-1.5453956e-02
-1.3390282e-02
-1.0542794e-02
-7.7904478e-03
-5.3142356e-03
-2.7783741e-03
3.0840269e-04
4.0680238e-03
8.0157193e-03
1.1427550e-02
1.3714527e-02
1.4341463e-02
1.2888153e-02
9.4654552e-03
4.6731768e-03
-7.6216118e-04
-5.9372371e-03
-9.8916904e-03
-1.2102632e-02
-1.2547504e-02
-1.1489758e-02
-9.3286234e-03
-6.4359924e-03
-3.2455029e-03
-2.9311600e-04
2.2751739e-03
4.8969585e-03
7.8568782e-03
1.0765650e-02
1.2927390e-02
1.3664970e-02
1.2434790e-02
9.1796055e-03
4.4422238e-03
-8.7404098e-04
-5.7665135e-03
-9.5551544e-03
-1.2091231e-02
-1.3401139e-02
-1.3478701e-02
-1.2488464e-02
-1.0663897e-02
-8.0168071e-03
-4.6066983e-03
-8.4962936e-04
2.9420368e-03
6.9773869e-03
1.1315890e-02
1.5093629e-02
1.7014893e-02
1.6288042e-02
1.3005931e-02
8.1261837e-03
2.9013059e-03
-1.8398799e-03
-5.7179225e-03
-8.5462621e-03
-1.0391367e-02
-1.1579483e-02
-1.2235758e-02
-1.1902215e-02
-1.0072467e-02
-6.9899529e-03
-3.4228521e-03
8.2807687e-05
3.4401820e-03
6.7624511e-03
9.8221509e-03
1.1823620e-02
1.1957714e-02
1.0109628e-02
6.9550419e-03
3.2970620e-03
-4.9088976e-04
-4.0795485e-03
-6.8955157e-03
-8.6302980e-03
-9.4028581e-03
-9.4024027e-03
-8.8047296e-03
-7.7139070e-03
-5.9353454e-03
-3.1463364e-03
7.0890531e-04
5.3112514e-03
9.9313421e-03
1.3565768e-02
1.5413721e-02
1.5008409e-02
1.2070361e-02
6.9640259e-03
1.0898328e-03
-3.7987300e-03
-6.6793259e-03
-7.8415276e-03
-8.5151272e-03
-9.6581833e-03
-1.1157385e-02
-1.2282224e-02
-1.2482095e-02
-1.1387349e-02
-8.5608590e-03
-3.9010236e-03
1.9355584e-03
7.8605496e-03
1.3040287e-02
1.7017971e-02
1.9187858e-02
1.8792524e-02
1.5678200e-02
1.0625005e-02
4.8399085e-03
-8.4232583e-04
-6.2297202e-03
-1.1103756e-02
-1.4690137e-02
-1.6213115e-02
-1.5678723e-02
-1.3869915e-02
-1.1683091e-02
-9.5068048e-03
-7.0831828e-03
-3.8638580e-03
4.6162688e-04
5.7049228e-03
1.1202536e-02
1.5979704e-02
1.9022167e-02
1.9553409e-02
1.7298514e-02
1.2653943e-02
6.6096778e-03
3.6568351e-04
-5.1172852e-03
-9.2678755e-03
-1.1954871e-02
-1.3446454e-02
-1.4023068e-02
-1.3760417e-02
-1.2640053e-02
-1.0569196e-02
-7.4570396e-03
-3.4501972e-03
9.7276311e-04
5.2481424e-03
9.0113901e-03
1.1993313e-02
1.3892238e-02
1.4508742e-02
1.3788842e-02
1.1700536e-02
8.1335059e-03
3.1125836e-03
-2.6635545e-03
-7.8045296e-03
-1.1073471e-02
-1.2119789e-02
-1.1548963e-02
-1.0511957e-02
-9.8886286e-03
-9.6573278e-03
-9.0431540e-03
-7.0603529e-03
-3.0975582e-03
2.4875710e-03
8.4609939e-03
1.3673708e-02
1.7578158e-02
1.9768303e-02
1.9567676e-02
1.6424491e-02
1.0668599e-02
3.5549454e-03
-3.5687739e-03
-9.9164850e-03
-1.5059350e-02
-1.8418026e-02
-1.9389133e-02
-1.8025952e-02
-1.5160723e-02
-1.1675819e-02
-7.8613049e-03
-3.5399098e-03
1.3521888e-03
6.5480716e-03
1.1615994e-02
1.6039688e-02
1.9263988e-02
2.0607279e-02
1.9330973e-02
1.5336795e-02
9.4854579e-03
2.9782718e-03
-3.2804407e-03
-8.9033192e-03
-1.3701504e-02
-1.7172860e-02
-1.8795185e-02
-1.8689556e-02
-1.7315936e-02
-1.4634245e-02
-1.0154477e-02
-3.8952890e-03
3.0588460e-03
9.2071607e-03
1.3678145e-02
1.6537128e-02
1.8185526e-02
1.8518402e-02
1.6931571e-02
1.3190992e-02
7.8722833e-03
1.8945613e-03
-4.0122177e-03
-9.2511794e-03
-1.3068315e-02
-1.4780413e-02
-1.4316314e-02
-1.2215622e-02
-9.2590853e-03
-6.2805359e-03
-3.9236563e-03
-2.3555979e-03
-1.2860373e-03
-1.1762901e-04
1.8437245e-03
5.0378341e-03
9.2481811e-03
1.3306953e-02
1.5511122e-02
1.4727567e-02
1.1145000e-02
6.0449238e-03
8.4981611e-04
-3.6159066e-03
-7.0886739e-03
-9.4831335e-03
-1.0741776e-02
-1.1006647e-02
-1.0686163e-02
-1.0145241e-02
-9.3646318e-03
-7.9389557e-03
-5.3995264e-03
-1.6390672e-03
2.9051645e-03
7.4962960e-03
1.1419775e-02
1.4110291e-02
1.5313019e-02
1.5178734e-02
1.3909274e-02
1.1225054e-02
6.4757756e-03
-4.4608632e-04
-8.2640281e-03
-1.4571645e-02
-1.7450086e-02
-1.6885168e-02
-1.4195128e-02
-1.0645094e-02
-7.0899641e-03
-4.0391998e-03
-1.5611396e-03
5.1047674e-04
2.4453256e-03
4.8199678e-03
8.2706226e-03
1.2643930e-02
1.6609444e-02
1.8469934e-02
1.7374663e-02
1.3509782e-02
7.5233889e-03
4.8779322e-04
-6.0918086e-03
-1.1019313e-02
-1.4026733e-02
-1.5760008e-02
-1.7253237e-02
-1.8769791e-02
-1.9180396e-02
-1.6965402e-02
-1.1488091e-02
-3.3052679e-03
6.1317561e-03
1.4979984e-02
2.1672810e-02
2.5436288e-02
2.6009638e-02
2.3189909e-02
1.7304367e-02
9.5942163e-03
1.3699481e-03
-6.6615058e-03
-1.3955744e-02
-1.9818630e-02
-2.3602470e-02
-2.4885453e-02
-2.3597772e-02
-2.0072580e-02
-1.5004754e-02
-9.2379317e-03
-3.3968339e-03
2.4713985e-03
8.7896941e-03
1.5578143e-02
2.1832281e-02
2.6064007e-02
2.7409332e-02
2.6173090e-02
2.3288117e-02
1.9408693e-02
1.4598777e-02
8.5754775e-03
1.2080550e-03
-6.9955124e-03
-1.5069402e-02
-2.2254747e-02
-2.7949906e-02
-3.1083291e-02
-3.0408344e-02
-2.5731674e-02
-1.8307260e-02
-9.9130449e-03
-1.8297700e-03
5.6135473e-03
1.2551782e-02
1.8514125e-02
2.2373228e-02
2.3162472e-02
2.0323496e-02
1.3778202e-02
4.5901667e-03
-4.8078020e-03
-1.1677579e-02
-1.4520916e-02
-1.3853971e-02
-1.1509973e-02
-9.0282458e-03
-6.6345210e-03
-3.7248936e-03
-5.5865739e-05
3.8218592e-03
7.0198884e-03
8.9112593e-03
9.3893288e-03
8.8066674e-03
7.7193155e-03
6.7124674e-03
6.4990515e-03
7.3434545e-03
8.0634882e-03
6.7012534e-03
2.4469671e-03
-3.6730169e-03
-9.7346699e-03
-1.4043923e-02
-1.5706728e-02
-1.4805791e-02
-1.2173958e-02
-8.8167266e-03
-5.4678881e-03
-2.4763429e-03
1.6018227e-04
2.8092537e-03
6.1146417e-03
1.0391727e-02
1.4875393e-02
1.7796618e-02
1.7512870e-02
1.3848143e-02
8.2060349e-03
2.1630016e-03
-3.5769569e-03
-8.7764382e-03
-1.3041016e-02
-1.5912922e-02
-1.7232754e-02
-1.7118975e-02
-1.5652974e-02
-1.2736301e-02
-8.2446566e-03
-2.4074885e-03
4.0464027e-03
1.0364993e-02
1.6131001e-02
2.0747977e-02
2.2964119e-02
2.1593984e-02
1.6672113e-02
9.5352501e-03
1.8141283e-03
-5.3992174e-03
-1.1520293e-02
-1.6044224e-02
-1.8475049e-02
-1.8769384e-02
-1.7464679e-02
-1.5093498e-02
-1.1710563e-02
-7.1004551e-03
-1.3633317e-03
4.8178837e-03
1.0577371e-02
1.5331525e-02
1.8752946e-02
2.0393064e-02
1.9533033e-02
1.5836788e-02
1.0009991e-02
3.3619167e-03
-3.0542393e-03
-8.7057808e-03
-1.3374622e-02
-1.6850413e-02
-1.8707354e-02
-1.8508693e-02
-1.6282421e-02
-1.2610021e-02
-8.1477075e-03
-3.0581222e-03
2.8212718e-03
9.1702563e-03
1.4950823e-02
1.9014701e-02
2.0658581e-02
1.9781609e-02
1.6819757e-02
1.2387058e-02
7.0179325e-03
1.3613116e-03
-3.9882904e-03
-8.9514542e-03
-1.3484392e-02
-1.7013430e-02
-1.8993052e-02
-1.9420769e-02
-1.8532517e-02
-1.6158361e-02
-1.1464118e-02
-3.9411922e-03
5.2618376e-03
1.3701824e-02
1.9360475e-02
2.1649824e-02
2.1086138e-02
1.8407182e-02
1.3957925e-02
7.9325590e-03
9.9554484e-04
-5.7538496e-03
-1.1200676e-02
-1.4314313e-02
-1.4464649e-02
-1.2079196e-02
-8.4534385e-03
-4.9095138e-03
-2.5119113e-03
-1.9685550e-03
-3.2747673e-03
-5.4689914e-03
-6.7393128e-03
-5.2757809e-03
-3.6477919e-04
7.2953622e-03
1.5653582e-02
2.1647982e-02
2.2596381e-02
1.7783497e-02
8.8841011e-03
-9.3863170e-04
-8.9268138e-03
-1.4119083e-02
-1.6783137e-02
-1.7179603e-02
-1.5378483e-02
-1.1599943e-02
-6.2052931e-03
4.0947800e-04
7.6389858e-03
1.4302355e-02
1.8605916e-02
1.9062540e-02
1.5806749e-02
1.0546375e-02
4.9907858e-03
-1.3908217e-04
-4.6644338e-03
-8.3791887e-03
-1.1174473e-02
-1.3397421e-02
-1.5625003e-02
-1.7818685e-02
-1.8925496e-02
-1.7494410e-02
-1.2793292e-02
-5.5542489e-03
2.4708038e-03
9.6970189e-03
1.5296180e-02
1.9046199e-02
2.0989504e-02
2.1114246e-02
1.9364170e-02
1.5921656e-02
1.1203838e-02
5.6653332e-03
-1.5168971e-04
-5.6498159e-03
-1.0365680e-02
-1.3969140e-02
-1.6351306e-02
-1.7650516e-02
-1.7875112e-02
-1.6733166e-02
-1.3976188e-02
-9.8110443e-03
-4.8802468e-03
3.1569357e-04
5.8400119e-03
1.1906401e-02
1.7989877e-02
2.2490452e-02
2.3649130e-02
2.0851465e-02
1.4871840e-02
7.1969752e-03
-6.8233200e-04
-7.5482182e-03
-1.2382231e-02
-1.4775909e-02
-1.5533582e-02
-1.5924888e-02
-1.6194726e-02
-1.5423081e-02
-1.2651232e-02
-7.7857465e-03
-1.7792520e-03
3.8769146e-03
8.1820910e-03
1.1243483e-02
1.3729607e-02
1.5872021e-02
1.7102102e-02
1.6485380e-02
1.3450389e-02
8.1152660e-03
1.2093110e-03
-5.8945833e-03
-1.1407208e-02
-1.4016881e-02
-1.3716895e-02
-1.1694962e-02
-9.3068010e-03
-7.1062768e-03
-4.9045932e-03
-2.5974558e-03
-5.7105586e-04
8.4013121e-04
1.9911817e-03
3.6385238e-03
6.1213155e-03
9.0027627e-03
1.1256683e-02
1.1849922e-02
1.0281449e-02
6.5888466e-03
1.4442090e-03
-3.6944375e-03
-7.3032221e-03
-8.8587649e-03
-9.0241657e-03
-8.8725476e-03
-8.9538355e-03
-9.0362710e-03
-8.6656389e-03
-7.7220021e-03
-6.1344903e-03
-3.1483310e-03
2.4676963e-03
1.0973895e-02
2.0589611e-02
2.8066637e-02
3.0299897e-02
2.5861062e-02
1.5729806e-02
2.7106214e-03
-9.9421208e-03
-1.9610739e-02
-2.4892347e-02
-2.5780983e-02
-2.3532217e-02
-2.0027939e-02
-1.6531181e-02
-1.3095127e-02
-9.2381084e-03
-4.5485145e-03
1.1674408e-03
7.5417847e-03
1.3558040e-02
1.8169771e-02
2.0985732e-02
2.2340647e-02
2.2480238e-02
2.0739549e-02
1.6112467e-02
8.4679512e-03
-1.1507950e-03
-1.0950606e-02
-1.9037876e-02
-2.4150866e-02
-2.5915836e-02
-2.4445961e-02
-1.9875742e-02
-1.2499292e-02
-3.2228263e-03
6.5132383e-03
1.5252406e-02
2.1930537e-02
2.5948990e-02
2.7000061e-02
2.5023831e-02
2.0344503e-02
1.3581409e-02
5.3079121e-03
-3.9445988e-03
-1.3211890e-02
-2.0959300e-02
-2.5835952e-02
-2.7666986e-02
-2.7454450e-02
-2.6167177e-02
-2.3588897e-02
-1.8692986e-02
-1.1182502e-02
-2.1371036e-03
6.9955404e-03
1.5455540e-02
2.2793448e-02
2.7927016e-02
2.9446225e-02
2.6865675e-02
2.1103371e-02
1.3889295e-02
6.7908958e-03
4.9841005e-04
-4.9735396e-03
-9.5486914e-03
-1.2802327e-02
-1.4349048e-02
-1.4228896e-02
-1.2603684e-02
-9.4329873e-03
-4.8442048e-03
5.3397598e-04
5.7822700e-03
9.9205443e-03
1.1856146e-02
1.0642287e-02
6.2887069e-03
1.0509614e-04
-5.9707148e-03
-1.0271065e-02
-1.1918898e-02
-1.1114275e-02
-9.0340673e-03
-6.9249022e-03
-5.1721357e-03
-3.4385386e-03
-1.3542586e-03
1.2286923e-03
4.4016692e-03
8.2258376e-03
1.2346726e-02
1.5718124e-02
1.7090154e-02
1.5898794e-02
1.2536129e-02
7.6797788e-03
1.6978389e-03
-5.0029935e-03
-1.1440734e-02
-1.6317361e-02
-1.8691117e-02
-1.8317534e-02
-1.5779496e-02
-1.2297358e-02
-8.8975239e-03
-5.8100829e-03
-2.6750549e-03
1.0571477e-03
5.7236108e-03
1.0981840e-02
1.5742432e-02
1.8660822e-02
1.8777285e-02
1.5935009e-02
1.0810702e-02
4.5928863e-03
-1.4362227e-03
-6.2095091e-03
-9.1604827e-03
-1.0281951e-02
-9.6951620e-03
-7.5124251e-03
-4.3859740e-03
-1.5927531e-03
-2.0357708e-04
-2.9742502e-04
-9.1398982e-04
-7.8903210e-04
5.7568016e-04
2.5074221e-03
3.8973027e-03
4.1038941e-03
3.0709717e-03
1.1039439e-03
-1.1750855e-03
-3.0428337e-03
-4.0724836e-03
-4.1323321e-03
-3.1168443e-03
-1.0614575e-03
1.3879251e-03
2.9193279e-03
2.4617890e-03
9.2726536e-05
-3.2047602e-03
-6.2791027e-03
-8.1511322e-03
-7.9507579e-03
-5.0039419e-03
4.3732226e-04
6.8025478e-03
1.2112584e-02
1.5188375e-02
1.5834354e-02
1.4176568e-02
1.0317730e-02
4.6245025e-03
-1.9831410e-03
-8.0707359e-03
-1.2197648e-02
-1.3710521e-02
-1.3030146e-02
-1.1156340e-02
-9.0250913e-03
-7.1928621e-03
-5.8417709e-03
-4.8366124e-03
-3.5671700e-03
-1.0369538e-03
3.4493436e-03
9.6285415e-03
1.6250504e-02
2.1553713e-02
2.3721068e-02
2.1318533e-02
1.4135883e-02
3.8943602e-03
-6.2952167e-03
-1.3553260e-02
-1.6655686e-02
-1.6314788e-02
-1.4221081e-02
-1.1803093e-02
-9.7152160e-03
-8.0421201e-03
-6.6176717e-03
-5.1245842e-03
-3.2273560e-03
-7.6314842e-04
2.1774122e-03
5.3362719e-03
8.6583885e-03
1.2177954e-02
1.5066303e-02
1.5601298e-02
1.2792060e-02
7.4041891e-03
1.1601051e-03
-4.3522664e-03
-8.2411744e-03
-1.0603640e-02
-1.2146091e-02
-1.3102966e-02
-1.2684919e-02
-9.9625872e-03
-5.0848667e-03
7.0459069e-04
6.1405785e-03
1.0689616e-02
1.3995492e-02
1.5223493e-02
1.3768048e-02
1.0243985e-02
6.2100925e-03
3.0184708e-03
9.9430710e-04
-6.4468331e-04
-3.3128147e-03
-8.0908191e-03
-1.4652615e-02
-2.1129515e-02
-2.5247482e-02
-2.5467039e-02
-2.1133491e-02
-1.2192509e-02
8.1688576e-04
1.6312623e-02
3.1051762e-02
4.0550722e-02
4.1248524e-02
3.2812520e-02
1.8368039e-02
2.5329028e-03
-1.0774146e-02
-1.9224630e-02
-2.2189065e-02
-2.0757395e-02
-1.7213755e-02
-1.3815785e-02
-1.1682784e-02
-1.0600798e-02
-9.8132171e-03
-8.8882247e-03
-7.5464886e-03
-5.0018677e-03
-2.8296376e-04
6.7360536e-03
1.4741785e-02
2.1300674e-02
2.4193917e-02
2.2815299e-02
1.8131703e-02
1.1467728e-02
3.8474028e-03
-3.6196202e-03
-9.6424536e-03
-1.3453876e-02
-1.5203533e-02
-1.5469149e-02
-1.4557285e-02
-1.2380037e-02
-8.9342201e-03
-4.7973855e-03
-8.7486498e-04
2.4680510e-03
5.5772161e-03
8.7505804e-03
1.1633721e-02
1.3374858e-02
1.3307498e-02
1.1348309e-02
7.7465260e-03
2.9243429e-03
-2.2809156e-03
-6.7873815e-03
-9.9986236e-03
-1.2021369e-02
-1.2948997e-02
-1.2417368e-02
-1.0230066e-02
-6.8880366e-03
-3.0941234e-03
9.9525393e-04
5.6656812e-03
1.0770504e-02
1.5330561e-02
1.8063332e-02
1.8017451e-02
1.4778721e-02
8.5448571e-03
4.6594693e-04
-7.2542303e-03
-1.2325204e-02
-1.3832645e-02
-1.2612708e-02
-1.0183306e-02
-7.7299369e-03
-6.0810543e-03
-5.7835194e-03
-6.6532306e-03
-7.4927835e-03
-6.8327837e-03
-4.1522017e-03
-8.3432504e-05
4.3411736e-03
8.3548719e-03
1.1703974e-02
1.4405965e-02
1.6218313e-02
1.6300366e-02
1.3600286e-02
7.9790670e-03
7.8391490e-04
-6.0141628e-03
-1.1075549e-02
-1.4013244e-02
-1.4885855e-02
-1.3809413e-02
-1.1015937e-02
-6.9258267e-03
-2.0040444e-03
3.2619258e-03
8.1624571e-03
1.1838049e-02
1.3699168e-02
1.3583269e-02
1.1612098e-02
8.2690427e-03
4.2825672e-03
1.4095996e-04
-3.7692617e-03
-6.8652418e-03
-8.8234025e-03
-9.8489326e-03
-1.0437958e-02
-1.1192624e-02
-1.2446740e-02
-1.3844683e-02
-1.4432345e-02
-1.3065685e-02
-8.8809979e-03
-1.8136223e-03
7.1404026e-03
1.6101666e-02
2.3023762e-02
2.6606020e-02
2.6553053e-02
2.3381053e-02
1.8067372e-02
1.1306972e-02
3.1364193e-03
-6.3279815e-03
-1.5736051e-02
-2.2465928e-02
-2.4321617e-02
-2.1357790e-02
-1.5696456e-02
-9.6710606e-03
-4.5358141e-03
-6.6659497e-04
1.8769802e-03
3.4145562e-03
4.7262738e-03
6.4483872e-03
8.5277021e-03
1.0510977e-02
1.1952029e-02
1.2222369e-02
1.0439247e-02
6.0783687e-03
-3.8470546e-04
-7.5772718e-03
-1.3942800e-02
-1.8268926e-02
-1.9681396e-02
-1.7505637e-02
-1.1562389e-02
-2.7585767e-03
6.9570518e-03
1.5274816e-02
2.0169273e-02
2.0791781e-02
1.8065392e-02
1.3719748e-02
8.7615674e-03
3.2182920e-03
-2.9155059e-03
-8.9469370e-03
-1.3793270e-02
-1.6582578e-02
-1.6779673e-02
-1.4347414e-02
-1.0173469e-02
-5.8979416e-03
-2.7003505e-03
-3.1824902e-04
2.3586447e-03
5.9272921e-03
9.8579531e-03
1.3029258e-02
1.4616967e-02
1.4285916e-02
1.1988676e-02
8.1001026e-03
3.4163471e-03
-1.2387674e-03
-5.1766683e-03
-7.9368353e-03
-9.6513653e-03
-1.0941722e-02
-1.2095653e-02
-1.2544850e-02
-1.1438273e-02
-8.6968500e-03
-5.0986331e-03
-1.4238042e-03
1.8901230e-03
4.5710215e-03
6.5912755e-03
8.1825650e-03
9.6449987e-03
1.1244699e-02
1.2933986e-02
1.4022014e-02
1.3504652e-02
1.0791000e-02
6.0374379e-03
6.2885365e-05
-6.0458842e-03
-1.1394915e-02
-1.5299326e-02
-1.7290464e-02
-1.7447157e-02
-1.6309952e-02
-1.4314741e-02
-1.1439223e-02
-7.3442597e-03
-1.8751814e-03
4.5306394e-03
1.1067315e-02
1.7097625e-02
2.2020191e-02
2.4769870e-02
2.4108618e-02
1.9373378e-02
1.0846245e-02
-3.6210500e-05
-1.0816192e-02
-1.9030993e-02
-2.3373818e-02
-2.4007289e-02
-2.2038538e-02
-1.8699797e-02
-1.4822956e-02
-1.0671018e-02
-5.9008942e-03
1.2924250e-04
7.7172133e-03
1.6260103e-02
2.4198572e-02
2.9868522e-02
3.2479106e-02
3.1902831e-02
2.7806058e-02
1.9614019e-02
7.5719380e-03
-6.6047170e-03
-2.0530045e-02
-3.2120604e-02
-3.9920569e-02
-4.3124575e-02
-4.1286645e-02
-3.4277373e-02
-2.2610488e-02
-7.5543443e-03
8.9394182e-03
2.4418668e-02
3.6187643e-02
4.1872481e-02
4.0478655e-02
3.3034186e-02
2.2046613e-02
1.0351103e-02
2.7290267e-04
-6.8330000e-03
-1.0842958e-02
-1.2694720e-02
-1.3823704e-02
-1.5310736e-02
-1.7080204e-02
-1.8155099e-02
-1.7794959e-02
-1.6095849e-02
-1.3705300e-02
-1.1116485e-02
-8.1375361e-03
-4.1827160e-03
1.1109500e-03
7.6453726e-03
1.4867005e-02
2.1739411e-02
2.6451159e-02
2.6609737e-02
2.0834226e-02
1.0357221e-02
-1.5452353e-03
-1.1735202e-02
-1.8419198e-02
-2.0806842e-02
-1.8800262e-02
-1.3116298e-02
-5.1701499e-03
3.2716103e-03
1.0554462e-02
1.5575163e-02
1.7832727e-02
1.7342914e-02
1.4498116e-02
9.7966292e-03
3.9393511e-03
-2.1011436e-03
-7.4842985e-03
-1.1532538e-02
-1.3428229e-02
-1.2770440e-02
-1.0421086e-02
-7.9111306e-03
-6.1061842e-03
-4.9061603e-03
-3.8489738e-03
-2.6179075e-03
-1.0746362e-03
8.1178090e-04
2.9159957e-03
5.0185378e-03
6.8786589e-03
8.1446423e-03
8.4632625e-03
7.9212817e-03
7.0449606e-03
6.2511773e-03
5.6002617e-03
4.5642743e-03
1.6697130e-03
-4.5959485e-03
-1.4015632e-02
-2.4217489e-02
-3.1765760e-02
-3.3714236e-02
-2.9033603e-02
-1.8949035e-02
-5.9117083e-03
7.7143810e-03
2.0372259e-02
3.1116609e-02
3.9018703e-02
4.3370180e-02
4.4163621e-02
4.1437170e-02
3.4353902e-02
2.1709697e-02
3.8271271e-03
-1.6130135e-02
-3.3577216e-02
-4.5393308e-02
-5.0867495e-02
-5.0342282e-02
-4.3817184e-02
-3.0963074e-02
-1.2434046e-02
8.7062065e-03
2.7292751e-02
3.8690309e-02
4.1157650e-02
3.5636295e-02
2.4528005e-02
1.1104160e-02
-1.2108269e-03
-9.9108987e-03
-1.4174762e-02
-1.4963218e-02
-1.4074082e-02
-1.2815910e-02
-1.1757051e-02
-1.1146942e-02
-1.0749536e-02
-9.7016208e-03
-7.2408577e-03
-3.4403527e-03
8.8018324e-04
4.8080028e-03
8.0701778e-03
1.1080011e-02
1.4073622e-02
1.6471032e-02
1.7103302e-02
1.4994466e-02
1.0295903e-02
4.5524532e-03
-2.5036905e-04
-3.1650827e-03
-4.9254596e-03
-7.0281261e-03
-9.9553227e-03
-1.2374595e-02
-1.2373334e-02
-9.2420617e-03
-3.9415327e-03
1.4335462e-03
4.6386346e-03
4.7535145e-03
2.8738898e-03
8.5458614e-04
-5.0823568e-04
-1.5432385e-03
-2.3230921e-03
-2.2388000e-03
-1.0103113e-03
5.8010949e-04
1.4292375e-03
1.3678359e-03
1.0038633e-03
5.6316806e-04
-4.4720395e-04
-2.4555096e-03
-4.8879526e-03
-6.3164313e-03
-5.7140185e-03
-3.2277401e-03
3.7940771e-04
4.6246850e-03
9.2370216e-03
1.3438223e-02
1.5947502e-02
1.5716680e-02
1.2504321e-02
7.0803594e-03
8.8029442e-04
-4.8440284e-03
-9.4628361e-03
-1.2668166e-02
-1.4293628e-02
-1.4590566e-02
-1.4143521e-02
-1.3171299e-02
-1.1155583e-02
-7.2783820e-03
-1.2874023e-03
5.9373030e-03
1.2879351e-02
1.8301585e-02
2.1437673e-02
2.1774020e-02
1.9030515e-02
1.3424845e-02
5.7733924e-03
-2.9943744e-03
-1.2122855e-02
-2.0639422e-02
-2.7009792e-02
-2.9394658e-02
-2.6612938e-02
-1.9231116e-02
-9.7298949e-03
-1.3369340e-03
4.0303892e-03
7.1687917e-03
1.0668425e-02
1.6660841e-02
2.5486523e-02
3.4981509e-02
4.0317546e-02
3.6539767e-02
2.2575777e-02
2.4007276e-03
-1.7570817e-02
-3.2289728e-02
-4.0155660e-02
-4.2072049e-02
-3.9168360e-02
-3.1977191e-02
-2.1449161e-02
-9.6899218e-03
1.1433765e-03
1.0488720e-02
1.9166653e-02
2.7575418e-02
3.4747764e-02
3.9166527e-02
3.9864567e-02
3.6403470e-02
2.8308497e-02
1.5577725e-02
1.1312009e-05
-1.4990340e-02
-2.6445088e-02
-3.3231012e-02
-3.5774518e-02
-3.4816609e-02
-3.0759568e-02
-2.4067361e-02
-1.5728206e-02
-7.1764269e-03
2.6980969e-04
6.1631534e-03
1.1050193e-02
1.5456035e-02
1.8870086e-02
2.0279619e-02
1.9370808e-02
1.6519610e-02
1.2033928e-02
6.0861247e-03
-7.6644184e-04
-7.4004887e-03
-1.2371756e-02
-1.4358675e-02
-1.3128308e-02
-1.0065588e-02
-6.8686684e-03
-4.1172592e-03
-1.6255817e-03
7.7339122e-04
3.1692062e-03
5.6937201e-03
8.3901271e-03
1.0800086e-02
1.1886984e-02
1.0655096e-02
6.7169916e-03
5.6523055e-04
-6.1555835e-03
-1.0986777e-02
-1.2016062e-02
-9.0963516e-03
-3.7257127e-03
1.8509648e-03
5.5800251e-03
6.7834478e-03
6.5305238e-03
6.2297343e-03
6.1692596e-03
5.6108375e-03
3.9957697e-03
1.8163414e-03
5.1954385e-06
-1.3227681e-03
-2.9245583e-03
-5.2779914e-03
-7.9320819e-03
-1.0055616e-02
-1.1145684e-02
-1.1070502e-02
-9.8480403e-03
-7.6841138e-03
-5.1814895e-03
-3.1904359e-03
-2.0199934e-03
-9.7532209e-04
1.0391069e-03
4.6099342e-03
9.2054597e-03
1.3237475e-02
1.5173781e-02
1.4632427e-02
1.2211291e-02
8.5155050e-03
3.6117197e-03
-2.2892918e-03
-7.9152605e-03
-1.1491775e-02
-1.2128716e-02
-1.0269139e-02
-6.9827439e-03
-3.2076229e-03
3.9009264e-04
3.2998608e-03
5.2545387e-03
6.5377773e-03
7.8208360e-03
9.2902758e-03
1.0232134e-02
9.7840302e-03
7.8911485e-03
5.0583820e-03
1.4091084e-03
-3.1050778e-03
-7.8827089e-03
-1.1798362e-02
-1.3811332e-02
-1.3529876e-02
-1.1669604e-02
-9.6681895e-03
-8.4470458e-03
-7.7123171e-03
-6.5854245e-03
-4.4405118e-03
-1.0317257e-03
3.5753833e-03
8.8911032e-03
1.3744907e-02
1.6462989e-02
1.6079338e-02
1.3224723e-02
9.2648293e-03
4.8715120e-03
-2.5025451e-04
-6.3240907e-03
-1.2323674e-02
-1.6107526e-02
-1.5854898e-02
-1.1295245e-02
-3.6375045e-03
5.2331115e-03
1.3248799e-02
1.8437390e-02
1.9372924e-02
1.5941965e-02
9.9345745e-03
3.8522029e-03
-1.5612943e-03
-7.7034844e-03
-1.5747792e-02
-2.4533019e-02
-3.0653161e-02
-3.0319179e-02
-2.1783596e-02
-7.0494444e-03
8.5471193e-03
1.9310919e-02
2.2429505e-02
1.8800744e-02
1.1707980e-02
4.8465412e-03
7.4231225e-04
2.8704851e-04
2.9743778e-03
7.3761525e-03
1.1863624e-02
1.4980322e-02
1.5654738e-02
1.3487856e-02
8.5145772e-03
1.2289165e-03
-6.9460829e-03
-1.4182489e-02
-1.9332867e-02
-2.2232651e-02
-2.3196110e-02
-2.2381630e-02
-1.9818522e-02
-1.5918934e-02
-1.1351782e-02
-6.1674205e-03
3.8115388e-04
8.4984262e-03
1.6703766e-02
2.2771730e-02
2.5628408e-02
2.5715047e-02
2.3581784e-02
1.8975297e-02
1.1699330e-02
2.6602173e-03
-6.4734923e-03
-1.4198695e-02
-1.9429982e-02
-2.1496211e-02
-2.0545758e-02
-1.7601822e-02
-1.3857576e-02
-1.0065590e-02
-6.4236357e-03
-2.7178264e-03
1.3989952e-03
6.0383281e-03
1.0791767e-02
1.4859577e-02
1.7622145e-02
1.8969052e-02
1.8698021e-02
1.6059840e-02
1.0740349e-02
3.8526481e-03
-2.6281363e-03
-7.1907375e-03
-9.5403438e-03
-1.0294960e-02
-1.0078509e-02
-9.2205468e-03
-8.5024761e-03
-9.1773388e-03
-1.1234740e-02
-1.2502613e-02
-1.0587220e-02
-5.3078605e-03
1.2591524e-03
6.7851892e-03
1.0470079e-02
1.2823484e-02
1.4138260e-02
1.3991924e-02
1.2028568e-02
8.5096587e-03
4.2128260e-03
-1.7041143e-04
-4.6180530e-03
-9.2561562e-03
-1.3409694e-02
-1.5867419e-02
-1.5884366e-02
-1.3556531e-02
-9.4339657e-03
-4.0368445e-03
2.1433522e-03
8.3873575e-03
1.3928006e-02
1.8234798e-02
2.0665743e-02
2.0317697e-02
1.6849101e-02
1.1026029e-02
4.2749272e-03
-2.0977507e-03
-7.6203236e-03
-1.2674552e-02
-1.7517464e-02
-2.1404687e-02
-2.2948017e-02
-2.1414844e-02
-1.7513177e-02
-1.2735458e-02
-8.1374375e-03
-3.9610232e-03
1.9873334e-05
4.2886258e-03
9.3209727e-03
1.5171762e-02
2.1554662e-02
2.7888073e-02
3.2794464e-02
3.4191513e-02
3.0356340e-02
2.1084821e-02
8.0960512e-03
-5.8426764e-03
-1.8192796e-02
-2.7026105e-02
-3.1170295e-02
-3.0937506e-02
-2.8056432e-02
-2.4262737e-02
-2.0345070e-02
-1.6292942e-02
-1.1577689e-02
-5.3855790e-03
2.8548096e-03
1.2854557e-02
2.2936627e-02
3.0180951e-02
3.1951852e-02
2.7687250e-02
1.9159154e-02
9.0681502e-03
-3.1974494e-04
-7.3844903e-03
-1.1438553e-02
-1.3264837e-02
-1.4247876e-02
-1.4791220e-02
-1.4387270e-02
-1.2837578e-02
-1.0363209e-02
-6.8181961e-03
-1.7449896e-03
4.4733442e-03
1.0055696e-02
1.3102420e-02
1.3095304e-02
1.0871992e-02
7.8005344e-03
5.2070033e-03
4.1839522e-03
5.2946907e-03
7.8639519e-03
9.7558829e-03
8.6110162e-03
3.8118624e-03
-3.0069516e-03
-9.5215735e-03
-1.4370095e-02
-1.7520046e-02
-1.9448730e-02
-2.0030445e-02
-1.8532556e-02
-1.4488367e-02
-8.2103266e-03
-7.8528091e-04
6.3490412e-03
1.2081626e-02
1.5964102e-02
1.7964733e-02
1.8090723e-02
1.6293306e-02
1.2638970e-02
7.5996681e-03
2.0265691e-03
-3.1733478e-03
-7.1392168e-03
-9.2582214e-03
-9.5318373e-03
-8.6285606e-03
-7.5019480e-03
-6.5259609e-03
-5.2205603e-03
-3.1284580e-03
-3.1622717e-04
2.9147367e-03
6.1600910e-03
8.6843892e-03
9.4796647e-03
7.9784807e-03
4.3697883e-03
-7.6423937e-04
-6.4614674e-03
-1.1321498e-02
-1.3919400e-02
-1.3446359e-02
-1.0122067e-02
-4.8895769e-03
1.1873501e-03
7.1665653e-03
1.2196205e-02
1.5573418e-02
1.6989181e-02
1.6415114e-02
1.3629980e-02
8.4639904e-03
1.6572509e-03
-5.1740972e-03
-1.0512289e-02
-1.3559348e-02
-1.4310944e-02
-1.3417641e-02
-1.1678285e-02
-9.4649361e-03
-6.7429551e-03
-3.5774638e-03
-4.0436709e-04
2.2787003e-03
4.4385519e-03
6.4779954e-03
8.6305891e-03
1.0752207e-02
1.2558581e-02
1.3525946e-02
1.2847267e-02
1.0010802e-02
5.2884746e-03
-3.8987533e-04
-5.8437352e-03
-1.0209491e-02
-1.3371703e-02
-1.5461413e-02
-1.6133254e-02
-1.5110372e-02
-1.2936770e-02
-1.0399617e-02
-7.7428630e-03
-4.7903435e-03
-1.2911388e-03
2.8601713e-03
7.4996794e-03
1.2525416e-02
1.7990638e-02
2.3360964e-02
2.6841186e-02
2.5840632e-02
1.8893324e-02
7.2994430e-03
-5.5384231e-03
-1.6091080e-02
-2.2073133e-02
-2.2752958e-02
-1.8746023e-02
-1.1830819e-02
-4.4788413e-03
1.2512108e-03
4.8238604e-03
7.1145686e-03
8.8618878e-03
9.2964163e-03
6.7548797e-03
8.2073282e-04
-6.8135179e-03
-1.3731005e-02
-1.8159814e-02
-1.8943220e-02
-1.5024057e-02
-5.9865998e-03
6.2500908e-03
1.7201774e-02
2.2534097e-02
2.1032584e-02
1.5012557e-02
8.1543638e-03
2.8375241e-03
-5.3446348e-04
-2.3972793e-03
-3.1984209e-03
-3.3926782e-03
-3.3896817e-03
-3.2988491e-03
-2.9584315e-03
-2.1454824e-03
-6.6040671e-04
1.4540884e-03
3.4839626e-03
3.9342448e-03
1.2071213e-03
-5.0529092e-03
-1.2979787e-02
-1.9265445e-02
-2.1305574e-02
-1.8346009e-02
-1.0909010e-02
-3.1485358e-04
1.1113493e-02
2.0519031e-02
2.5819871e-02
2.6323353e-02
2.2188478e-02
1.4256544e-02
4.5485561e-03
-4.3745012e-03
-1.0961407e-02
-1.4928174e-02
-1.6363243e-02
-1.5287196e-02
-1.1985464e-02
-7.6114098e-03
-4.0417717e-03
-2.5312454e-03
-2.6774454e-03
-2.8316412e-03
-1.2971725e-03
2.4313618e-03
7.1993509e-03
1.1185000e-02
1.3404964e-02
1.3973908e-02
1.3189543e-02
1.1261864e-02
8.8071276e-03
6.7060780e-03
5.5631365e-03
5.3788539e-03
5.2741028e-03
3.8251333e-03
2.3824027e-05
-6.2830955e-03
-1.4471371e-02
-2.3078032e-02
-2.9936987e-02
-3.2725272e-02
-2.9767239e-02
-2.0901763e-02
-7.8730894e-03
6.0379562e-03
1.7270115e-02
2.3485657e-02
2.3987737e-02
1.9366530e-02
1.1278227e-02
1.9814415e-03
-6.4516588e-03
-1.2513406e-02
-1.5022845e-02
-1.3009557e-02
-6.4000494e-03
3.0671103e-03
1.2225548e-02
1.8249150e-02
1.9988310e-02
1.8104938e-02
1.4422037e-02
1.0661413e-02
7.3989161e-03
4.2074016e-03
4.8318432e-04
-4.1764391e-03
-9.9163719e-03
-1.5917049e-02
-1.9668782e-02
-1.8621616e-02
-1.3199624e-02
-6.4953828e-03
-1.1106389e-03
2.2661135e-03
4.1408670e-03
5.2022617e-03
5.6111808e-03
5.2497040e-03
4.6196339e-03
4.6078558e-03
5.1220638e-03
4.8082519e-03
2.6864490e-03
-5.1828644e-04
-3.3425443e-03
-5.1795481e-03
-6.2152390e-03
-6.5767477e-03
-6.3647526e-03
-5.8256489e-03
-4.9233290e-03
-3.7081837e-03
-2.8921531e-03
-2.7284174e-03
-2.1747984e-03
-1.9611294e-04
2.9972492e-03
6.3251463e-03
8.8378817e-03
1.0179020e-02
1.0301496e-02
9.1236189e-03
6.5455277e-03
2.6666564e-03
-1.9755993e-03
-6.4078060e-03
-9.6617378e-03
-1.1291459e-02
-1.1260851e-02
-9.4779309e-03
-5.8355564e-03
-5.5224690e-04
5.6653822e-03
1.1788934e-02
1.6938298e-02
2.0514381e-02
2.1897833e-02
2.0351216e-02
1.5438486e-02
7.6824814e-03
-1.5001689e-03
-1.0667933e-02
-1.8857528e-02
-2.5327327e-02
-2.9313087e-02
-3.0314599e-02
-2.8405419e-02
-2.4073428e-02
-1.7673114e-02
-9.2837136e-03
4.5571434e-04
9.9595450e-03
1.7618291e-02
2.2649715e-02
2.5045707e-02
2.5157993e-02
2.3427343e-02
2.0152242e-02
1.5434981e-02
9.6440383e-03
3.6807778e-03
-1.6793417e-03
-6.3886199e-03
-1.0582035e-02
-1.3918721e-02
-1.5863578e-02
-1.6040714e-02
-1.4314060e-02
-1.0945315e-02
-6.4917466e-03
-1.6768146e-03
2.6797404e-03
6.0467830e-03
8.2257967e-03
9.0390149e-03
8.5325379e-03
7.1521912e-03
5.2544357e-03
2.8984615e-03
2.6428536e-04
-2.2943663e-03
-4.4718914e-03
-5.9362984e-03
-6.4237867e-03
-5.9565426e-03
-4.8061673e-03
-3.4584102e-03
-2.4803258e-03
-2.0047534e-03
-1.3663876e-03
3.0439075e-04
3.0675598e-03
6.1145478e-03
8.5100160e-03
9.6145516e-03
9.1008700e-03
6.9589156e-03
3.5943500e-03
-1.2730792e-04
-3.1861693e-03
-4.9818722e-03
-5.7751746e-03
-6.4405014e-03
-7.3922368e-03
-7.9222520e-03
-7.0498334e-03
-4.7800921e-03
-2.1474255e-03
-1.4402961e-04
1.1933283e-03
2.4051732e-03
3.6922165e-03
4.9770270e-03
6.3279231e-03
7.8283882e-03
9.3049923e-03
1.0178984e-02
9.5005257e-03
6.4116065e-03
9.1128693e-04
-5.8113724e-03
-1.1985503e-02
-1.6178490e-02
-1.7728504e-02
-1.6698992e-02
-1.3541949e-02
-8.7976987e-03
-3.1712313e-03
2.3443358e-03
6.8129433e-03
9.9146790e-03
1.1844270e-02
1.2688308e-02
1.2447540e-02
1.1459852e-02
1.0085872e-02
8.2280433e-03
5.6488730e-03
2.5194453e-03
-5.3468750e-04
-2.8956533e-03
-4.4096383e-03
-5.1936692e-03
-5.1608359e-03
-4.0794603e-03
-2.0310877e-03
2.9263916e-04
1.8113627e-03
1.6127341e-03
-7.8965159e-04
-5.2614690e-03
-1.0708030e-02
-1.5473992e-02
-1.8099123e-02
-1.7362968e-02
-1.2450319e-02
-3.8805519e-03
6.1531560e-03
1.4876619e-02
2.0243391e-02
2.1460759e-02
1.8959384e-02
1.3929624e-02
7.7244364e-03
1.3895580e-03
-4.6541313e-03
-1.0173526e-02
-1.4297808e-02
-1.5619746e-02
-1.3246989e-02
-7.8375918e-03
-1.5509432e-03
3.3378261e-03
5.8139246e-03
6.3167949e-03
5.9207735e-03
5.2281120e-03
4.0709438e-03
2.4558053e-03
1.1327238e-03
6.2578363e-04
4.6612336e-04
-1.3851343e-04
-1.4465668e-03
-2.9754923e-03
-3.7295624e-03
-2.7787200e-03
-8.2247100e-06
3.5987538e-03
6.5129498e-03
7.5226674e-03
6.3828120e-03
3.8863284e-03
9.9702336e-04
-1.9305451e-03
-4.7075362e-03
-6.7658245e-03
-7.5497826e-03
-7.1525020e-03
-6.4138022e-03
-6.1144468e-03
-6.1382636e-03
-5.8913186e-03
-4.9714653e-03
-2.9470485e-03
6.7125189e-04
5.7438600e-03
1.1127539e-02
1.5060922e-02
1.6021697e-02
1.3591482e-02
8.5709787e-03
2.2825968e-03
-3.9441230e-03
-8.8877843e-03
-1.1854925e-02
-1.3038754e-02
-1.3053822e-02
-1.2133378e-02
-1.0043401e-02
-6.6648386e-03
-2.1956095e-03
3.0467310e-03
8.5251350e-03
1.3329530e-02
1.6423308e-02
1.7138326e-02
1.5537851e-02
1.2231442e-02
7.8445186e-03
2.9190289e-03
-2.0016468e-03
-6.5967899e-03
-1.0657846e-02
-1.3740848e-02
-1.5465946e-02
-1.5890826e-02
-1.5121276e-02
-1.2924801e-02
-9.0876390e-03
-3.9182176e-03
1.7672490e-03
7.0876537e-03
1.1482512e-02
1.4687769e-02
1.6400436e-02
1.6171309e-02
1.3805535e-02
9.5650899e-03
3.9608979e-03
-2.2086169e-03
-7.8271745e-03
-1.1873707e-02
-1.3872090e-02
-1.3906152e-02
-1.2289335e-02
-9.4883900e-03
-6.1671130e-03
-2.6697624e-03
1.2941225e-03
5.9294800e-03
1.0694339e-02
1.4489609e-02
1.6217277e-02
1.5336333e-02
1.1957145e-02
6.5254810e-03
-1.7727785e-04
-6.8190040e-03
-1.1778939e-02
-1.4036195e-02
-1.3846129e-02
-1.2387276e-02
-1.0689585e-02
-8.8191763e-03
-6.2173253e-03
-2.6982591e-03
1.3081786e-03
5.3057762e-03
9.2390828e-03
1.3228074e-02
1.6641505e-02
1.8095037e-02
1.6565848e-02
1.2046971e-02
5.4283606e-03
-1.9223959e-03
-8.7202666e-03
-1.4106568e-02
-1.7492715e-02
-1.8426644e-02
-1.6959548e-02
-1.3673419e-02
-9.0459012e-03
-3.3538948e-03
2.7602902e-03
8.1972925e-03
1.2003630e-02
1.3862428e-02
1.3880855e-02
1.2263229e-02
9.4242455e-03
5.9702239e-03
2.4604342e-03
-7.5689095e-04
-3.6223981e-03
-6.0522277e-03
-7.7038664e-03
-8.4300752e-03
-8.6120905e-03
-8.7083761e-03
-8.6547973e-03
-7.9394380e-03
-6.1806379e-03
-3.3705860e-03
4.0084246e-04
5.0245767e-03
9.9720711e-03
1.4123027e-02
1.6302049e-02
1.5984341e-02
1.3322971e-02
8.7098330e-03
2.7044714e-03
-3.7094585e-03
-9.1468052e-03
-1.2452574e-02
-1.3501292e-02
-1.3110589e-02
-1.2030703e-02
-1.0331173e-02
-7.8488464e-03
-4.8169455e-03
-1.6658670e-03
1.5668214e-03
5.1517725e-03
9.0448953e-03
1.2444007e-02
1.4028115e-02
1.2987971e-02
9.7265224e-03
5.4046991e-03
1.1336563e-03
-2.4819950e-03
-5.3597731e-03
-7.5728963e-03
-9.0663067e-03
-9.7747982e-03
-9.7584786e-03
-9.0244420e-03
-7.4372290e-03
-4.9362162e-03
-1.5968374e-03
2.4976874e-03
7.0753297e-03
1.1352164e-02
1.4306115e-02
1.5469044e-02
1.5143747e-02
1.3674698e-02
1.0931549e-02
6.6274877e-03
7.1951198e-04
-6.4348233e-03
-1.4110890e-02
-2.1487562e-02
-2.7662520e-02
-3.1373673e-02
-3.1059502e-02
-2.5328094e-02
-1.3624996e-02
2.9664317e-03
2.1188756e-02
3.6229818e-02
4.3756598e-02
4.1921777e-02
3.1921800e-02
1.7100945e-02
1.4009466e-03
-1.1733928e-02
-1.9925083e-02
-2.2520162e-02
-2.0763413e-02
-1.6837333e-02
-1.2577565e-02
-8.9142398e-03
-6.0301103e-03
-3.8283070e-03
-2.1947737e-03
-5.3947302e-04
2.2430649e-03
6.5503940e-03
1.1324118e-02
1.4813712e-02
1.5773963e-02
1.4049345e-02
1.0321143e-02
5.4735570e-03
3.4713272e-04
-4.1924282e-03
-7.5736762e-03
-9.9085961e-03
-1.1756876e-02
-1.3420213e-02
-1.4476462e-02
-1.4135900e-02
-1.2040598e-02
-8.5492785e-03
-4.1948392e-03
8.5908619e-04
6.5449555e-03
1.2335269e-02
1.7223330e-02
2.0269624e-02
2.1069431e-02
1.9442454e-02
1.5133348e-02
8.3639789e-03
9.6520284e-05
-8.3049783e-03
-1.5264068e-02
-1.9555969e-02
-2.0951503e-02
-1.9889609e-02
-1.6843390e-02
-1.2182414e-02
-6.2050277e-03
7.5726394e-04
7.9661244e-03
1.4234315e-02
1.8545455e-02
2.0354966e-02
1.9444693e-02
1.6217688e-02
1.1682812e-02
6.4914961e-03
6.3588025e-04
-5.7853501e-03
-1.2079116e-02
-1.7033697e-02
-1.9558513e-02
-1.9570599e-02
-1.7848495e-02
-1.5156911e-02
-1.2052671e-02
-8.7670276e-03
-4.6861810e-03
1.0885695e-03
8.4052591e-03
1.6059339e-02
2.2797198e-02
2.7426446e-02
2.8414942e-02
2.4711436e-02
1.6869144e-02
6.3970723e-03
-5.3034616e-03
-1.6577552e-02
-2.5252218e-02
-2.9502947e-02
-2.8528999e-02
-2.2537210e-02
-1.2849791e-02
-2.1594587e-03
6.3526978e-03
1.1039162e-02
1.2562029e-02
1.2597212e-02
1.2502893e-02
1.3005455e-02
1.4015432e-02
1.4523185e-02
1.3415948e-02
1.0584210e-02
6.8027096e-03
2.6290457e-03
-2.0179749e-03
-7.4863246e-03
-1.4049201e-02
-2.1267381e-02
-2.7493777e-02
-3.0609967e-02
-2.9087371e-02
-2.2170661e-02
-1.0124461e-02
4.6988168e-03
1.7848526e-02
2.5229077e-02
2.5740720e-02
2.1229510e-02
1.4426405e-02
7.6112861e-03
2.5621933e-03
3.5588711e-04
7.5540554e-04
2.1884878e-03
2.5836439e-03
5.6018557e-04
-3.4876589e-03
-7.4999164e-03
-9.5339949e-03
-9.1679798e-03
-7.1383086e-03
-4.5329942e-03
-2.4326687e-03
-1.7833411e-03
-3.0557730e-03
-5.4652140e-03
-6.9286771e-03
-5.4371148e-03
-5.0711504e-04
6.6459410e-03
1.4238698e-02
2.1000943e-02
2.5922467e-02
2.7404092e-02
2.3611741e-02
1.4162983e-02
1.1330386e-03
-1.2080679e-02
-2.2836980e-02
-3.0126271e-02
-3.3868427e-02
-3.3991213e-02
-3.0237631e-02
-2.2510621e-02
-1.1431149e-02
1.3430194e-03
1.3415158e-02
2.2279768e-02
2.6322728e-02
2.5971252e-02
2.3334039e-02
2.0250843e-02
1.6959408e-02
1.2250604e-02
4.7779211e-03
-5.0935689e-03
-1.4652835e-02
-2.0501992e-02
-2.1025439e-02
-1.7246408e-02
-1.1573734e-02
-6.1459638e-03
-2.1491007e-03
4.3555049e-05
5.8021158e-04
4.6823005e-05
-5.1756607e-04
6.9193690e-05
2.2903941e-03
5.5558463e-03
9.0373988e-03
1.2314297e-02
1.4984835e-02
1.6344763e-02
1.5639171e-02
1.2633258e-02
8.0165073e-03
2.7176714e-03
-3.1721001e-03
-1.0116697e-02
-1.7728907e-02
-2.4072193e-02
-2.6769298e-02
-2.4794208e-02
-1.9103277e-02
-1.1738206e-02
-4.3884276e-03
2.1809803e-03
7.6990002e-03
1.2078163e-02
1.5509124e-02
1.8316234e-02
2.0546241e-02
2.1775123e-02
2.1268308e-02
1.8574487e-02
1.3993250e-02
8.0336229e-03
6.7800783e-04
-8.1670602e-03
-1.7646676e-02
-2.5918638e-02
-3.1132715e-02
-3.2298664e-02
-2.9368638e-02
-2.2944619e-02
-1.4141177e-02
-4.2280253e-03
5.6859214e-03
1.4414818e-02
2.0810157e-02
2.4450915e-02
2.5718482e-02
2.4881507e-02
2.1419396e-02
1.4796450e-02
5.8053025e-03
-3.4413633e-03
-1.0906128e-02
-1.5644852e-02
-1.7462582e-02
-1.6188859e-02
-1.1870159e-02
-5.4204890e-03
1.5743363e-03
7.8116811e-03
1.2647808e-02
1.5555753e-02
1.5778312e-02
1.2694524e-02
6.5690629e-03
-9.6787680e-04
-7.7022504e-03
-1.2449260e-02
-1.5494059e-02
-1.7450504e-02
-1.8251305e-02
-1.7247330e-02
-1.3887017e-02
-8.1985356e-03
-8.7510645e-04
6.8578270e-03
1.3644051e-02
1.8460733e-02
2.0686723e-02
1.9961463e-02
1.6271041e-02
1.0193767e-02
2.9350723e-03
-4.1364733e-03
-1.0026983e-02
-1.4015130e-02
-1.5453133e-02
-1.4188210e-02
-1.0914238e-02
-6.7984034e-03
-2.9291648e-03
1.4743182e-05
1.9780750e-03
3.2208896e-03
3.9020144e-03
4.3657713e-03
5.1547636e-03
6.3319521e-03
7.4675600e-03
8.3203065e-03
8.8255440e-03
8.5372659e-03
6.8396269e-03
3.6407403e-03
-5.0997529e-04
-4.6688987e-03
-7.8110043e-03
-9.2858456e-03
-9.0545518e-03
-7.5446794e-03
-5.3841847e-03
-3.3410346e-03
-2.3109311e-03
-2.7976763e-03
-4.3691481e-03
-5.8485898e-03
-5.8998678e-03
-3.6921945e-03
5.3741312e-04
5.6195423e-03
1.0222626e-02
1.3466562e-02
1.4971072e-02
1.4561792e-02
1.2175049e-02
8.1432394e-03
3.2472736e-03
-1.7876850e-03
-6.5798529e-03
-1.0670534e-02
-1.3374916e-02
-1.4415143e-02
-1.4094161e-02
-1.2696365e-02
-1.0201507e-02
-6.6113766e-03
-2.3472120e-03
1.9722990e-03
6.1519814e-03
1.0338934e-02
1.4172173e-02
1.6371341e-02
1.5534459e-02
1.1362543e-02
5.0519836e-03
-1.4321927e-03
-6.5364710e-03
-9.7774478e-03
-1.1358238e-02
-1.1288109e-02
-9.3645706e-03
-6.0255685e-03
-2.3264987e-03
1.0630614e-03
4.1601522e-03
6.9414752e-03
8.7236839e-03
8.5248910e-03
6.0546605e-03
2.1192464e-03
-1.9698014e-03
-5.2373679e-03
-7.3194096e-03
-8.0160793e-03
-6.8558593e-03
-3.4834008e-03
1.5159994e-03
6.5924299e-03
1.0094015e-02
1.0989573e-02
9.0788584e-03
4.8107558e-03
-9.3069834e-04
-6.7305184e-03
-1.0875203e-02
-1.2326463e-02
-1.1349779e-02
-8.7725357e-03
-4.9316023e-03
1.4155028e-04
6.0603436e-03
1.1965721e-02
1.6593458e-02
1.8621870e-02
1.7236926e-02
1.2357852e-02
4.7404069e-03
-3.9995804e-03
-1.1772307e-02
-1.6811489e-02
-1.8690565e-02
-1.8389061e-02
-1.6809924e-02
-1.3829547e-02
-9.3149680e-03
-4.1466261e-03
4.0717746e-04
3.7183643e-03
5.9820424e-03
7.7035246e-03
9.0582032e-03
9.8688368e-03
1.0246833e-02
1.0906559e-02
1.2450099e-02
1.4337334e-02
1.4920482e-02
1.2695451e-02
7.4282201e-03
2.7634509e-04
-6.7504122e-03
-1.1751820e-02
-1.3975713e-02
-1.3907090e-02
-1.2326315e-02
-9.8105852e-03
-7.3083066e-03
-6.1627018e-03
-6.7922404e-03
-8.0343842e-03
-8.3373522e-03
-7.1103293e-03
-4.6723003e-03
-1.3376771e-03
2.9554162e-03
7.9538476e-03
1.2554401e-02
1.5648694e-02
1.7013177e-02
1.6783511e-02
1.5003249e-02
1.2028151e-02
8.3600734e-03
4.2976235e-03
2.6107912e-04
-3.3481916e-03
-6.7291792e-03
-1.0323726e-02
-1.3959235e-02
-1.6817505e-02
-1.8125402e-02
-1.7673223e-02
-1.5714177e-02
-1.2457380e-02
-7.8744678e-03
-2.1086161e-03
4.2080064e-03
1.0291036e-02
1.5736052e-02
2.0379091e-02
2.3506290e-02
2.3629202e-02
1.9682100e-02
1.2486247e-02
4.3709265e-03
-2.7592766e-03
-8.3913365e-03
-1.2733073e-02
-1.5788175e-02
-1.7056939e-02
-1.6045588e-02
-1.3087820e-02
-9.3738393e-03
-5.9160527e-03
-2.8109348e-03
1.1334430e-05
1.9848483e-03
2.7109264e-03
2.8606137e-03
3.5738152e-03
5.3787438e-03
7.9201484e-03
1.0335998e-02
1.1617833e-02
1.0988268e-02
8.3280491e-03
4.1527282e-03
-6.0779239e-04
-4.6967695e-03
-7.0281195e-03
-7.4213038e-03
-6.7180035e-03
-6.0441051e-03
-5.8661268e-03
-5.8696739e-03
-5.6210337e-03
-5.0955058e-03
-4.5450998e-03
-3.9440375e-03
-2.8266823e-03
-7.0631186e-04
2.4477824e-03
6.0653554e-03
9.3485478e-03
1.1835436e-02
1.3426279e-02
1.3864392e-02
1.2671475e-02
9.7983408e-03
5.8970729e-03
1.7110460e-03
-2.5393470e-03
-6.9591331e-03
-1.1368300e-02
-1.5044508e-02
-1.7016917e-02
-1.6757314e-02
-1.4594461e-02
-1.1261082e-02
-7.3133947e-03
-3.2495213e-03
4.0612437e-04
3.6743243e-03
7.2977271e-03
1.1821390e-02
1.6701389e-02
2.0416786e-02
2.1266108e-02
1.8353343e-02
1.2235789e-02
4.5552022e-03
-3.0602206e-03
-9.5172146e-03
-1.4053817e-02
-1.6441975e-02
-1.7244112e-02
-1.7016182e-02
-1.5431131e-02
-1.1895872e-02
-6.8228693e-03
-1.6434771e-03
2.3096825e-03
4.6640746e-03
6.0252292e-03
7.2655398e-03
8.6879408e-03
9.8938351e-03
1.0346140e-02
9.8284311e-03
8.4315189e-03
6.3523361e-03
3.8429217e-03
1.2597370e-03
-1.0669173e-03
-3.0223319e-03
-4.6667631e-03
-5.9918265e-03
-6.7467531e-03
-6.6014954e-03
-5.4883205e-03
-3.7319359e-03
-1.8549495e-03
-2.5957260e-04
8.9064571e-04
1.5659469e-03
1.8135005e-03
1.7657951e-03
1.5686239e-03
1.3081834e-03
1.0212053e-03
7.2095115e-04
4.1791860e-04
