-6.4587636e-03
-1.5511772e-02
-2.3924373e-02
-3.0278013e-02
-3.4728891e-02
-3.5854988e-02
-3.2488653e-02
-2.7333091e-02
-2.2547050e-02
-1.7435301e-02
-1.1440544e-02
-3.6808092e-03
4.9466591e-03
1.0574201e-02
1.3286775e-02
1.5289502e-02
1.6935033e-02
1.7942820e-02
1.7347775e-02
1.4501268e-02
8.9943021e-03
2.0893855e-03
-4.0358751e-03
-7.4358449e-03
-3.7253553e-03
5.8297051e-03
1.2418253e-02
1.4236254e-02
1.4365480e-02
1.3330742e-02
1.1067145e-02
7.7436905e-03
4.2373830e-03
1.8640311e-03
1.2574452e-03
2.1466215e-03
3.6336975e-03
5.4691701e-03
8.2725012e-03
1.1529579e-02
1.4332316e-02
1.6858844e-02
2.0183735e-02
2.2827389e-02
2.3367192e-02
2.2966777e-02
2.1749995e-02
1.9450824e-02
1.6674673e-02
1.5282212e-02
1.4234469e-02
1.0326801e-02
4.7683483e-03
-7.8604961e-04
-5.8896574e-03
-1.0119998e-02
-1.5199227e-02
-2.0903174e-02
-2.5707593e-02
-3.0324774e-02
-3.5122793e-02
-3.9752209e-02
-4.4539665e-02
-5.0700905e-02
-5.7518764e-02
-6.2045720e-02
-6.3307077e-02
-6.2400519e-02
-6.0079544e-02
-5.5725292e-02
-4.9320002e-02
-4.1123868e-02
-3.0273271e-02
-1.7600013e-02
-4.0827640e-03
1.0587540e-02
2.3917494e-02
3.2209480e-02
3.5710544e-02
3.5992277e-02
3.2909807e-02
2.8116433e-02
2.4390361e-02
2.1447558e-02
1.8072738e-02
1.3998764e-02
8.1104650e-03
3.9213884e-04
-8.2700310e-03
-1.7296483e-02
-2.5032159e-02
-3.1151343e-02
-3.6777148e-02
-4.0713890e-02
-4.1316423e-02
-3.9822582e-02
-3.6759045e-02
-3.0523367e-02
-2.2564402e-02
-1.5990176e-02
-1.0041527e-02
-3.8027663e-03
1.3166812e-03
6.0693876e-03
1.3065418e-02
2.1359985e-02
2.7883707e-02
3.1754431e-02
3.3920214e-02
3.5807808e-02
3.6973501e-02
3.6757191e-02
3.6203902e-02
3.6040585e-02
3.5921647e-02
3.6262310e-02
3.8189797e-02
4.1473447e-02
4.5210751e-02
4.9529635e-02
5.5712590e-02
6.4231750e-02
7.2441830e-02
7.2509554e-02
5.0501941e-02
1.2275249e-02
-1.2574112e-02
-1.4964657e-02
-4.9886438e-03
1.0572066e-02
2.5944388e-02
3.6647629e-02
4.0541433e-02
3.7528812e-02
3.0161467e-02
2.1209715e-02
1.1003220e-02
-7.1106678e-05
-1.1552582e-02
-2.3832937e-02
-3.6690422e-02
-4.7838253e-02
-5.4915025e-02
-5.8971436e-02
-6.1857510e-02
-6.4189106e-02
-6.4425137e-02
-5.9369148e-02
-4.8895307e-02
-3.3112637e-02
-1.3422810e-02
4.2201756e-03
1.7302456e-02
2.7879606e-02
3.7109755e-02
4.3867309e-02
4.7388661e-02
4.7759051e-02
4.4394652e-02
3.7238090e-02
2.8322598e-02
1.9294514e-02
1.0517819e-02
4.8315613e-03
3.5018903e-03
2.9182457e-03
4.3570872e-04
-3.1144573e-03
-6.4328076e-03
-9.1974001e-03
-1.1340998e-02
-1.2364451e-02
-1.1815651e-02
-1.1240222e-02
-1.4661527e-02
-2.0975096e-02
-2.4354876e-02
-2.3443280e-02
-1.9176590e-02
-1.2288644e-02
-4.4175054e-03
2.1225069e-03
5.4915043e-03
5.5688889e-03
3.5671066e-03
7.7982009e-04
-2.6142657e-03
-6.0759412e-03
-9.1889653e-03
-1.1282990e-02
-1.1783151e-02
-1.1765535e-02
-1.1065449e-02
-8.8227093e-03
-5.9382849e-03
-3.6642930e-03
-1.0131950e-03
1.4540958e-03
4.3682313e-04
-3.8095531e-03
-7.6444030e-03
-8.1250407e-03
-4.6525896e-03
3.6951378e-04
4.4285503e-03
7.4838038e-03
8.9490447e-03
8.8622968e-03
8.5385773e-03
6.4902210e-03
1.8672806e-03
-2.3914315e-03
-4.1659827e-03
-4.1849171e-03
-3.5113223e-03
-3.7123860e-03
-6.2922109e-03
-9.7570707e-03
-1.1459477e-02
-1.1199043e-02
-1.0911973e-02
-1.0715139e-02
-8.5466183e-03
-4.1014215e-03
1.8281868e-03
8.2557506e-03
1.3670393e-02
1.7770369e-02
2.1477051e-02
2.5188539e-02
2.6492292e-02
2.3694646e-02
1.8898200e-02
1.4073195e-02
9.1124387e-03
3.2267842e-03
-2.1742971e-03
-5.9122283e-03
-9.7879539e-03
-1.5704272e-02
-2.3213035e-02
-3.0422718e-02
-3.5476393e-02
-3.6851563e-02
-3.5482353e-02
-3.3353219e-02
-3.2210489e-02
-3.0809594e-02
-2.3685685e-02
-7.0265425e-03
1.5114157e-02
3.1551624e-02
3.8431681e-02
4.0950781e-02
4.1391933e-02
3.8300812e-02
3.1899449e-02
2.4764359e-02
1.8509262e-02
1.2883568e-02
6.5042070e-03
-3.4292858e-04
-6.1845160e-03
-1.1070487e-02
-1.4650351e-02
-1.6314051e-02
-1.6536302e-02
-1.5919345e-02
-1.5478994e-02
-1.5326342e-02
-1.3993688e-02
-1.1432796e-02
-9.3790831e-03
-7.8431615e-03
-5.0380304e-03
-2.1802701e-04
6.0617432e-03
1.2851468e-02
1.9858508e-02
2.5450521e-02
2.7662761e-02
2.8789525e-02
3.0338413e-02
2.9405685e-02
2.5173088e-02
1.9693380e-02
1.3980770e-02
7.5708425e-03
4.9406185e-04
-5.3438694e-03
-8.5776529e-03
-9.2949877e-03
-9.5656267e-03
-1.1454041e-02
-1.3305525e-02
-1.4340740e-02
-1.5441251e-02
-1.5596455e-02
-1.5445103e-02
-1.6228191e-02
-1.6112660e-02
-1.4109276e-02
-1.1641087e-02
-8.9771787e-03
-5.1121634e-03
-4.1451349e-04
3.0877134e-03
5.2935640e-03
8.1514067e-03
1.2050173e-02
1.5953621e-02
1.7559545e-02
1.5129952e-02
1.0583676e-02
5.9642051e-03
1.1920222e-03
-3.4979441e-03
-7.6096650e-03
-1.0353629e-02
-1.1544258e-02
-1.2219669e-02
-1.2278875e-02
-1.2148196e-02
-1.2766059e-02
-1.2538905e-02
-1.0846508e-02
-9.0415895e-03
-7.6227189e-03
-6.7008244e-03
-5.9179477e-03
-4.8454306e-03
-3.4115992e-03
-1.9966584e-03
-6.5124083e-04
1.0147298e-03
2.0024404e-03
2.7946321e-03
4.8359352e-03
6.9439702e-03
8.2057708e-03
8.7443536e-03
7.2023732e-03
2.5833152e-03
-3.7646882e-03
-1.0918603e-02
-1.8978351e-02
-2.5651069e-02
-2.7465837e-02
-2.3343280e-02
-1.2400146e-02
2.0093840e-03
1.1719826e-02
1.5304788e-02
1.6654791e-02
1.7729281e-02
1.8358576e-02
1.7283773e-02
1.4121138e-02
1.1356553e-02
1.1395454e-02
1.3671801e-02
1.6251304e-02
1.7646402e-02
1.7705817e-02
1.6569486e-02
1.4708056e-02
1.4711549e-02
1.8115863e-02
2.1588917e-02
2.2130751e-02
2.1623313e-02
2.2706947e-02
2.5293278e-02
2.8422671e-02
3.0816608e-02
3.0053277e-02
2.5758100e-02
2.0529983e-02
1.5085491e-02
8.7380923e-03
2.4732193e-03
-3.5284044e-03
-9.7756163e-03
-1.5790034e-02
-2.1937360e-02
-2.9001881e-02
-3.6104950e-02
-4.3034892e-02
-5.0875185e-02
-5.9830938e-02
-6.9667363e-02
-7.9049920e-02
-8.6761750e-02
-9.3316732e-02
-9.9242736e-02
-1.0329175e-01
-1.0212542e-01
-9.2675972e-02
-7.0965247e-02
-3.1249660e-02
1.7104040e-02
5.2873960e-02
7.1284408e-02
7.8515477e-02
7.9366854e-02
7.7512685e-02
7.2632755e-02
6.4534237e-02
5.5185649e-02
4.6216525e-02
3.8617780e-02
3.3010038e-02
2.9584307e-02
2.8528924e-02
2.8455908e-02
2.6876887e-02
2.3586056e-02
2.0261570e-02
1.8585509e-02
1.7678524e-02
1.5783204e-02
1.3808987e-02
1.1925610e-02
7.5595198e-03
-2.3769086e-03
-1.5538200e-02
-2.4415588e-02
-2.5691277e-02
-2.0809651e-02
-1.2391396e-02
-2.6324973e-03
7.3878643e-03
1.6519410e-02
2.3011074e-02
2.5923696e-02
2.6830079e-02
2.7106301e-02
2.5144236e-02
2.0330199e-02
1.4255893e-02
7.0040184e-03
-1.1590366e-03
-9.8907556e-03
-1.9835408e-02
-2.9583762e-02
-3.7479896e-02
-4.2491316e-02
-4.2071972e-02
-3.3135029e-02
-8.7859465e-03
2.4242502e-02
4.1201412e-02
3.4804547e-02
1.5462577e-02
-7.6892532e-03
-2.7176018e-02
-3.9192957e-02
-4.3878948e-02
-4.2150894e-02
-3.6158566e-02
-2.9147637e-02
-2.4414662e-02
-2.3914184e-02
-2.6731403e-02
-3.0366306e-02
-3.3259921e-02
-3.5662498e-02
-3.8309812e-02
-4.0600621e-02
-4.1105351e-02
-4.0097969e-02
-3.7878788e-02
-3.3924272e-02
-2.7213337e-02
-1.4781569e-02
2.3691924e-03
1.7444280e-02
2.7139878e-02
3.2580563e-02
3.5845035e-02
3.8379836e-02
3.9793211e-02
3.9994779e-02
4.0251753e-02
4.3129280e-02
4.9248619e-02
5.5559458e-02
6.0260867e-02
6.4094305e-02
6.6803420e-02
6.8203388e-02
6.9884336e-02
7.3542846e-02
8.0327197e-02
8.9209537e-02
9.7135468e-02
1.0114688e-01
9.7505808e-02
8.0898196e-02
4.4438614e-02
-3.5329144e-03
-3.9008893e-02
-5.5265371e-02
-5.9959822e-02
-5.7072535e-02
-5.0411339e-02
-4.3576012e-02
-3.6772343e-02
-2.8804652e-02
-2.0594356e-02
-1.3905739e-02
-8.7723261e-03
-4.7843522e-03
-1.9327948e-03
1.1952412e-03
5.0288855e-03
7.3635858e-03
7.9179776e-03
7.8223016e-03
7.1960316e-03
6.9928473e-03
7.3787336e-03
7.4041865e-03
4.8767697e-03
-5.1937324e-03
-2.1758723e-02
-3.5139628e-02
-4.0959312e-02
-4.0669332e-02
-3.6241965e-02
-3.0128062e-02
-2.2956768e-02
-1.6136517e-02
-1.0282489e-02
-4.7811365e-03
-8.2606957e-04
1.3053305e-03
3.1272144e-03
6.2748572e-03
1.1299505e-02
1.5450807e-02
1.6204974e-02
1.4083679e-02
1.0139757e-02
7.0015187e-03
6.1749120e-03
6.7088990e-03
7.5686042e-03
5.4049175e-03
-2.0908796e-03
-1.1945008e-02
-2.0183841e-02
-2.5562875e-02
-2.8799652e-02
-2.9590684e-02
-2.7756254e-02
-2.6864390e-02
-2.8540508e-02
-2.8917600e-02
-2.5329400e-02
-1.9601975e-02
-1.3657824e-02
-7.6745876e-03
-2.6572284e-03
1.5540863e-04
6.7649138e-04
4.2932709e-04
2.9943760e-04
-8.0777781e-04
-3.1083648e-03
-5.6496344e-03
-7.7641700e-03
-8.7600609e-03
-9.6710861e-03
-1.2652929e-02
-1.6336405e-02
-1.7953405e-02
-1.7622304e-02
-1.5659372e-02
-1.1545004e-02
-6.8840242e-03
-2.6126808e-03
2.1501016e-03
6.8765833e-03
1.1357613e-02
1.6105940e-02
2.0778115e-02
2.4294043e-02
2.5165624e-02
2.2275833e-02
1.5247619e-02
6.3554649e-03
-1.2491499e-03
-7.3975857e-03
-1.3256256e-02
-1.9041659e-02
-2.4416074e-02
-2.8189801e-02
-2.9766442e-02
-3.0959401e-02
-3.2572083e-02
-3.2910261e-02
-3.0512953e-02
-2.6578343e-02
-2.1990269e-02
-1.5089057e-02
-5.1035189e-03
7.0355863e-03
2.0078601e-02
3.2524614e-02
4.1917822e-02
4.7798418e-02
5.1982352e-02
5.3784250e-02
5.1722026e-02
4.8187914e-02
4.6081375e-02
4.4975796e-02
4.3722057e-02
4.2760639e-02
4.2845519e-02
4.2210423e-02
3.7241207e-02
2.4925687e-02
1.4907000e-03
-2.9288095e-02
-5.2709905e-02
-6.3812838e-02
-6.7707354e-02
-6.5449588e-02
-5.8405705e-02
-4.9697523e-02
-4.0176635e-02
-2.9986019e-02
-1.8988969e-02
-6.1303557e-03
8.3320218e-03
2.2146742e-02
3.1064075e-02
3.1560284e-02
2.5839772e-02
1.9292956e-02
1.3446357e-02
4.1102879e-03
-1.1381673e-02
-2.9486956e-02
-4.6294000e-02
-5.9511782e-02
-6.4966540e-02
-5.9200246e-02
-4.4821379e-02
-2.6861171e-02
-9.7303747e-03
2.7278474e-03
1.1009307e-02
1.8076301e-02
2.6169031e-02
3.4750345e-02
3.9814529e-02
3.9209297e-02
3.4572400e-02
2.8125977e-02
2.1493992e-02
1.4622240e-02
5.0283170e-03
-7.6244128e-03
-1.9385202e-02
-2.6998469e-02
-3.0260831e-02
-3.0525402e-02
-2.8395116e-02
-2.3981125e-02
-1.9994678e-02
-1.9124376e-02
-2.1041653e-02
-2.3196243e-02
-2.3218473e-02
-2.0115003e-02
-1.3703085e-02
-4.9395270e-03
4.8004333e-03
1.3776417e-02
2.2206710e-02
3.0662163e-02
3.8036781e-02
4.3488305e-02
4.6239737e-02
4.6594890e-02
4.4649718e-02
3.9663107e-02
3.2554545e-02
2.5260715e-02
1.7986452e-02
1.0990968e-02
6.4672421e-03
4.6852739e-03
3.3385303e-03
-4.7980381e-04
-9.5034678e-03
-2.4670252e-02
-4.1269496e-02
-5.1458056e-02
-5.3867696e-02
-5.1650343e-02
-4.6134965e-02
-3.7276111e-02
-2.6646264e-02
-1.6333598e-02
-6.5577123e-03
3.5320886e-03
1.4609368e-02
2.4784377e-02
3.1818645e-02
3.5404447e-02
3.6202537e-02
3.5065740e-02
3.2506637e-02
3.0743582e-02
3.1237225e-02
3.2363912e-02
3.3902462e-02
3.5939899e-02
3.4974113e-02
2.5838556e-02
3.9178220e-03
-2.5276135e-02
-4.6409877e-02
-5.4917107e-02
-5.5486401e-02
-5.1204230e-02
-4.4962598e-02
-3.7698036e-02
-2.9789666e-02
-2.2160837e-02
-1.4385477e-02
-7.2107010e-03
-2.5147625e-03
-8.8206398e-04
-2.3042119e-03
-5.6874513e-03
-9.6393872e-03
-1.2837519e-02
-1.3628023e-02
-1.1859475e-02
-7.4993398e-03
-4.3441155e-04
6.9192979e-03
1.0889534e-02
9.5821291e-03
1.5684875e-03
-1.0508039e-02
-1.8391726e-02
-1.8960925e-02
-1.4137096e-02
-4.9607195e-03
6.6889106e-03
1.7727353e-02
2.6929486e-02
3.4569971e-02
4.0304732e-02
4.4255138e-02
4.7224738e-02
4.9508980e-02
5.0877094e-02
5.2332719e-02
5.4365266e-02
5.6907154e-02
6.0956089e-02
6.7027350e-02
7.4522063e-02
8.0612907e-02
8.2766567e-02
7.8950841e-02
6.3191039e-02
2.6444057e-02
-2.2446961e-02
-5.7885588e-02
-7.2962419e-02
-7.5315767e-02
-7.0301170e-02
-6.0768667e-02
-4.8005087e-02
-3.5409558e-02
-2.4310581e-02
-1.3603760e-02
-4.9407981e-03
-4.9579836e-04
6.1809135e-05
-2.9799735e-03
-9.1396080e-03
-1.7182460e-02
-2.6006750e-02
-3.4468237e-02
-4.1490152e-02
-4.6442024e-02
-4.9282602e-02
-4.9307549e-02
-4.5964573e-02
-3.8943776e-02
-2.7022662e-02
-1.2333752e-02
-7.1075361e-05
8.1219614e-03
1.2689477e-02
1.4763056e-02
1.7415079e-02
2.0883557e-02
2.2439266e-02
2.2383633e-02
2.3172259e-02
2.5244535e-02
2.7395574e-02
2.8716068e-02
2.8430966e-02
2.5074948e-02
1.8476137e-02
1.1766646e-02
8.0307226e-03
7.4308334e-03
9.6534301e-03
1.3842694e-02
1.7642431e-02
1.7955165e-02
1.2225656e-02
-2.3378730e-03
-2.2244520e-02
-3.6518649e-02
-4.2904901e-02
-4.4812649e-02
-4.2128850e-02
-3.6457836e-02
-3.0972614e-02
-2.5707573e-02
-1.8080643e-02
-8.9261697e-03
-1.3511837e-03
4.1178345e-03
8.1355523e-03
1.0316227e-02
8.5902724e-03
2.3582017e-03
-6.2903019e-03
-1.4283760e-02
-2.0521314e-02
-2.7017647e-02
-3.3529331e-02
-3.7777393e-02
-3.8292893e-02
-3.4005957e-02
-2.2934332e-02
-7.0816777e-03
5.1720810e-03
1.1336080e-02
1.4672786e-02
1.6578565e-02
1.8882214e-02
2.1985874e-02
2.3727462e-02
2.4795238e-02
2.7398944e-02
3.0869194e-02
3.4112983e-02
3.6449825e-02
3.5534475e-02
3.0836818e-02
2.3604787e-02
1.4641550e-02
6.8792886e-03
2.2090857e-03
-1.2048569e-03
-5.0519215e-03
-8.3959334e-03
-1.1521249e-02
-1.6411987e-02
-2.3043624e-02
-2.9223434e-02
-3.1344170e-02
-2.8793902e-02
-2.4301395e-02
-1.9090402e-02
-1.3529639e-02
-7.8914288e-03
-7.5825003e-04
8.9028665e-03
2.0322595e-02
3.2007024e-02
4.1603215e-02
4.5857153e-02
4.2611670e-02
3.3457288e-02
2.0925332e-02
5.6800988e-03
-9.1543179e-03
-2.0469504e-02
-2.9902397e-02
-3.8042171e-02
-4.3127706e-02
-4.4258147e-02
-4.1211308e-02
-3.2809821e-02
-2.1057609e-02
-1.2011625e-02
-5.9255190e-03
-9.7972154e-05
5.3153158e-03
1.0492959e-02
1.4713057e-02
1.7761429e-02
2.2228595e-02
2.9002281e-02
3.5484824e-02
3.9028999e-02
3.9332033e-02
3.6843278e-02
3.1495299e-02
2.4562836e-02
1.8620720e-02
1.4567097e-02
1.2290015e-02
1.2529746e-02
1.4550765e-02
1.5798720e-02
1.3905233e-02
6.9069558e-03
-7.3677445e-03
-2.5585579e-02
-3.8358283e-02
-4.1638580e-02
-3.8295090e-02
-3.1638074e-02
-2.2822242e-02
-1.3722083e-02
-6.3251974e-03
5.1006689e-04
6.8202052e-03
1.1147789e-02
1.3135681e-02
1.2030237e-02
8.1088647e-03
2.0228930e-03
-6.3262654e-03
-1.5131151e-02
-2.3799870e-02
-3.1594795e-02
-3.5365463e-02
-3.3558413e-02
-2.7295167e-02
-1.9413955e-02
-1.0867311e-02
-7.0935858e-04
9.3743526e-03
1.6304160e-02
1.9988713e-02
2.1761178e-02
2.3827346e-02
2.8290627e-02
3.4350490e-02
3.9157653e-02
3.8964782e-02
3.3711458e-02
2.8372299e-02
2.5120704e-02
2.0449880e-02
1.3276130e-02
6.0457379e-03
-9.6226709e-04
-8.5333406e-03
-1.8510373e-02
-3.1449292e-02
-4.4556630e-02
-5.4992617e-02
-6.0639638e-02
-6.1747778e-02
-5.9036642e-02
-5.1867975e-02
-4.2406176e-02
-3.5215794e-02
-3.1007247e-02
-2.6830084e-02
-2.0607620e-02
-1.1159555e-02
1.6393914e-03
1.6645546e-02
3.0836299e-02
3.9509583e-02
4.1051495e-02
3.7622088e-02
3.0516473e-02
1.9641464e-02
7.2372081e-03
-3.4106387e-03
-1.1399460e-02
-1.7313993e-02
-2.2374479e-02
-2.7094522e-02
-3.1639336e-02
-3.6454759e-02
-3.8963280e-02
-3.5075738e-02
-2.3507470e-02
-7.7196028e-03
5.9747287e-03
1.4283822e-02
1.8518896e-02
2.1885673e-02
2.5690236e-02
2.9064587e-02
3.0397433e-02
2.8085222e-02
2.2705940e-02
1.6313307e-02
1.0102096e-02
3.9257447e-03
-2.7480696e-03
-9.0884846e-03
-1.4127735e-02
-1.9669759e-02
-2.6225940e-02
-3.1287511e-02
-3.3290919e-02
-3.1665219e-02
-2.5639900e-02
-1.4240874e-02
1.0643526e-03
1.5507514e-02
2.6523482e-02
3.6019148e-02
4.4386455e-02
4.8939099e-02
4.9633374e-02
4.8515104e-02
4.3462545e-02
3.2006196e-02
1.7049016e-02
3.1062949e-03
-6.7194452e-03
-1.2444452e-02
-1.8028044e-02
-2.5955095e-02
-3.5053039e-02
-4.3955619e-02
-4.9024256e-02
-4.6418719e-02
-3.7255872e-02
-2.3530294e-02
-5.3953002e-03
1.4955878e-02
3.4047217e-02
4.8940401e-02
5.5558186e-02
5.3426415e-02
4.6677031e-02
3.7980837e-02
2.7581763e-02
1.6511108e-02
7.0897094e-03
6.9994967e-04
-2.2149349e-03
-2.7659306e-03
-1.6589766e-03
5.6997388e-04
2.0379677e-03
2.4951468e-03
2.4708007e-03
2.6361346e-03
3.0882193e-03
3.9383244e-03
6.0735584e-03
9.1205256e-03
1.3169205e-02
1.8300175e-02
2.2269334e-02
2.2919307e-02
1.8524072e-02
6.1696855e-03
-1.1637193e-02
-2.6990617e-02
-3.6262980e-02
-3.9776354e-02
-3.9288118e-02
-3.8014227e-02
-3.8364092e-02
-3.9758896e-02
-3.9738732e-02
-3.7526079e-02
-3.4170882e-02
-2.8594708e-02
-2.0228034e-02
-1.2046114e-02
-4.0823392e-03
4.5574453e-03
1.2112662e-02
1.9075228e-02
2.6728655e-02
3.3930207e-02
3.8262667e-02
3.8429101e-02
3.5245945e-02
2.9429174e-02
2.1085265e-02
1.2913464e-02
8.1475592e-03
5.3371650e-03
3.0394089e-03
1.0239905e-03
-1.6611577e-03
-5.0160128e-03
-8.9071194e-03
-1.1639450e-02
-1.2230246e-02
-1.1235192e-02
-9.4150649e-03
-8.2930113e-03
-6.1758226e-03
-1.0562203e-03
5.3899482e-03
1.1652000e-02
1.7051436e-02
1.9420404e-02
1.7603952e-02
1.2918492e-02
5.3752613e-03
-4.3747681e-03
-1.4012990e-02
-2.0594047e-02
-2.1133421e-02
-1.7523035e-02
-1.3928079e-02
-1.1284341e-02
-1.0261726e-02
-1.1651693e-02
-1.3622365e-02
-1.4655004e-02
-1.5490270e-02
-1.6886942e-02
-1.7472820e-02
-1.5568536e-02
-1.2808863e-02
-1.0092140e-02
-5.8111419e-03
1.0848286e-03
9.2692218e-03
1.6695081e-02
2.3945570e-02
2.9406425e-02
3.1119603e-02
2.9992929e-02
2.5961676e-02
1.8987095e-02
9.2314087e-03
-1.4740547e-03
-1.0355286e-02
-1.6435352e-02
-1.9092963e-02
-1.9123484e-02
-1.8324782e-02
-1.8152032e-02
-1.8052954e-02
-1.6154737e-02
-1.2538912e-02
-8.5275092e-03
-5.0785777e-03
-2.6368957e-03
-1.6982046e-03
-2.4472618e-04
3.7143672e-03
8.7498008e-03
1.4251501e-02
1.9828972e-02
2.4268055e-02
2.7454092e-02
2.9354462e-02
2.9339394e-02
2.6500887e-02
1.9512168e-02
9.4386527e-03
-1.6503365e-04
-7.3623552e-03
-1.1114619e-02
-1.1609419e-02
-1.1176878e-02
-1.1802735e-02
-1.4079598e-02
-1.7878861e-02
-2.1719519e-02
-2.3126099e-02
-2.0783941e-02
-1.5384087e-02
-9.0546485e-03
-2.9607579e-03
3.3976901e-03
9.4659149e-03
1.3423691e-02
1.6343815e-02
1.9323832e-02
2.0942167e-02
2.1114625e-02
1.8845794e-02
1.3083358e-02
5.6790224e-03
-9.8074026e-04
-5.6688358e-03
-7.4995554e-03
-6.0538321e-03
-4.1650124e-03
-4.4320216e-03
-5.9775911e-03
-7.6289167e-03
-8.5529922e-03
-9.0501865e-03
-1.0423590e-02
-1.1375500e-02
-1.0092265e-02
-8.3144743e-03
-6.9804233e-03
-3.2864091e-03
4.6462231e-03
1.5796249e-02
2.6305203e-02
3.2439115e-02
3.5174103e-02
3.6546120e-02
3.5700048e-02
3.0422515e-02
1.9853783e-02
6.8049208e-03
-4.1577498e-03
-1.1178717e-02
-1.5295715e-02
-1.8436302e-02
-2.1103231e-02
-2.2997127e-02
-2.4951893e-02
-2.7059359e-02
-2.8420456e-02
-2.8701523e-02
-2.7519767e-02
-2.4224610e-02
-2.0535493e-02
-1.7680985e-02
-1.4459545e-02
-9.9936732e-03
-4.6579627e-03
4.1657164e-04
4.6541091e-03
8.4813396e-03
1.2645379e-02
1.6950206e-02
2.1693594e-02
2.8095569e-02
3.4709405e-02
3.7313077e-02
3.5728559e-02
3.3609156e-02
3.1263925e-02
2.7030631e-02
2.1553324e-02
1.5194816e-02
6.5670885e-03
-5.3659166e-03
-1.9514509e-02
-3.3160940e-02
-4.3746553e-02
-5.0452047e-02
-5.4562903e-02
-5.6758268e-02
-5.6271557e-02
-5.3329131e-02
-4.9430133e-02
-4.4128833e-02
-3.4332832e-02
-1.8573351e-02
8.0635447e-04
1.9349498e-02
3.4593900e-02
4.3232036e-02
4.0209213e-02
3.0558813e-02
2.3980625e-02
2.3200585e-02
2.4739381e-02
2.4317485e-02
2.1417652e-02
1.5090182e-02
4.7499837e-03
-5.1579712e-03
-1.1811810e-02
-1.7373746e-02
-2.2479801e-02
-2.5372059e-02
-2.5031455e-02
-2.2635258e-02
-1.9710233e-02
-1.5918630e-02
-9.7308270e-03
-5.6758995e-04
8.5922467e-03
1.2561820e-02
1.1403172e-02
1.3439014e-02
2.0558978e-02
2.4359869e-02
2.1644285e-02
1.6089013e-02
1.1381291e-02
8.4932076e-03
6.7430660e-03
5.5839732e-03
4.9135636e-03
5.0512458e-03
6.5528236e-03
9.4310791e-03
1.2232641e-02
1.5769055e-02
2.2734008e-02
3.3894699e-02
4.8669677e-02
6.4655946e-02
7.8729112e-02
8.8137111e-02
9.0252806e-02
8.3663670e-02
6.7623251e-02
4.1950896e-02
5.4106062e-03
-3.4207367e-02
-6.0363815e-02
-7.0287603e-02
-7.1344894e-02
-6.9732951e-02
-6.9604740e-02
-6.8753640e-02
-6.4024077e-02
-5.6561002e-02
-4.7489430e-02
-3.5771840e-02
-2.2020472e-02
-9.4758119e-03
-4.8970972e-04
4.2562308e-03
5.9607169e-03
6.0731260e-03
6.1368429e-03
8.3012375e-03
1.1681796e-02
1.3133179e-02
1.0076428e-02
1.5224233e-03
-8.3164355e-03
-1.1647771e-02
-6.2099189e-03
1.1670776e-03
1.4886301e-03
-7.7036182e-03
-2.2018337e-02
-3.3631121e-02
-3.5077720e-02
-2.5034256e-02
-1.1483975e-02
-5.0762296e-03
-6.4034889e-03
-7.7207191e-03
-3.5846413e-03
5.8619511e-03
1.5279495e-02
1.8966600e-02
1.5737858e-02
8.8392837e-03
2.6305895e-03
-1.1735532e-03
-3.4409903e-03
-4.4619963e-03
-1.1936481e-03
8.4310084e-03
2.0590039e-02
2.7955588e-02
2.4556336e-02
1.1678212e-02
-3.6154704e-03
-1.4524869e-02
-1.9106930e-02
-2.1160629e-02
-2.2426873e-02
-2.2343869e-02
-2.1295775e-02
-1.8692312e-02
-1.5471598e-02
-1.3239512e-02
-1.0759639e-02
-6.4360334e-03
-1.6248544e-03
1.1948855e-03
1.7959341e-03
3.9538132e-04
-3.0808698e-03
-8.0594333e-03
-1.2889065e-02
-1.4750750e-02
-1.4415859e-02
-1.4397491e-02
-1.3729978e-02
-1.1980887e-02
-1.1608862e-02
-1.2822294e-02
-1.2078377e-02
-7.5347188e-03
-7.8491075e-04
5.9478483e-03
1.2401053e-02
1.9508730e-02
2.5583042e-02
2.9411611e-02
3.3054775e-02
3.6588262e-02
3.8768868e-02
4.0472853e-02
4.1578408e-02
4.0420734e-02
3.7612501e-02
3.5092173e-02
3.3103825e-02
3.1344729e-02
2.8181466e-02
2.0561529e-02
6.3346888e-03
-1.0921375e-02
-2.3283471e-02
-2.8687523e-02
-2.8891252e-02
-2.5575374e-02
-2.1016882e-02
-1.7258997e-02
-1.5040701e-02
-1.2503675e-02
-9.0915993e-03
-5.6619681e-03
-2.3385224e-03
5.4040270e-05
1.3102622e-03
2.0665116e-03
2.2885834e-03
1.1509472e-03
-2.0005606e-03
-5.4817630e-03
-6.4869388e-03
-5.4884339e-03
-5.5262299e-03
-7.0743754e-03
-7.8274212e-03
-7.3088672e-03
-6.1317854e-03
-2.9105742e-03
2.5834624e-03
8.7805997e-03
1.3773393e-02
1.6516967e-02
1.8740877e-02
2.1768363e-02
2.2846863e-02
1.8552314e-02
1.0321759e-02
7.3638770e-04
-8.5632761e-03
-1.5284793e-02
-1.9401492e-02
-2.2120641e-02
-2.4069292e-02
-2.6086873e-02
-2.8270935e-02
-2.9855457e-02
-3.0608745e-02
-2.8751454e-02
-2.2630517e-02
-1.3044352e-02
1.1663308e-03
1.8090036e-02
3.0591007e-02
3.6052025e-02
3.6667436e-02
3.5165929e-02
3.2707781e-02
2.7818706e-02
1.9818034e-02
1.0010817e-02
-4.5548399e-05
-7.5985591e-03
-1.1552569e-02
-1.3179965e-02
-1.2594605e-02
-1.0642896e-02
-8.5139645e-03
-5.1534082e-03
5.9955671e-04
7.6554434e-03
1.4183052e-02
1.9703781e-02
2.4027303e-02
2.6019620e-02
2.4322015e-02
1.6266793e-02
3.7058808e-03
-4.9985322e-03
-7.2584155e-03
-6.6938073e-03
-4.2017307e-03
5.8122077e-04
5.3066851e-03
6.2835038e-03
2.1377381e-03
-3.2964921e-03
-6.0247997e-03
-6.7791344e-03
-7.1408985e-03
-7.3390204e-03
-7.4334808e-03
-8.4562250e-03
-1.1465736e-02
-1.5804526e-02
-1.9176741e-02
-1.8962260e-02
-1.5883164e-02
-1.3001420e-02
-1.0041883e-02
-5.2571659e-03
8.1299946e-04
6.8245424e-03
1.1609373e-02
1.5062755e-02
1.8371716e-02
2.1767136e-02
2.3787242e-02
2.2776751e-02
1.8397528e-02
1.2971885e-02
9.0997221e-03
5.1726273e-03
-8.5141430e-04
-6.7443913e-03
-1.1173947e-02
-1.6065916e-02
-2.1627150e-02
-2.4622735e-02
-2.3165857e-02
-2.0081956e-02
-1.8206249e-02
-1.7573620e-02
-1.7555123e-02
-1.6596429e-02
-1.2748042e-02
-5.8627589e-03
2.9058987e-03
1.1620253e-02
1.8782685e-02
2.4897918e-02
3.0054548e-02
3.3491475e-02
3.3513932e-02
2.9090874e-02
2.0832775e-02
9.7577115e-03
-9.4758674e-04
-8.9829954e-03
-1.5381444e-02
-2.1437044e-02
-2.7257254e-02
-3.2828479e-02
-3.7387891e-02
-4.0110406e-02
-4.2244220e-02
-4.4791349e-02
-4.5960454e-02
-4.3156782e-02
-3.6557666e-02
-2.7782274e-02
-1.4830007e-02
1.7294897e-03
1.5091592e-02
2.3101821e-02
2.7699460e-02
2.9974662e-02
3.1697996e-02
3.2885187e-02
3.1887793e-02
2.9179612e-02
2.6186997e-02
2.1058497e-02
1.3111568e-02
6.1916711e-03
2.0365068e-03
-1.1968994e-04
-2.7699593e-04
4.4606133e-04
1.0903237e-03
2.3354014e-03
5.1300162e-03
1.0311999e-02
1.6628435e-02
2.2159690e-02
2.6945351e-02
3.0954165e-02
3.3819690e-02
3.6235780e-02
3.6739217e-02
3.2143621e-02
2.3884147e-02
1.7491524e-02
1.7075212e-02
2.0966656e-02
2.1403361e-02
1.1444540e-02
-8.1808294e-03
-3.0648047e-02
-4.8413753e-02
-5.7399419e-02
-5.7986391e-02
-5.1842411e-02
-4.2489744e-02
-3.5030038e-02
-3.1324283e-02
-3.0683744e-02
-3.1260640e-02
-3.0156311e-02
-2.5676779e-02
-1.8079509e-02
-9.2737087e-03
-1.3594603e-03
4.6120373e-03
9.1024380e-03
1.2455983e-02
1.4793083e-02
1.7956824e-02
2.2652263e-02
2.8101796e-02
3.2127989e-02
3.2004082e-02
2.7283552e-02
1.8954473e-02
9.7476497e-03
1.5857660e-03
-5.2186092e-03
-9.6778979e-03
-1.1845337e-02
-1.3076538e-02
-1.5003157e-02
-1.8068470e-02
-2.0446799e-02
-2.0975825e-02
-2.0411357e-02
-1.8845501e-02
-1.5378669e-02
-1.1095849e-02
-7.4129957e-03
-2.9099036e-03
2.7825491e-03
7.9652594e-03
1.2209269e-02
1.5821457e-02
1.8519469e-02
2.0204387e-02
1.9944158e-02
1.6753181e-02
1.2946521e-02
1.1044054e-02
9.2069456e-03
5.4643980e-03
1.4428003e-03
-1.3834059e-03
-3.9571565e-03
-6.7423223e-03
-8.0395972e-03
-8.2764848e-03
-9.5283180e-03
-1.1608049e-02
-1.2733747e-02
-9.3881572e-03
-1.2073804e-03
6.7003483e-03
1.2680191e-02
1.8577424e-02
2.3172343e-02
2.4271943e-02
2.1917713e-02
1.8122399e-02
1.3838849e-02
7.5723071e-03
8.7471056e-05
-5.2768905e-03
-8.7485321e-03
-1.2016960e-02
-1.3086498e-02
-1.2369585e-02
-1.2747411e-02
-1.3883249e-02
-1.5037625e-02
-1.4950650e-02
-1.3636991e-02
-1.4456806e-02
-1.6757728e-02
-1.6988720e-02
-1.3819988e-02
-5.8314277e-03
5.5217047e-03
1.5972470e-02
2.3598989e-02
2.7249181e-02
2.5938617e-02
2.0538351e-02
1.3629583e-02
8.5985019e-03
6.2495159e-03
5.7796878e-03
7.0717017e-03
9.4795030e-03
1.1792514e-02
1.2907297e-02
1.3285896e-02
1.4016670e-02
1.6459992e-02
2.1389196e-02
2.6634803e-02
3.1369367e-02
3.6960283e-02
4.1410130e-02
3.9847901e-02
2.7263278e-02
7.7051525e-03
-4.8655665e-03
-6.5345523e-03
-4.3776595e-03
-2.9723258e-03
-4.4307979e-03
-9.7901417e-03
-1.7170166e-02
-2.4671545e-02
-3.2900629e-02
-4.1080654e-02
-4.6730649e-02
-4.8547891e-02
-4.6389447e-02
-4.0901783e-02
-3.4678672e-02
-3.0608929e-02
-2.8120279e-02
-2.4529660e-02
-1.8695411e-02
-1.1890148e-02
-4.7447957e-03
3.2973806e-03
1.1348593e-02
1.7079411e-02
2.0369725e-02
2.1756489e-02
1.9360378e-02
1.3579235e-02
5.7688052e-03
-3.1387334e-03
-9.6228550e-03
-1.2187420e-02
-1.3032919e-02
-1.2896193e-02
-1.1090573e-02
-8.9405650e-03
-8.2706652e-03
-7.7304408e-03
-5.2998811e-03
-2.1005303e-03
4.7656577e-04
2.8730775e-03
5.8942336e-03
9.6813116e-03
1.2628693e-02
1.4780577e-02
1.8205827e-02
2.1109719e-02
2.0304490e-02
1.7234662e-02
1.4655428e-02
1.2253271e-02
9.4441591e-03
6.4419282e-03
5.4192138e-03
7.4128906e-03
9.7476066e-03
1.1124308e-02
1.1112547e-02
1.0245230e-02
9.4471754e-03
6.2638153e-03
-1.6057372e-03
-1.0452349e-02
-1.4680885e-02
-1.5021903e-02
-1.5196791e-02
-1.4556841e-02
-1.1496549e-02
-6.8965983e-03
-1.6733194e-03
3.0290732e-03
6.3501063e-03
7.4627701e-03
4.6696215e-03
-1.3600858e-03
-8.4818881e-03
-1.5546057e-02
-2.1380409e-02
-2.6129418e-02
-2.9423263e-02
-2.9649680e-02
-2.7350721e-02
-2.4856036e-02
-2.3155686e-02
-2.1376185e-02
-1.9822312e-02
-1.9332151e-02
-1.8211450e-02
-1.6140555e-02
-1.5203490e-02
-1.3746121e-02
-1.0956055e-02
-9.2239214e-03
-7.8216895e-03
-4.6676933e-03
-7.5378020e-04
3.8517318e-03
1.3872539e-02
2.8485857e-02
3.8215531e-02
3.9159096e-02
3.3428038e-02
2.3033863e-02
1.2323730e-02
6.1176871e-03
4.7469319e-03
4.0907556e-03
1.7052961e-03
-1.0435194e-03
-3.3761245e-03
-6.3016534e-03
-9.4690139e-03
-1.1152051e-02
-1.0716615e-02
-9.2726831e-03
-7.7157211e-03
-4.9596317e-03
1.8972724e-04
7.4331355e-03
1.5082372e-02
2.1768857e-02
2.7273259e-02
2.9999018e-02
2.7709565e-02
2.2485439e-02
1.7153636e-02
9.9794882e-03
9.9524306e-04
-5.5984626e-03
-8.7072545e-03
-1.0619215e-02
-1.1247653e-02
-1.1180278e-02
-1.2809171e-02
-1.5829748e-02
-1.8313848e-02
-1.8281158e-02
-1.5373888e-02
-1.0001753e-02
-3.0224345e-03
3.6552995e-03
9.9866763e-03
1.5871214e-02
2.0807734e-02
2.5649645e-02
3.1060035e-02
3.5340247e-02
3.4369952e-02
2.8119089e-02
2.1321152e-02
1.6137854e-02
1.1464014e-02
6.7413688e-03
2.6080262e-03
1.2651421e-04
4.0199509e-05
1.7120977e-03
4.9095990e-03
9.6173846e-03
1.4188924e-02
1.4970463e-02
7.9630891e-03
-8.5157516e-03
-2.9898467e-02
-4.6728862e-02
-5.5266377e-02
-5.6571370e-02
-5.1937675e-02
-4.4428436e-02
-3.6403890e-02
-2.8278116e-02
-1.8562262e-02
-4.8033944e-03
8.1411852e-03
1.1660617e-02
7.9160171e-03
2.9022967e-03
-1.8834642e-03
-5.7803974e-03
-9.6076979e-03
-1.4949657e-02
-2.0104667e-02
-2.1655824e-02
-2.0146497e-02
-1.8278804e-02
-1.5856759e-02
-1.2123046e-02
-7.2406499e-03
-1.3365267e-03
3.6315114e-03
7.0942461e-03
1.0175573e-02
1.2767133e-02
1.5415243e-02
1.9471408e-02
2.6056298e-02
3.4591154e-02
4.4907850e-02
5.6482680e-02
6.5537929e-02
7.0879474e-02
7.3222527e-02
7.1284821e-02
6.4657589e-02
5.3061221e-02
3.5283051e-02
1.0771501e-02
-1.8376366e-02
-4.6570700e-02
-6.8843291e-02
-8.0886999e-02
-8.1081921e-02
-7.2986997e-02
-6.0132813e-02
-4.4518401e-02
-2.7273045e-02
-1.0278917e-02
3.4094941e-03
1.3458677e-02
2.2964170e-02
3.2701627e-02
3.9275415e-02
3.8998365e-02
3.0516701e-02
1.6838949e-02
2.8315499e-03
-9.1042132e-03
-1.9769775e-02
-3.0626551e-02
-4.0532878e-02
-4.7446792e-02
-5.0512177e-02
-4.9875977e-02
-4.5788533e-02
-3.8862130e-02
-3.0489544e-02
-2.1745619e-02
-1.2827232e-02
-2.7370297e-03
8.3509017e-03
1.8738923e-02
2.7600321e-02
3.3810701e-02
3.7772413e-02
4.0606974e-02
4.0928563e-02
3.9151855e-02
3.5920812e-02
3.0895244e-02
2.6453107e-02
2.3966150e-02
2.1355948e-02
1.7215579e-02
1.2666187e-02
9.4524490e-03
8.4291702e-03
7.8741535e-03
5.2142770e-03
-2.6958878e-04
-7.5348637e-03
-1.4629282e-02
-2.1193029e-02
-2.8164539e-02
-3.5647924e-02
-4.2792808e-02
-4.9084459e-02
-5.5632165e-02
-6.1050733e-02
-6.1863811e-02
-5.8401768e-02
-5.2169515e-02
-4.1731468e-02
-2.4179687e-02
-4.0465581e-03
9.0874548e-03
1.4434125e-02
1.6371843e-02
1.6809361e-02
1.6792770e-02
1.6268707e-02
1.4731245e-02
1.3283105e-02
1.2285623e-02
1.2017724e-02
1.2944726e-02
1.4794830e-02
1.7793767e-02
2.1838090e-02
2.5681986e-02
2.8168556e-02
3.0074658e-02
3.1449843e-02
3.0913643e-02
2.8195972e-02
2.4978497e-02
2.2586578e-02
1.9430187e-02
1.3744742e-02
6.5725576e-03
4.0074913e-04
-3.8719622e-03
-6.5249686e-03
-7.5318938e-03
-7.5594217e-03
-7.2064455e-03
-7.0920807e-03
-8.5568777e-03
-1.0997531e-02
-1.2179828e-02
-1.1155948e-02
-9.1238225e-03
-7.1401015e-03
-4.9497529e-03
-2.6235530e-03
-9.3774025e-04
-4.1287060e-04
1.7596984e-04
1.9620536e-03
4.4046865e-03
7.4128238e-03
1.0048905e-02
1.0330173e-02
8.2446567e-03
4.3910351e-03
-1.2759582e-03
-6.5699198e-03
-9.1319738e-03
-1.0005425e-02
-1.0513801e-02
-1.0582729e-02
-9.9275049e-03
-8.3534927e-03
-6.2804787e-03
-4.0642094e-03
-1.7720628e-03
7.3334378e-04
3.8109806e-03
7.9613492e-03
1.3963514e-02
2.1668301e-02
3.0408656e-02
3.8628173e-02
4.4771388e-02
4.9177612e-02
5.1424336e-02
4.9321477e-02
4.1745633e-02
2.6336308e-02
4.6697060e-03
-1.2969413e-02
-2.1937939e-02
-2.5300093e-02
-2.5445674e-02
-2.4105021e-02
-2.1535369e-02
-1.7287606e-02
-1.2597357e-02
-8.4490030e-03
-4.1538105e-03
1.1896472e-03
8.0315735e-03
1.6371050e-02
2.3870949e-02
2.7181846e-02
2.6231820e-02
2.2832007e-02
1.8301216e-02
1.2615359e-02
4.7747728e-03
-4.5634565e-03
-1.4087915e-02
-2.2604369e-02
-2.7678146e-02
-2.7170027e-02
-1.9309455e-02
-4.0548911e-03
1.6939452e-02
4.1282241e-02
6.3902505e-02
7.8986986e-02
8.1848518e-02
6.9905879e-02
4.3523672e-02
6.4345057e-03
-3.4728725e-02
-7.2224880e-02
-9.8504385e-02
-1.0923035e-01
-1.0563424e-01
-9.1114473e-02
-7.0001135e-02
-4.9512857e-02
-3.5979685e-02
-3.1215502e-02
-3.2238764e-02
-3.3542930e-02
-2.8477816e-02
-1.0132764e-02
1.7417352e-02
3.8763399e-02
4.6015255e-02
4.2814044e-02
3.4130239e-02
2.1984221e-02
8.8759372e-03
-1.4057565e-03
-5.7599781e-03
-3.2901115e-03
4.0648462e-03
1.2163710e-02
1.6046349e-02
1.5348201e-02
1.3545992e-02
1.5833317e-02
2.6859125e-02
4.4427755e-02
5.9461440e-02
6.1076145e-02
4.6458926e-02
2.2954522e-02
-9.4185017e-04
-1.7637379e-02
-2.1216861e-02
-1.2536310e-02
3.3988014e-03
1.9842894e-02
2.4795421e-02
8.8379844e-03
-2.0809222e-02
-4.5377233e-02
-5.1678629e-02
-4.0427997e-02
-2.2687312e-02
-7.8063822e-03
3.8643813e-03
1.6498884e-02
3.1962545e-02
4.7077095e-02
5.4217598e-02
4.8442710e-02
3.2852879e-02
1.5059151e-02
2.4366822e-03
-3.8348268e-03
-8.4630094e-03
-1.3775545e-02
-2.1153031e-02
-3.4724628e-02
-5.1164254e-02
-6.1580633e-02
-6.5235021e-02
-6.4185128e-02
-5.8695894e-02
-5.0660452e-02
-4.1839925e-02
-3.2544828e-02
-2.3334682e-02
-1.5047542e-02
-7.0944229e-03
-9.1632815e-04
1.5941847e-03
2.1695331e-03
2.2044111e-03
3.5400261e-04
-3.6589458e-03
-8.3833416e-03
-1.3762032e-02
-1.9318073e-02
-2.4441898e-02
-2.9603594e-02
-3.2824132e-02
-3.0721006e-02
-2.1013045e-02
-5.8498498e-03
7.9292269e-03
1.6348645e-02
1.9823353e-02
2.0505961e-02
2.0518566e-02
2.0111276e-02
1.9486916e-02
1.8894849e-02
1.8017223e-02
1.8988028e-02
2.1823630e-02
2.2168172e-02
1.9947037e-02
1.8037589e-02
1.5166378e-02
1.0358574e-02
4.9816797e-03
-2.0990298e-04
-4.1857687e-03
-4.7513379e-03
-9.8524513e-04
3.6443844e-03
7.0950923e-03
1.0347614e-02
1.3054187e-02
1.4192730e-02
1.2619831e-02
8.5426607e-03
2.5255102e-03
-3.6946639e-03
-7.1010665e-03
-7.4385733e-03
-6.0077684e-03
-3.3853302e-03
3.8540915e-04
4.1252193e-03
7.9475712e-03
1.2593755e-02
1.5690332e-02
1.5206847e-02
1.1116315e-02
4.5274436e-03
-2.1970739e-03
-6.9077698e-03
-9.8339757e-03
-1.1464153e-02
-1.0274844e-02
-7.6866983e-03
-6.4526140e-03
-6.6386584e-03
-7.8246821e-03
-8.5266483e-03
-7.8549690e-03
-5.9146313e-03
-2.2099018e-03
2.1443271e-03
6.1000674e-03
9.3397842e-03
1.0372529e-02
9.4488230e-03
7.5349755e-03
4.4323957e-03
1.6998821e-03
5.1155432e-05
-2.3694183e-03
-5.5903471e-03
-7.9577843e-03
-8.8436566e-03
-9.5852180e-03
-1.1899236e-02
-1.6121594e-02
-2.1014339e-02
-2.4077200e-02
-2.3284204e-02
-1.8862369e-02
-1.2826457e-02
-5.9022777e-03
1.1328398e-03
7.0474168e-03
1.1290052e-02
1.3083120e-02
1.3812727e-02
1.5412855e-02
1.7008503e-02
1.7815277e-02
1.7836891e-02
1.5166756e-02
1.0072478e-02
4.6752086e-03
-9.9434305e-04
-6.4913738e-03
-1.1412736e-02
-1.5516945e-02
-1.8277074e-02
-1.9992988e-02
-2.0827833e-02
-2.0430794e-02
-1.9115564e-02
-1.7933070e-02
-1.6107774e-02
-1.3102082e-02
-1.0072897e-02
-6.9916768e-03
-4.2116644e-03
-2.6064896e-03
-6.7180070e-04
2.4875694e-03
4.8191251e-03
5.6679373e-03
4.9814446e-03
2.5471575e-03
-3.6318495e-04
-3.0720907e-03
-5.0416354e-03
-5.2882202e-03
-2.6487669e-03
3.6687130e-03
1.1387453e-02
1.7688371e-02
2.2614755e-02
2.6269615e-02
2.9081602e-02
3.0966402e-02
3.0648560e-02
2.9966445e-02
3.1546206e-02
3.4386310e-02
3.7504324e-02
4.2612518e-02
5.0098396e-02
5.7836276e-02
6.2247126e-02
5.8880099e-02
4.4590762e-02
1.9870790e-02
-9.3219769e-03
-3.3174424e-02
-4.6647225e-02
-5.3111955e-02
-5.5284488e-02
-5.3796802e-02
-5.0784297e-02
-4.7113274e-02
-4.0773385e-02
-2.9656556e-02
-1.4336102e-02
-2.3174027e-04
3.3624278e-03
-1.9993168e-03
-2.7570914e-03
8.0949050e-03
2.8632608e-02
4.8257937e-02
5.0176830e-02
3.0347868e-02
1.2625294e-03
-2.1499664e-02
-3.1007769e-02
-3.1207991e-02
-2.8210835e-02
-2.4080597e-02
-1.8620691e-02
-1.2939055e-02
-1.0034635e-02
-1.1772658e-02
-1.5958780e-02
-1.9247708e-02
-1.9560909e-02
-1.4223111e-02
-2.8979662e-04
2.1195782e-02
4.2130605e-02
5.1965764e-02
4.7004288e-02
3.4264323e-02
2.6058667e-02
2.9042019e-02
3.9229186e-02
4.9141277e-02
5.4483989e-02
5.4752780e-02
5.1229996e-02
4.3083883e-02
2.8035610e-02
7.2282290e-03
-1.3450123e-02
-2.9131011e-02
-3.9687591e-02
-4.5159201e-02
-4.4843226e-02
-4.0161178e-02
-3.4463749e-02
-3.0784132e-02
-2.9213699e-02
-2.5421667e-02
-1.3476649e-02
5.6063489e-03
2.3364572e-02
3.1637831e-02
3.1460656e-02
3.2006776e-02
3.5828842e-02
3.8863920e-02
3.8855029e-02
3.6578988e-02
3.3751302e-02
2.9236412e-02
1.9695650e-02
3.1342870e-03
-2.0279290e-02
-4.6543711e-02
-6.6015940e-02
-7.2529019e-02
-6.8444917e-02
-5.8412052e-02
-4.6993537e-02
-3.7365441e-02
-2.7583403e-02
-1.4015176e-02
4.2393153e-04
1.0548132e-02
1.7123478e-02
2.2765215e-02
2.7149760e-02
2.6448044e-02
1.8164332e-02
7.8744842e-03
2.1427057e-03
1.2799983e-03
1.5844380e-03
-1.8955413e-04
-3.6140624e-03
-7.2849683e-03
-8.7818846e-03
-5.2234917e-03
2.0804668e-03
7.0018394e-03
3.7900528e-03
-6.4642270e-03
-1.9632340e-02
-3.3939795e-02
-4.7741052e-02
-5.7423436e-02
-5.7562310e-02
-4.5812161e-02
-2.7147621e-02
-1.0298285e-02
-9.1059418e-04
-2.9834440e-04
-6.5801677e-03
-1.3039243e-02
-1.6440516e-02
-2.1458844e-02
-3.0173209e-02
-3.7930770e-02
-4.1265825e-02
-4.2033813e-02
-4.1751390e-02
-3.8963182e-02
-3.4950692e-02
-3.3867909e-02
-3.5987155e-02
-3.8835243e-02
-3.8798209e-02
-3.3913173e-02
-2.7175990e-02
-2.0595626e-02
-1.3826143e-02
-7.0647001e-03
-2.6950296e-04
6.9983463e-03
1.4052107e-02
1.9499644e-02
2.3744676e-02
2.8581548e-02
3.5612492e-02
4.5125020e-02
5.5963596e-02
6.6251694e-02
7.4240452e-02
7.8763868e-02
7.6903777e-02
6.4212157e-02
4.0139531e-02
1.0891659e-02
-1.2205551e-02
-1.8226551e-02
-4.9692820e-03
1.8086950e-02
3.7150379e-02
4.3309121e-02
3.3992976e-02
1.3261597e-02
-7.9102990e-03
-1.9695223e-02
-2.0994116e-02
-1.6519999e-02
-1.0883309e-02
-6.8242754e-03
-5.3143827e-03
-5.4750514e-03
-7.2198949e-03
-1.1064662e-02
-1.5475220e-02
-1.9924162e-02
-2.4047527e-02
-2.6703289e-02
-2.8926927e-02
-3.0208062e-02
-2.9258107e-02
-2.5934200e-02
-1.9702088e-02
-1.2751312e-02
-7.7700079e-03
-4.5440657e-03
-1.8064505e-03
5.5555366e-04
1.9210129e-03
3.0610990e-03
4.8988295e-03
7.4903147e-03
1.0229429e-02
1.2369474e-02
1.6105812e-02
2.2309099e-02
2.7035595e-02
2.9483767e-02
3.0710149e-02
3.0279005e-02
3.0493829e-02
3.1669638e-02
3.1106736e-02
2.8774628e-02
2.4834424e-02
1.9916335e-02
1.5228722e-02
1.0920416e-02
8.8707552e-03
9.1472285e-03
1.0179991e-02
1.2289145e-02
1.6534446e-02
2.3571727e-02
3.1679652e-02
3.8054448e-02
4.1196984e-02
3.9994452e-02
3.3237850e-02
1.9899601e-02
2.9351443e-03
-1.0258835e-02
-1.8166433e-02
-2.3657194e-02
-2.6494362e-02
-2.7213094e-02
-2.8233676e-02
-2.9477313e-02
-2.9314914e-02
-2.8099880e-02
-2.6429295e-02
-2.3817734e-02
-1.9512505e-02
-1.3724469e-02
-8.3943609e-03
-4.8832900e-03
-2.4206201e-03
5.7988786e-04
3.3393398e-03
3.6588368e-03
2.3814106e-03
1.2998488e-03
-4.3382758e-04
-3.7679663e-03
-7.1940329e-03
-9.5042255e-03
-1.0296170e-02
-9.4791672e-03
-6.6901440e-03
3.0493006e-04
1.0428005e-02
2.0600367e-02
3.2272080e-02
4.5181949e-02
5.2563077e-02
5.0115725e-02
4.2969722e-02
3.9434908e-02
4.0858095e-02
4.3119234e-02
4.2101276e-02
3.4498784e-02
2.0388695e-02
2.6176063e-03
-1.6000397e-02
-3.1892617e-02
-4.0387402e-02
-3.9448967e-02
-3.1683260e-02
-1.9818121e-02
-5.1046074e-03
8.0004825e-03
1.3323770e-02
8.1271755e-03
-6.1418998e-03
-2.3443653e-02
-3.6092571e-02
-4.0479599e-02
-3.8722395e-02
-3.3774793e-02
-2.6662678e-02
-1.9348128e-02
-1.3566101e-02
-1.0466124e-02
-1.1079831e-02
-1.3935149e-02
-1.5968897e-02
-1.5357073e-02
-1.2962136e-02
-1.0157815e-02
-6.4423518e-03
-1.4862826e-03
3.8942241e-03
8.0714161e-03
9.1551568e-03
8.1712584e-03
8.2746129e-03
1.0186645e-02
1.1736015e-02
1.2001739e-02
1.2704128e-02
1.3479819e-02
1.1212842e-02
5.3024288e-03
-3.4643009e-03
-1.4851244e-02
-2.6071881e-02
-3.4327333e-02
-3.8027547e-02
-3.7235180e-02
-3.5380494e-02
-3.3461394e-02
-3.1543730e-02
-3.2128550e-02
-3.5028508e-02
-3.8103547e-02
-3.9438043e-02
-3.7212602e-02
-2.9594925e-02
-1.2928119e-02
1.0127578e-02
2.8755239e-02
3.7870805e-02
4.1455090e-02
4.6427798e-02
5.5405066e-02
6.5869635e-02
7.6083598e-02
8.4692223e-02
8.9701176e-02
8.9672093e-02
8.3994039e-02
7.3063858e-02
5.8764312e-02
4.5050712e-02
3.3948815e-02
2.3208654e-02
8.3492731e-03
-1.3801515e-02
-4.0365012e-02
-6.2739685e-02
-7.2846854e-02
-6.9813372e-02
-6.0805255e-02
-5.3441752e-02
-5.1267498e-02
-5.3540430e-02
-5.4313886e-02
-4.8330264e-02
-3.5690552e-02
-1.8850554e-02
-7.5333070e-04
1.6548955e-02
3.1898510e-02
4.3130942e-02
4.9488124e-02
4.9190297e-02
3.9410439e-02
2.3773750e-02
1.1386623e-02
7.7481011e-03
1.0811566e-02
1.6627722e-02
2.3040906e-02
2.7298073e-02
2.6773076e-02
2.1891853e-02
1.3760102e-02
1.8189099e-03
-1.6501765e-02
-3.6419900e-02
-4.7248508e-02
-4.9210934e-02
-4.7811484e-02
-4.4207218e-02
-3.8507522e-02
-3.3273779e-02
-3.0872023e-02
-2.9747186e-02
-2.6593901e-02
-1.8907671e-02
-6.6143215e-03
8.3518193e-03
2.2175846e-02
2.9554414e-02
2.7341785e-02
1.6977277e-02
4.9909447e-03
-6.0456022e-04
1.4381956e-03
6.7285633e-03
1.1707492e-02
1.3931370e-02
1.3211391e-02
1.0727003e-02
6.0812774e-03
-8.9786378e-04
-8.3177522e-03
-1.5108901e-02
-2.2126511e-02
-2.9154331e-02
-3.5017632e-02
-3.8251013e-02
-3.7110248e-02
-3.1965878e-02
-2.5628089e-02
-1.9065650e-02
-1.1521959e-02
-4.2579213e-03
9.2879946e-04
4.5748760e-03
7.5470632e-03
9.8876761e-03
1.1544106e-02
1.0884182e-02
7.6416896e-03
3.1287317e-03
-2.0518001e-03
-6.1742386e-03
-5.5038859e-03
-1.3817166e-04
4.1336213e-03
4.0884548e-03
1.0398775e-03
-1.4231155e-03
-1.2973387e-03
-9.4887349e-04
-1.9384137e-03
-1.9874627e-03
2.8630710e-05
1.8410062e-03
2.9500694e-03
4.1279674e-03
3.4152262e-03
-3.6956463e-05
-6.0914190e-03
-1.5293956e-02
-2.4489965e-02
-2.7941575e-02
-2.3867077e-02
-1.5510715e-02
-6.6942245e-03
-4.4566439e-04
2.2837670e-03
3.1157686e-03
3.8545547e-03
6.3373611e-03
1.1495299e-02
1.7151905e-02
2.1253714e-02
2.4405283e-02
2.5809661e-02
2.4112701e-02
2.1346299e-02
1.9784968e-02
2.0646881e-02
2.4176998e-02
2.8067260e-02
3.1923423e-02
3.7279402e-02
4.1995163e-02
4.3321584e-02
4.2775812e-02
4.2022057e-02
4.0376632e-02
3.8429182e-02
3.5306441e-02
2.5682061e-02
7.4170934e-03
-1.3931671e-02
-3.0715171e-02
-4.0029914e-02
-4.2189100e-02
-3.8112255e-02
-3.1824160e-02
-2.6630511e-02
-2.4000419e-02
-2.6516300e-02
-3.2706322e-02
-3.6185099e-02
-3.3139318e-02
-2.6201573e-02
-1.7919305e-02
-7.1680884e-03
3.5709259e-03
1.0172803e-02
1.3254789e-02
1.5520399e-02
1.7686142e-02
1.9475357e-02
2.0930427e-02
2.1167060e-02
1.8700162e-02
1.2284994e-02
1.4162142e-03
-1.1074304e-02
-2.0506054e-02
-2.5705380e-02
-2.7524093e-02
-2.6003180e-02
-2.2247431e-02
-1.8852625e-02
-1.6847806e-02
-1.5104416e-02
-1.2409937e-02
-8.4581608e-03
-5.2329377e-03
-4.0778105e-03
-2.3669098e-03
7.1323961e-04
1.8257784e-03
-4.7992527e-04
-3.2900433e-03
-3.7546433e-03
-2.4703460e-03
-6.8799482e-04
9.7765540e-04
1.1314109e-03
1.4303017e-03
6.5618551e-03
1.5064437e-02
2.1096732e-02
2.4287798e-02
2.5708987e-02
2.4791616e-02
2.2364328e-02
1.8731072e-02
1.3892749e-02
7.7400513e-03
5.9180691e-04
-6.0015845e-03
-1.1021179e-02
-1.4122788e-02
-1.6239943e-02
-1.7628923e-02
-1.6326686e-02
-1.3390296e-02
-1.2188871e-02
-1.4059709e-02
-1.7576306e-02
-1.8874885e-02
-1.6701891e-02
-1.3900559e-02
-1.4163425e-02
-1.8288251e-02
-2.1568883e-02
-1.7529395e-02
-3.6488327e-03
1.5829442e-02
3.3812313e-02
4.5289295e-02
4.8940989e-02
4.7786631e-02
4.4271248e-02
3.6569011e-02
2.5645992e-02
1.8146746e-02
1.7802441e-02
2.2690765e-02
3.0279114e-02
3.9502347e-02
4.9083730e-02
5.5517668e-02
5.5099942e-02
4.9094783e-02
4.1520464e-02
3.3266683e-02
2.2715719e-02
7.7486393e-03
-1.5074273e-02
-4.1155333e-02
-5.6722702e-02
-5.9403251e-02
-5.7370912e-02
-5.4506928e-02
-5.1187881e-02
-4.8932202e-02
-4.7697642e-02
-4.4263247e-02
-3.7879747e-02
-2.9366343e-02
-1.9745762e-02
-1.1637371e-02
-5.0345284e-03
1.2804371e-03
6.8476101e-03
9.3896910e-03
7.7729698e-03
5.0637550e-03
3.0958376e-03
1.1716622e-03
-2.4983593e-04
-8.7107083e-04
-2.8048260e-03
-6.9815508e-03
-1.0765523e-02
-1.2080858e-02
-1.1556245e-02
-1.0082052e-02
-8.5890255e-03
-7.5379308e-03
-5.6263416e-03
-2.5959005e-03
3.8365673e-04
3.9729477e-03
9.9827073e-03
1.6445620e-02
1.9912409e-02
2.1273455e-02
2.1370483e-02
1.9541191e-02
1.6394704e-02
1.0590717e-02
1.5314035e-03
-7.7022986e-03
-1.4188940e-02
-1.7757322e-02
-1.9792626e-02
-1.9929491e-02
-1.6168332e-02
-9.0963367e-03
-2.9632413e-03
1.5136649e-04
1.1450071e-03
-5.8983683e-05
-2.4535617e-03
-3.1776490e-03
-1.1466047e-03
2.4917326e-03
6.2719048e-03
9.2228804e-03
1.2033676e-02
1.4133135e-02
1.1943012e-02
4.8687655e-03
-4.5605542e-03
-1.5047937e-02
-2.4975518e-02
-3.1748360e-02
-3.4735781e-02
-3.3813132e-02
-2.8926145e-02
-2.1998805e-02
-1.4744626e-02
-7.7141121e-03
-1.6735924e-03
2.0227786e-03
2.8673827e-03
2.3307707e-03
3.2179543e-03
5.9638916e-03
8.6138817e-03
1.0646139e-02
1.2157888e-02
1.4042839e-02
1.7031740e-02
2.1148157e-02
2.6132540e-02
2.9410179e-02
2.9098602e-02
2.4674142e-02
1.6470626e-02
7.6356002e-03
3.2916134e-04
-4.8569978e-03
-6.8163574e-03
-6.5287748e-03
-5.2698015e-03
-3.5830947e-03
-2.6781194e-03
-2.6963238e-03
-3.5143549e-03
-4.2737582e-03
-2.5892802e-03
2.7375736e-03
9.6742196e-03
1.4579706e-02
1.5612362e-02
1.3031372e-02
7.8427964e-03
1.9065747e-03
-2.6856440e-03
-4.5134157e-03
-3.4872361e-03
-2.1900814e-03
-2.6362988e-03
-4.8620380e-03
-8.9907026e-03
-1.3977405e-02
-1.8219481e-02
-2.0867666e-02
-2.2536901e-02
-2.5190674e-02
-2.9698493e-02
-3.6388876e-02
-4.3933418e-02
-4.8855754e-02
-5.0290964e-02
-4.8945695e-02
-4.5306992e-02
-3.9394148e-02
-3.1368401e-02
-2.3394349e-02
-1.5977772e-02
-7.5760047e-03
1.7257509e-03
1.0242844e-02
1.6474199e-02
1.9725534e-02
1.8961024e-02
1.4366951e-02
7.8510660e-03
8.6576599e-04
-4.5835187e-03
-7.6830484e-03
-9.1199469e-03
-8.5502700e-03
-6.3957950e-03
-3.5646206e-03
7.5567524e-04
6.1539960e-03
1.1452989e-02
1.6537891e-02
2.0075235e-02
2.1505823e-02
2.2789091e-02
2.6718756e-02
3.2431607e-02
3.7189896e-02
4.1698566e-02
4.5438313e-02
4.5991512e-02
4.4028944e-02
4.1678510e-02
3.8427953e-02
3.2309057e-02
2.4565631e-02
1.8219565e-02
1.3633674e-02
1.0243038e-02
8.5761115e-03
8.2550563e-03
6.7252823e-03
1.4375465e-03
-7.1484521e-03
-1.6076458e-02
-2.1877740e-02
-2.2447624e-02
-1.8709542e-02
-1.3809806e-02
-9.6438896e-03
-6.7364764e-03
-4.9673449e-03
-2.9227622e-03
-4.8048310e-04
1.8945638e-03
4.1872055e-03
5.2456697e-03
3.5965811e-03
-1.2087831e-03
-6.5165050e-03
-9.3342333e-03
-1.0420452e-02
-1.0571604e-02
-1.0364201e-02
-1.1837185e-02
-1.5274704e-02
-1.8956443e-02
-2.0816767e-02
-1.9196509e-02
-1.4393798e-02
-8.4756335e-03
-3.3855970e-03
-2.3671628e-04
1.1630338e-03
2.3176429e-03
4.7959641e-03
9.4392391e-03
1.6306133e-02
2.3844553e-02
2.9735372e-02
3.3009928e-02
3.3052481e-02
2.9624457e-02
2.3592470e-02
1.5347572e-02
5.8557021e-03
-2.9746011e-03
-9.8267276e-03
-1.3332990e-02
-1.3725665e-02
-1.1690744e-02
-7.7547855e-03
-4.3889017e-03
-1.3533724e-03
2.5016973e-03
5.5225470e-03
7.3375471e-03
8.4535322e-03
9.6588102e-03
1.1712863e-02
1.3789694e-02
1.5665592e-02
1.7556053e-02
1.8969777e-02
2.0000686e-02
2.0407794e-02
1.8481190e-02
1.3800307e-02
7.4647131e-03
2.9903048e-04
-6.3052986e-03
-1.0926738e-02
-1.3540413e-02
-1.5164062e-02
-1.7518891e-02
-2.1096267e-02
-2.3939934e-02
-2.5140497e-02
-2.5160226e-02
-2.4072219e-02
-2.2020122e-02
-1.9789307e-02
-1.7963459e-02
-1.5302026e-02
-1.0210055e-02
-3.6365934e-03
2.4240420e-03
7.8661424e-03
1.2397523e-02
1.5497963e-02
1.7097712e-02
1.6035220e-02
1.1720323e-02
5.6641328e-03
7.9759186e-04
-1.6211110e-03
-2.1035717e-03
-4.2792271e-04
2.8522320e-03
6.7920050e-03
1.0304089e-02
1.0796922e-02
8.2783662e-03
5.4711434e-03
2.8321593e-03
-1.4168217e-04
-2.1151589e-03
-5.6908085e-04
4.4948264e-03
9.7831442e-03
1.3206174e-02
1.3788683e-02
1.1611592e-02
8.7377806e-03
5.7473585e-03
1.8733490e-03
-3.2959536e-03
-9.8031921e-03
-1.6168456e-02
-2.0496647e-02
-2.2031073e-02
-2.1216805e-02
-1.9469365e-02
-1.8869275e-02
-1.9759212e-02
-2.0644850e-02
-2.1296120e-02
-2.0152335e-02
-1.6531429e-02
-1.2784543e-02
-9.6439826e-03
-7.4495646e-03
-6.3651619e-03
-4.9120622e-03
-2.3131500e-03
9.0224811e-04
4.9680527e-03
1.0066467e-02
1.3699943e-02
1.4554739e-02
1.4546162e-02
1.4675174e-02
1.5491134e-02
1.6504824e-02
1.6206743e-02
1.5274567e-02
1.3664887e-02
9.6781189e-03
3.0748502e-03
-6.1686205e-03
-1.7392296e-02
-2.6226597e-02
-2.9051122e-02
-2.5493472e-02
-1.6391659e-02
-4.8504090e-03
6.0982864e-03
1.4318740e-02
1.9051997e-02
2.1873272e-02
2.3140403e-02
2.2162364e-02
1.9239235e-02
1.4526140e-02
8.2712661e-03
2.5116695e-03
-1.5623106e-03
-4.5844225e-03
-6.3364878e-03
-5.8503316e-03
-3.0818222e-03
-6.0570476e-05
1.5989102e-03
2.1919533e-03
2.7234529e-03
3.3462254e-03
4.4862846e-03
7.3361330e-03
9.1733665e-03
7.1543553e-03
4.6001155e-03
5.6469840e-03
9.0996791e-03
1.1189399e-02
1.0933260e-02
9.3584314e-03
5.6244628e-03
1.2496925e-04
-4.2354688e-03
-6.9401352e-03
-9.0335437e-03
-1.0826304e-02
-1.1905288e-02
-1.1718571e-02
-1.1132748e-02
-1.2237098e-02
-1.4101652e-02
-1.3766828e-02
-1.2027731e-02
-9.6878880e-03
-5.4287979e-03
7.6390924e-04
7.6211619e-03
1.4770190e-02
2.3579706e-02
3.2112080e-02
3.7204270e-02
3.9490742e-02
3.9994342e-02
3.8251520e-02
3.3550927e-02
2.7997806e-02
2.4375545e-02
2.2438366e-02
2.0803148e-02
1.7514153e-02
1.0149136e-02
-2.4960068e-03
-2.0844095e-02
-4.3416589e-02
-6.5646302e-02
-8.2327946e-02
-8.8709010e-02
-8.4293452e-02
-7.3561136e-02
-5.9806700e-02
-4.3373720e-02
-2.5266745e-02
-6.5477764e-03
1.1175414e-02
2.3048267e-02
2.6802346e-02
2.4703406e-02
1.9678800e-02
1.5128510e-02
1.3633275e-02
1.4976776e-02
1.7973185e-02
2.0953669e-02
2.1225298e-02
1.7691846e-02
1.2336213e-02
6.1118402e-03
-1.6525258e-03
-8.0273252e-03
-7.7135027e-03
1.3674270e-03
1.5737838e-02
2.9386458e-02
3.8667124e-02
4.3043734e-02
4.2070311e-02
3.6830878e-02
3.0842078e-02
2.5164951e-02
1.7098958e-02
2.1590562e-03
-1.9562045e-02
-3.9441198e-02
-4.8974682e-02
-4.7665269e-02
-3.9139585e-02
-2.6066498e-02
-1.2760212e-02
-4.0746871e-03
-1.0241619e-03
-1.8902128e-03
-4.1606097e-03
-6.4649561e-03
-8.2074351e-03
-8.6778782e-03
-7.9697832e-03
-5.5959563e-03
-1.3358676e-03
2.6124110e-03
4.1847420e-03
4.0077281e-03
2.1874047e-03
-3.4682851e-03
-9.8013683e-03
-9.9047475e-03
-3.9925866e-03
3.7085083e-03
9.6209052e-03
1.0862868e-02
8.3533310e-03
7.9872671e-03
1.5681995e-02
2.9499749e-02
4.2025987e-02
4.7957995e-02
4.5147031e-02
3.3289546e-02
1.5243035e-02
-3.1086043e-03
-1.6633846e-02
-2.2760178e-02
-2.3441863e-02
-2.5116924e-02
-3.1390946e-02
-4.0112108e-02
-4.6816377e-02
-4.7890379e-02
-4.3685351e-02
-3.7637812e-02
-3.2992375e-02
-3.0266860e-02
-2.7291471e-02
-2.3897327e-02
-2.1953331e-02
-2.0983310e-02
-2.0077029e-02
-1.9953060e-02
-2.0260564e-02
-1.8599239e-02
-1.3487315e-02
-5.0795437e-03
7.6624477e-03
2.4457564e-02
3.9908155e-02
4.9161567e-02
5.1996212e-02
5.0048471e-02
4.4937720e-02
3.8118730e-02
3.1419845e-02
2.5705277e-02
2.0688176e-02
1.6566440e-02
