-6.4001752e-03
-1.5370873e-02
-2.3710913e-02
-3.0016852e-02
-3.4452731e-02
-3.5595116e-02
-3.2267774e-02
-2.7163293e-02
-2.2434384e-02
-1.7378270e-02
-1.1432405e-02
-3.7134975e-03
4.8868009e-03
1.0505642e-02
1.3230628e-02
1.5273210e-02
1.6988639e-02
1.8093723e-02
1.7615983e-02
1.4882887e-02
9.4595296e-03
2.5946257e-03
-3.5509455e-03
-7.0573616e-03
-3.5749572e-03
5.6805678e-03
1.2047281e-02
1.3773511e-02
1.3890076e-02
1.2877224e-02
1.0639396e-02
7.3314864e-03
3.8322481e-03
1.4646409e-03
8.6819041e-04
1.7809113e-03
3.3100372e-03
5.1989424e-03
8.0529107e-03
1.1350021e-02
1.4188404e-02
1.6748450e-02
2.0104424e-02
2.2786410e-02
2.3378310e-02
2.3041154e-02
2.1890646e-02
1.9647782e-02
1.6907809e-02
1.5527552e-02
1.4470540e-02
1.0546694e-02
4.9829924e-03
-5.6007062e-04
-5.6369630e-03
-9.8221678e-03
-1.4837824e-02
-2.0469895e-02
-2.5204232e-02
-2.9753621e-02
-3.4476822e-02
-3.9011897e-02
-4.3684245e-02
-4.9719218e-02
-5.6410877e-02
-6.0824169e-02
-6.1997391e-02
-6.1046020e-02
-5.8735620e-02
-5.4445180e-02
-4.8154349e-02
-4.0119771e-02
-2.9469516e-02
-1.7030459e-02
-3.7831828e-03
1.0599772e-02
2.3662541e-02
3.1719111e-02
3.5016327e-02
3.5136619e-02
3.1942524e-02
2.7092990e-02
2.3370758e-02
2.0485519e-02
1.7209641e-02
1.3267997e-02
7.5377034e-03
-6.9299442e-06
-8.4883530e-03
-1.7334225e-02
-2.4896167e-02
-3.0852942e-02
-3.6330963e-02
-4.0142381e-02
-4.0647138e-02
-3.9082744e-02
-3.5971587e-02
-2.9705502e-02
-2.1732612e-02
-1.5161332e-02
-9.2369624e-03
-3.0558477e-03
1.9582574e-03
6.5461780e-03
1.3316414e-02
2.1340923e-02
2.7576513e-02
3.1161177e-02
3.3062739e-02
3.4744532e-02
3.5803170e-02
3.5584403e-02
3.5099267e-02
3.5032210e-02
3.5006700e-02
3.5419512e-02
3.7396727e-02
4.0717520e-02
4.4480668e-02
4.8795820e-02
5.4912262e-02
6.3289236e-02
7.1319302e-02
7.1245811e-02
4.9240942e-02
1.1176213e-02
-1.3459444e-02
-1.5623493e-02
-5.3963199e-03
1.0402043e-02
2.5945395e-02
3.6711237e-02
4.0548336e-02
3.7388567e-02
2.9833864e-02
2.0708248e-02
1.0389799e-02
-7.0508619e-04
-1.2110587e-02
-2.4244126e-02
-3.6931799e-02
-4.7928967e-02
-5.4899134e-02
-5.8902237e-02
-6.1780102e-02
-6.4124300e-02
-6.4367275e-02
-5.9294826e-02
-4.8772185e-02
-3.2897057e-02
-1.3100997e-02
4.5872127e-03
1.7635319e-02
2.8131664e-02
3.7263847e-02
4.3925553e-02
4.7360333e-02
4.7661446e-02
4.4251924e-02
3.7070176e-02
2.8141092e-02
1.9104989e-02
1.0316496e-02
4.6171255e-03
3.2924254e-03
2.7404850e-03
3.1215807e-04
-3.1716530e-03
-6.4256727e-03
-9.1318221e-03
-1.1218499e-02
-1.2184001e-02
-1.1577805e-02
-1.0951048e-02
-1.4326300e-02
-2.0598102e-02
-2.3949492e-02
-2.3024430e-02
-1.8752849e-02
-1.1865002e-02
-3.9989967e-03
2.5294608e-03
5.8818912e-03
5.9404885e-03
3.9137868e-03
1.0835768e-03
-2.3732563e-03
-5.9057110e-03
-9.0860056e-03
-1.1233977e-02
-1.1767904e-02
-1.1764995e-02
-1.1064418e-02
-8.8144745e-03
-5.9269309e-03
-3.6510510e-03
-9.9137946e-04
1.4901051e-03
4.8573101e-04
-3.7587363e-03
-7.5998103e-03
-8.0788105e-03
-4.5916124e-03
4.5273535e-04
4.5356267e-03
7.6085790e-03
9.0781455e-03
8.9804890e-03
8.6313037e-03
6.5438957e-03
1.8706559e-03
-2.4404546e-03
-4.2543746e-03
-4.2933544e-03
-3.6253065e-03
-3.8226530e-03
-6.3976885e-03
-9.8589174e-03
-1.1551041e-02
-1.1273495e-02
-1.0966750e-02
-1.0753082e-02
-8.5754703e-03
-4.1303149e-03
1.7911119e-03
8.2069201e-03
1.3608859e-02
1.7696909e-02
2.1393052e-02
2.5092875e-02
2.6382150e-02
2.3567731e-02
1.8754979e-02
1.3918355e-02
8.9529945e-03
3.0732728e-03
-2.3020601e-03
-5.9866704e-03
-9.7865734e-03
-1.5620447e-02
-2.3049154e-02
-3.0181984e-02
-3.5165183e-02
-3.6473394e-02
-3.5038254e-02
-3.2855005e-02
-3.1683699e-02
-3.0299836e-02
-2.3274213e-02
-6.8437719e-03
1.4992050e-02
3.1207601e-02
3.7995932e-02
4.0508204e-02
4.0994879e-02
3.7967644e-02
3.1627128e-02
2.4542955e-02
1.8326494e-02
1.2729053e-02
6.3743535e-03
-4.4172736e-04
-6.2441758e-03
-1.1090391e-02
-1.4637983e-02
-1.6282439e-02
-1.6499866e-02
-1.5892111e-02
-1.5466707e-02
-1.5324967e-02
-1.3999355e-02
-1.1439412e-02
-9.3818239e-03
-7.8490103e-03
-5.0554778e-03
-2.4606766e-04
6.0288698e-03
1.2821600e-02
1.9839047e-02
2.5443843e-02
2.7670522e-02
2.8811171e-02
3.0366493e-02
2.9430439e-02
2.5180988e-02
1.9669000e-02
1.3911933e-02
7.4440546e-03
2.9969894e-04
-5.6050337e-03
-8.8962360e-03
-9.6555575e-03
-9.9564026e-03
-1.1873596e-02
-1.3753818e-02
-1.4811942e-02
-1.5922083e-02
-1.6050745e-02
-1.5801479e-02
-1.6375569e-02
-1.5981373e-02
-1.3756219e-02
-1.1166612e-02
-8.4449593e-03
-4.5574361e-03
1.3894873e-04
3.6213951e-03
5.8007925e-03
8.6325124e-03
1.2503539e-02
1.6372610e-02
1.7932353e-02
1.5440215e-02
1.0816207e-02
6.1105207e-03
1.2483438e-03
-3.5264060e-03
-7.7052095e-03
-1.0493543e-02
-1.1706955e-02
-1.2386179e-02
-1.2435864e-02
-1.2291009e-02
-1.2893190e-02
-1.2647810e-02
-1.0933096e-02
-9.0974710e-03
-7.6395378e-03
-6.6732061e-03
-5.8427164e-03
-4.7245223e-03
-3.2510448e-03
-1.8017322e-03
-4.2693854e-04
1.2627352e-03
2.2706621e-03
3.0801723e-03
5.1334859e-03
7.2455228e-03
8.5077613e-03
9.0489423e-03
7.5090571e-03
2.8928090e-03
-3.4480636e-03
-1.0590092e-02
-1.8633477e-02
-2.5303492e-02
-2.7161236e-02
-2.3157062e-02
-1.2463839e-02
1.6076471e-03
1.1062816e-02
1.4525814e-02
1.5833449e-02
1.6912674e-02
1.7572078e-02
1.6542035e-02
1.3432855e-02
1.0724982e-02
1.0814218e-02
1.3127141e-02
1.5730565e-02
1.7138213e-02
1.7196830e-02
1.6047021e-02
1.4161856e-02
1.4131265e-02
1.7490203e-02
2.0903466e-02
2.1376991e-02
2.0814105e-02
2.1874937e-02
2.4489330e-02
2.7731302e-02
3.0373369e-02
2.9933078e-02
2.5864663e-02
2.0722970e-02
1.5282898e-02
8.8990420e-03
2.5923527e-03
-3.4377982e-03
-9.6953627e-03
-1.5702936e-02
-2.1829971e-02
-2.8859247e-02
-3.5903996e-02
-4.2747389e-02
-5.0470881e-02
-5.9268207e-02
-6.8890431e-02
-7.7999733e-02
-8.5379330e-02
-9.1550850e-02
-9.7070719e-02
-1.0074320e-01
-9.9307172e-02
-8.9796336e-02
-6.8353880e-02
-2.9372740e-02
1.7957680e-02
5.2908704e-02
7.0865823e-02
7.7875116e-02
7.8649222e-02
7.6794811e-02
7.1937555e-02
6.3849145e-02
5.4479812e-02
4.5459601e-02
3.7792819e-02
3.2117763e-02
2.8641201e-02
2.7552660e-02
2.7459204e-02
2.5871317e-02
2.2572501e-02
1.9226998e-02
1.7517655e-02
1.6574004e-02
1.4653989e-02
1.2697382e-02
1.0915515e-02
6.7846472e-03
-2.7094449e-03
-1.5306644e-02
-2.3767183e-02
-2.4858013e-02
-1.9931747e-02
-1.1546581e-02
-1.8573621e-03
8.0849168e-03
1.7140349e-02
2.3556499e-02
2.6396311e-02
2.7234859e-02
2.7442248e-02
2.5404620e-02
2.0514409e-02
1.4375698e-02
7.0780102e-03
-1.1107901e-03
-9.8541228e-03
-1.9804841e-02
-2.9560018e-02
-3.7474143e-02
-4.2519266e-02
-4.2145353e-02
-3.3265138e-02
-8.9786143e-03
2.3997946e-02
4.0933562e-02
3.4555579e-02
1.5282609e-02
-7.7606393e-03
-2.7128227e-02
-3.9047932e-02
-4.3687198e-02
-4.1973575e-02
-3.6044782e-02
-2.9115756e-02
-2.4452144e-02
-2.3987730e-02
-2.6785993e-02
-3.0340262e-02
-3.3113879e-02
-3.5388690e-02
-3.7934428e-02
-4.0184953e-02
-4.0728796e-02
-3.9833679e-02
-3.7775094e-02
-3.3996499e-02
-2.7445543e-02
-1.5134820e-02
1.9384361e-03
1.6969371e-02
2.6648371e-02
3.2100279e-02
3.5399629e-02
3.7981841e-02
3.9447476e-02
3.9707253e-02
4.0025415e-02
4.2959031e-02
4.9129745e-02
5.5481186e-02
6.0188560e-02
6.3976212e-02
6.6576436e-02
6.7797703e-02
6.9243030e-02
7.2628224e-02
7.9127941e-02
8.7756730e-02
9.5504660e-02
9.9449382e-02
9.5872312e-02
7.9455797e-02
4.3296464e-02
-4.3390559e-03
-3.9544557e-02
-5.5608321e-02
-6.0155518e-02
-5.7154172e-02
-5.0402006e-02
-4.3486615e-02
-3.6602883e-02
-2.8560209e-02
-2.0286488e-02
-1.3536496e-02
-8.3353993e-03
-4.2749755e-03
-1.3519686e-03
1.8376779e-03
5.7051504e-03
8.0251876e-03
8.5075409e-03
8.2843735e-03
7.4888302e-03
7.0991536e-03
7.3124027e-03
7.2156177e-03
4.6518778e-03
-5.3301770e-03
-2.1727143e-02
-3.4995453e-02
-4.0797028e-02
-4.0534567e-02
-3.6147635e-02
-3.0068533e-02
-2.2915527e-02
-1.6091928e-02
-1.0208936e-02
-4.6497238e-03
-6.1098451e-04
1.6227184e-03
3.5549455e-03
6.8046659e-03
1.1905082e-02
1.6091720e-02
1.6831775e-02
1.4646495e-02
1.0600846e-02
7.3435363e-03
6.3990895e-03
6.8246415e-03
7.5793321e-03
5.2936239e-03
-2.3766285e-03
-1.2423615e-02
-2.0762664e-02
-2.6123302e-02
-2.9272873e-02
-2.9931850e-02
-2.7928725e-02
-2.6850788e-02
-2.8347488e-02
-2.8566838e-02
-2.4849011e-02
-1.9013940e-02
-1.2981658e-02
-6.9379954e-03
-1.8899404e-03
9.2117768e-04
1.4039940e-03
1.0895120e-03
8.8244094e-04
-2.9487844e-04
-2.6496036e-03
-5.2232024e-03
-7.3498673e-03
-8.3549463e-03
-9.3011541e-03
-1.2375738e-02
-1.6192633e-02
-1.7918220e-02
-1.7649269e-02
-1.5717148e-02
-1.1608744e-02
-6.9386440e-03
-2.6556513e-03
2.1175083e-03
6.8558664e-03
1.1349987e-02
1.6114429e-02
2.0808280e-02
2.4345768e-02
2.5233245e-02
2.2358811e-02
1.5352463e-02
6.4882626e-03
-1.0888194e-03
-7.2153121e-03
-1.3057300e-02
-1.8831440e-02
-2.4205963e-02
-2.7999824e-02
-2.9620751e-02
-3.0885194e-02
-3.2581352e-02
-3.2979492e-02
-3.0606073e-02
-2.6675291e-02
-2.2095743e-02
-1.5221519e-02
-5.2810276e-03
6.7950999e-03
1.9763211e-02
3.2133833e-02
4.1458011e-02
4.7281369e-02
5.1423731e-02
5.3189674e-02
5.1078788e-02
4.7476497e-02
4.5288329e-02
4.4098354e-02
4.2770941e-02
4.1760402e-02
4.1833933e-02
4.1245209e-02
3.6400475e-02
2.4309036e-02
1.2543081e-03
-2.9045216e-02
-5.2090418e-02
-6.2981639e-02
-6.6767996e-02
-6.4468160e-02
-5.7422814e-02
-4.8741999e-02
-3.9274224e-02
-2.9157766e-02
-1.8249446e-02
-5.4899147e-03
8.8708604e-03
2.2594525e-02
3.1437773e-02
3.1869212e-02
2.6077818e-02
1.9436530e-02
1.3476039e-02
4.0591751e-03
-1.1429989e-02
-2.9451653e-02
-4.6126904e-02
-5.9212802e-02
-6.4595067e-02
-5.8872843e-02
-4.4628345e-02
-2.6788058e-02
-9.7305613e-03
2.6760043e-03
1.0910116e-02
1.7912071e-02
2.5910473e-02
3.4374340e-02
3.9313637e-02
3.8596017e-02
3.3886185e-02
2.7436225e-02
2.0887455e-02
1.4181702e-02
4.8157192e-03
-7.5930552e-03
-1.9157646e-02
-2.6661439e-02
-2.9901648e-02
-3.0202016e-02
-2.8114996e-02
-2.3712735e-02
-1.9706462e-02
-1.8815721e-02
-2.0768192e-02
-2.3030336e-02
-2.3177272e-02
-2.0193267e-02
-1.3907202e-02
-5.2664628e-03
4.3734583e-03
1.3291834e-02
2.1716016e-02
3.0211632e-02
3.7653839e-02
4.3181551e-02
4.6006587e-02
4.6421326e-02
4.4510913e-02
3.9534365e-02
3.2424296e-02
2.5131363e-02
1.7863870e-02
1.0874257e-02
6.3501248e-03
4.5655803e-03
3.2201007e-03
-5.8645551e-04
-9.5649780e-03
-2.4605647e-02
-4.1018531e-02
-5.1066232e-02
-5.3418175e-02
-5.1198406e-02
-4.5715583e-02
-3.6913266e-02
-2.6356858e-02
-1.6120782e-02
-6.4160773e-03
3.6128657e-03
1.4643890e-02
2.4781680e-02
3.1775377e-02
3.5308832e-02
3.6038675e-02
3.4815748e-02
3.2155702e-02
3.0286212e-02
3.0682792e-02
3.1733086e-02
3.3221043e-02
3.5243911e-02
3.4326516e-02
2.5346192e-02
3.7513045e-03
-2.5016022e-02
-4.5839102e-02
-5.4208271e-02
-5.4730268e-02
-5.0451165e-02
-4.4241624e-02
-3.7018958e-02
-2.9154695e-02
-2.1573514e-02
-1.3847326e-02
-6.7139068e-03
-2.0454331e-03
-4.3035681e-04
-1.8668963e-03
-5.2638483e-03
-9.2239617e-03
-1.2415512e-02
-1.3179248e-02
-1.1364566e-02
-6.9486759e-03
1.5937658e-04
7.5128196e-03
1.1398605e-02
9.8674751e-03
1.4179764e-03
-1.1218513e-02
-1.9532409e-02
-2.0322565e-02
-1.5585731e-02
-6.4161627e-03
5.2760093e-03
1.6391322e-02
2.5693877e-02
3.3458801e-02
3.9339524e-02
4.3437459e-02
4.6539793e-02
4.8939715e-02
5.0407959e-02
5.1954345e-02
5.4082875e-02
5.6742293e-02
6.0936799e-02
6.7176458e-02
7.4848038e-02
8.1096932e-02
8.3360571e-02
7.9575474e-02
6.3715751e-02
2.6662045e-02
-2.2651683e-02
-5.8357176e-02
-7.3455338e-02
-7.5669467e-02
-7.0422967e-02
-6.0615973e-02
-4.7576363e-02
-3.4746451e-02
-2.3485843e-02
-1.2693168e-02
-4.0076043e-03
4.1427554e-04
9.2720042e-04
-2.1652165e-03
-8.3794238e-03
-1.6478142e-02
-2.5360696e-02
-3.3883953e-02
-4.0958442e-02
-4.5940154e-02
-4.8788544e-02
-4.8814989e-02
-4.5495428e-02
-3.8559265e-02
-2.6848137e-02
-1.2459215e-02
-4.2315467e-04
7.6760866e-03
1.2238801e-02
1.4364168e-02
1.7098149e-02
2.0662797e-02
2.2313261e-02
2.2338327e-02
2.3192538e-02
2.5312599e-02
2.7485172e-02
2.8792717e-02
2.8456548e-02
2.5016579e-02
1.8314283e-02
1.1494050e-02
7.6438233e-03
6.9266195e-03
9.0387680e-03
1.3144148e-02
1.6907632e-02
1.7250075e-02
1.1634540e-02
-2.6909473e-03
-2.2275884e-02
-3.6294898e-02
-4.2544651e-02
-4.4384031e-02
-4.1669854e-02
-3.5991052e-02
-3.0507255e-02
-2.5253732e-02
-1.7659590e-02
-8.5572288e-03
-1.0384316e-03
4.3925639e-03
8.4052752e-03
1.0604214e-02
8.8974584e-03
2.6713670e-03
-5.9871201e-03
-1.4004558e-02
-2.0271723e-02
-2.6795912e-02
-3.3333046e-02
-3.7608732e-02
-3.8171330e-02
-3.3979079e-02
-2.3089697e-02
-7.4723176e-03
4.6106275e-03
1.0704873e-02
1.4042014e-02
1.5997235e-02
1.8373573e-02
2.1557273e-02
2.3384526e-02
2.4538211e-02
2.7219169e-02
3.0755516e-02
3.4056269e-02
3.6440426e-02
3.5558590e-02
3.0878562e-02
2.3645163e-02
1.4663341e-02
6.8781592e-03
2.1875146e-03
-1.2411880e-03
-5.0900767e-03
-8.4268070e-03
-1.1546035e-02
-1.6434075e-02
-2.3063387e-02
-2.9235292e-02
-3.1338479e-02
-2.8768891e-02
-2.4264427e-02
-1.9047654e-02
-1.3483853e-02
-7.8485462e-03
-7.3127232e-04
8.8984291e-03
2.0273976e-02
3.1918703e-02
4.1503941e-02
4.5782478e-02
4.2592038e-02
3.3514444e-02
2.1064888e-02
5.8915374e-03
-8.8873586e-03
-2.0164435e-02
-2.9576012e-02
-3.7704075e-02
-4.2782950e-02
-4.3921694e-02
-4.0920884e-02
-3.2643804e-02
-2.1078734e-02
-1.2192478e-02
-6.2159396e-03
-4.9007941e-04
4.8069244e-03
9.8560241e-03
1.3944186e-02
1.6857267e-02
2.1196781e-02
2.7886967e-02
3.4389227e-02
3.8108820e-02
3.8741855e-02
3.6678942e-02
3.1767561e-02
2.5211388e-02
1.9547403e-02
1.5665469e-02
1.3474053e-02
1.3745547e-02
1.5763957e-02
1.6980027e-02
1.5024176e-02
7.9339485e-03
-6.4404941e-03
-2.4777136e-02
-3.7752855e-02
-4.1332373e-02
-3.8331559e-02
-3.2005172e-02
-2.3464516e-02
-1.4558411e-02
-7.2662925e-03
-4.4897406e-04
5.9112576e-03
1.0331623e-02
1.2446025e-02
1.1494892e-02
7.7391580e-03
1.8129208e-03
-6.3899212e-03
-1.5056337e-02
-2.3591722e-02
-3.1280029e-02
-3.5008947e-02
-3.3250315e-02
-2.7108514e-02
-1.9380642e-02
-1.0993863e-02
-9.7882145e-04
9.0023539e-03
1.5878485e-02
1.9569489e-02
2.1405558e-02
2.3541821e-02
2.8015663e-02
3.4004210e-02
3.8707438e-02
3.8463338e-02
3.3247401e-02
2.8001264e-02
2.4862320e-02
2.0323744e-02
1.3304702e-02
6.2326397e-03
-6.2419717e-04
-8.0572232e-03
-1.7927709e-02
-3.0794557e-02
-4.3836141e-02
-5.4176029e-02
-5.9696924e-02
-6.0694597e-02
-5.7924434e-02
-5.0738519e-02
-4.1275615e-02
-3.4090799e-02
-2.9900488e-02
-2.5774203e-02
-1.9667910e-02
-1.0419273e-02
2.1182412e-03
1.6838799e-02
3.0746079e-02
3.9157791e-02
4.0477998e-02
3.6879581e-02
2.9665070e-02
1.8734490e-02
6.3060553e-03
-4.3478028e-03
-1.2320057e-02
-1.8189891e-02
-2.3174356e-02
-2.7791688e-02
-3.2224298e-02
-3.6929348e-02
-3.9325902e-02
-3.5317171e-02
-2.3605907e-02
-7.6694898e-03
6.1256992e-03
1.4474418e-02
1.8715337e-02
2.2078675e-02
2.5883379e-02
2.9264168e-02
3.0607003e-02
2.8288609e-02
2.2864533e-02
1.6390293e-02
1.0079306e-02
3.8099913e-03
-2.9215890e-03
-9.2702051e-03
-1.4269319e-02
-1.9726133e-02
-2.6167074e-02
-3.1113052e-02
-3.3032181e-02
-3.1378120e-02
-2.5384923e-02
-1.4053854e-02
1.1802192e-03
1.5546797e-02
2.6472991e-02
3.5888588e-02
4.4201518e-02
4.8728590e-02
4.9433123e-02
4.8352174e-02
4.3340744e-02
3.1922219e-02
1.6998647e-02
3.0852756e-03
-6.7074062e-03
-1.2396593e-02
-1.7932600e-02
-2.5767131e-02
-3.4722746e-02
-4.3481393e-02
-4.8462728e-02
-4.5858667e-02
-3.6775466e-02
-2.3159475e-02
-5.1194797e-03
1.5159450e-02
3.4187604e-02
4.9016258e-02
5.5553522e-02
5.3322530e-02
4.6477001e-02
3.7693416e-02
2.7210551e-02
1.6067795e-02
6.5858355e-03
1.3671662e-04
-2.8348136e-03
-3.4322519e-03
-2.3607534e-03
-1.5743528e-04
1.3010073e-03
1.7740764e-03
1.7859617e-03
1.9905418e-03
2.4726215e-03
3.3426578e-03
5.4957669e-03
8.5596148e-03
1.2623204e-02
1.7780714e-02
2.1802270e-02
2.2547532e-02
1.8321204e-02
6.2582220e-03
-1.1185005e-02
-2.6268471e-02
-3.5423886e-02
-3.8929304e-02
-3.8504469e-02
-3.7330798e-02
-3.7790366e-02
-3.9285427e-02
-3.9350006e-02
-3.7211715e-02
-3.3923776e-02
-2.8401022e-02
-2.0071194e-02
-1.1920138e-02
-3.9848862e-03
4.6311371e-03
1.2160199e-02
1.9092816e-02
2.6722224e-02
3.3905305e-02
3.8211566e-02
3.8335525e-02
3.5096315e-02
2.9224318e-02
2.0856510e-02
1.2705932e-02
7.9804429e-03
5.2102238e-03
2.9524554e-03
9.7219146e-04
-1.6827510e-03
-5.0084185e-03
-8.8749127e-03
-1.1586971e-02
-1.2159762e-02
-1.1145485e-02
-9.2949473e-03
-8.1321972e-03
-5.9768891e-03
-8.3277051e-04
5.6238983e-03
1.1889926e-02
1.7294299e-02
1.9670953e-02
1.7855703e-02
1.3155698e-02
5.5862112e-03
-4.1902561e-03
-1.3845849e-02
-2.0419069e-02
-2.0931199e-02
-1.7316454e-02
-1.3751245e-02
-1.1147963e-02
-1.0166861e-02
-1.1598026e-02
-1.3606186e-02
-1.4673789e-02
-1.5542474e-02
-1.6970471e-02
-1.7583733e-02
-1.5696716e-02
-1.2938648e-02
-1.0210551e-02
-5.9146879e-03
9.9238126e-04
9.1781570e-03
1.6600539e-02
2.3859541e-02
2.9345854e-02
3.1093444e-02
2.9999807e-02
2.5986546e-02
1.9006298e-02
9.2257494e-03
-1.5115758e-03
-1.0419486e-02
-1.6512862e-02
-1.9162421e-02
-1.9163453e-02
-1.8327828e-02
-1.8123541e-02
-1.8005483e-02
-1.6103847e-02
-1.2496486e-02
-8.5014665e-03
-5.0753003e-03
-2.6552711e-03
-1.7322330e-03
-2.9531733e-04
3.6435793e-03
8.6592266e-03
1.4145353e-02
1.9719449e-02
2.4172122e-02
2.7380723e-02
2.9301974e-02
2.9298183e-02
2.6458911e-02
1.9464639e-02
9.3863627e-03
-2.2155889e-04
-7.4200841e-03
-1.1167024e-02
-1.1649770e-02
-1.1201241e-02
-1.1808786e-02
-1.4066719e-02
-1.7851065e-02
-2.1681061e-02
-2.3077743e-02
-2.0724618e-02
-1.5315649e-02
-8.9827596e-03
-2.8914716e-03
3.4622750e-03
9.5308589e-03
1.3496745e-02
1.6430110e-02
1.9423966e-02
2.1052628e-02
2.1222685e-02
1.8929390e-02
1.3127299e-02
5.6803243e-03
-1.0170493e-03
-5.7304292e-03
-7.5722636e-03
-6.1222429e-03
-4.2140117e-03
-4.4574469e-03
-5.9898616e-03
-7.6456705e-03
-8.5933476e-03
-9.1289835e-03
-1.0544507e-02
-1.1532744e-02
-1.0273478e-02
-8.5093861e-03
-7.1865942e-03
-3.5010346e-03
4.4279840e-03
1.5584615e-02
2.6123937e-02
3.2315046e-02
3.5120996e-02
3.6565063e-02
3.5784250e-02
3.0563825e-02
2.0061719e-02
7.0789467e-03
-3.8684078e-03
-1.0930794e-02
-1.5106044e-02
-1.8289341e-02
-2.0974814e-02
-2.2873631e-02
-2.4832259e-02
-2.6951359e-02
-2.8339208e-02
-2.8658955e-02
-2.7515313e-02
-2.4244301e-02
-2.0552866e-02
-1.7669653e-02
-1.4407899e-02
-9.9025525e-03
-4.5285440e-03
5.8549572e-04
4.8653983e-03
8.7376888e-03
1.2937507e-02
1.7251220e-02
2.1954889e-02
2.8221224e-02
3.4621085e-02
3.7038767e-02
3.5336796e-02
3.3149645e-02
3.0777886e-02
2.6552950e-02
2.1113899e-02
1.4814048e-02
6.2515003e-03
-5.6265307e-03
-1.9736485e-02
-3.3352058e-02
-4.3908476e-02
-5.0578494e-02
-5.4632606e-02
-5.6746265e-02
-5.6163447e-02
-5.3123765e-02
-4.9141602e-02
-4.3780909e-02
-3.3944250e-02
-1.8153315e-02
1.2487281e-03
1.9777052e-02
3.4904363e-02
4.3341719e-02
4.0158093e-02
3.0426237e-02
2.3809896e-02
2.3020349e-02
2.4588900e-02
2.4253490e-02
2.1467540e-02
1.5238624e-02
4.9740621e-03
-4.8939279e-03
-1.1558754e-02
-1.7164151e-02
-2.2318332e-02
-2.5264225e-02
-2.4988158e-02
-2.2636549e-02
-1.9710223e-02
-1.5891827e-02
-9.6879635e-03
-5.2738614e-04
8.6325239e-03
1.2614577e-02
1.1463344e-02
1.3473323e-02
2.0532601e-02
2.4273433e-02
2.1518770e-02
1.5936928e-02
1.1207639e-02
8.3003362e-03
6.5290493e-03
5.3388848e-03
4.6270189e-03
4.7295105e-03
6.2160698e-03
9.1045716e-03
1.1940544e-02
1.5523668e-02
2.2538558e-02
3.3745039e-02
4.8549179e-02
6.4547858e-02
7.8631415e-02
8.8055812e-02
9.0191232e-02
8.3622810e-02
6.7611553e-02
4.1996613e-02
5.5746968e-03
-3.3897764e-02
-5.9992512e-02
-6.9966646e-02
-7.1120398e-02
-6.9585507e-02
-6.9479675e-02
-6.8612027e-02
-6.3886853e-02
-5.6488552e-02
-4.7529239e-02
-3.5948287e-02
-2.2338180e-02
-9.9144070e-03
-1.0119095e-03
3.6963306e-03
5.4200666e-03
5.6175211e-03
5.8289226e-03
8.1772608e-03
1.1730992e-02
1.3305566e-02
1.0322895e-02
1.8178960e-03
-7.9918530e-03
-1.1306017e-02
-5.8463874e-03
1.5553123e-03
1.9059182e-03
-7.2452077e-03
-2.1516042e-02
-3.3106523e-02
-3.4586468e-02
-2.4652778e-02
-1.1241918e-02
-4.9233214e-03
-6.2808072e-03
-7.6244271e-03
-3.5450943e-03
5.8349981e-03
1.5217336e-02
1.8922889e-02
1.5762692e-02
8.9374664e-03
2.7443845e-03
-1.1096812e-03
-3.4492985e-03
-4.5404821e-03
-1.3513042e-03
8.1731566e-03
2.0208310e-02
2.7462295e-02
2.4027069e-02
1.1198943e-02
-3.9904061e-03
-1.4770269e-02
-1.9223007e-02
-2.1165513e-02
-2.2348981e-02
-2.2212794e-02
-2.1136940e-02
-1.8529807e-02
-1.5325638e-02
-1.3120280e-02
-1.0661346e-02
-6.3389510e-03
-1.5151404e-03
1.3163538e-03
1.9180612e-03
4.9358923e-04
-3.0434413e-03
-8.1172940e-03
-1.3050680e-02
-1.4986391e-02
-1.4660353e-02
-1.4553613e-02
-1.3735960e-02
-1.1873745e-02
-1.1460147e-02
-1.2679139e-02
-1.1966894e-02
-7.4624832e-03
-7.4780783e-04
5.9597843e-03
1.2399778e-02
1.9502955e-02
2.5578739e-02
2.9416868e-02
3.3077339e-02
3.6623397e-02
3.8802740e-02
4.0494389e-02
4.1575504e-02
4.0383603e-02
3.7538432e-02
3.4981586e-02
3.2959145e-02
3.1171613e-02
2.7993574e-02
2.0379313e-02
6.1762682e-03
-1.1049613e-02
-2.3388803e-02
-2.8784252e-02
-2.8994790e-02
-2.5695293e-02
-2.1146968e-02
-1.7376021e-02
-1.5113419e-02
-1.2499364e-02
-8.9864091e-03
-5.4532713e-03
-2.0572272e-03
3.4385736e-04
1.5510873e-03
2.2390849e-03
2.3975769e-03
1.2059906e-03
-1.9853108e-03
-5.4870511e-03
-6.4950984e-03
-5.4922136e-03
-5.5312160e-03
-7.0920710e-03
-7.8650060e-03
-7.3621184e-03
-6.1907402e-03
-2.9666471e-03
2.5394498e-03
8.7567498e-03
1.3773944e-02
1.6544003e-02
1.8795409e-02
2.1849493e-02
2.2949101e-02
1.8664724e-02
1.0436741e-02
8.5645900e-04
-8.4301169e-03
-1.5129380e-02
-1.9215515e-02
-2.1900853e-02
-2.3823356e-02
-2.5828564e-02
-2.8013010e-02
-2.9610916e-02
-3.0390102e-02
-2.8571491e-02
-2.2502924e-02
-1.2983383e-02
1.1392418e-03
1.7961323e-02
3.0381557e-02
3.5800656e-02
3.6405237e-02
3.4916320e-02
3.2485402e-02
2.7622462e-02
1.9639189e-02
9.8442353e-03
-2.0431932e-04
-7.7520690e-03
-1.1695320e-02
-1.3300908e-02
-1.2685701e-02
-1.0705040e-02
-8.5603402e-03
-5.2057511e-03
5.2209191e-04
7.5394570e-03
1.4017808e-02
1.9486390e-02
2.3772037e-02
2.5753580e-02
2.4081940e-02
1.6112023e-02
3.6789637e-03
-4.9189082e-03
-7.1123772e-03
-6.5046369e-03
-3.9850374e-03
8.1396571e-04
5.5366952e-03
6.4825557e-03
2.2845925e-03
-3.2034660e-03
-5.9729515e-03
-6.7515252e-03
-7.1177037e-03
-7.3049533e-03
-7.3882488e-03
-8.4118292e-03
-1.1437014e-02
-1.5804214e-02
-1.9213453e-02
-1.9034164e-02
-1.5977010e-02
-1.3101187e-02
-1.0134778e-02
-5.3385541e-03
7.3949711e-04
6.7538898e-03
1.1540948e-02
1.5006548e-02
1.8342896e-02
2.1768618e-02
2.3808355e-02
2.2803110e-02
1.8412655e-02
1.2962189e-02
9.0646844e-03
5.1217188e-03
-9.0935933e-04
-6.8016191e-03
-1.1221064e-02
-1.6093538e-02
-2.1627208e-02
-2.4590736e-02
-2.3107294e-02
-2.0010600e-02
-1.8132855e-02
-1.7499422e-02
-1.7476317e-02
-1.6510667e-02
-1.2656185e-02
-5.7696694e-03
2.9962817e-03
1.1704784e-02
1.8858651e-02
2.4968937e-02
3.0126170e-02
3.3562789e-02
3.3576061e-02
2.9132279e-02
2.0846115e-02
9.7436558e-03
-9.8181718e-04
-9.0274284e-03
-1.5421236e-02
-2.1452699e-02
-2.7231817e-02
-3.2751714e-02
-3.7259288e-02
-3.9940349e-02
-4.2044643e-02
-4.4569804e-02
-4.5726721e-02
-4.2923160e-02
-3.6337670e-02
-2.7608057e-02
-1.4771470e-02
1.6344335e-03
1.4905788e-02
2.2907166e-02
2.7529555e-02
2.9836803e-02
3.1591301e-02
3.2808622e-02
3.1838469e-02
2.9139812e-02
2.6128024e-02
2.0959149e-02
1.2960725e-02
5.9889143e-03
1.7949954e-03
-3.7881028e-04
-5.3253847e-04
2.0464461e-04
8.6584374e-04
2.1334041e-03
4.9594109e-03
1.0183695e-02
1.6548248e-02
2.2127795e-02
2.6953472e-02
3.0975004e-02
3.3823937e-02
3.6215192e-02
3.6695482e-02
3.2078169e-02
2.3796522e-02
1.7357982e-02
1.6855027e-02
2.0646645e-02
2.1022666e-02
1.1086607e-02
-8.4252549e-03
-3.0734004e-02
-4.8366987e-02
-5.7286020e-02
-5.7855545e-02
-5.1700070e-02
-4.2326772e-02
-3.4847185e-02
-3.1120185e-02
-3.0457430e-02
-3.1031110e-02
-2.9960460e-02
-2.5544223e-02
-1.8008449e-02
-9.2287050e-03
-1.3028400e-03
4.6976079e-03
9.2329092e-03
1.2646195e-02
1.5036926e-02
1.8230375e-02
2.2925972e-02
2.8348493e-02
3.2328160e-02
3.2144892e-02
2.7353484e-02
1.8942570e-02
9.6474683e-03
1.3981620e-03
-5.4861067e-03
-1.0009536e-02
-1.2216687e-02
-1.3463450e-02
-1.5389804e-02
-1.8446661e-02
-2.0809115e-02
-2.1306605e-02
-2.0687857e-02
-1.9036009e-02
-1.5428965e-02
-1.0971193e-02
-7.1437914e-03
-2.5443863e-03
3.2116154e-03
8.4248809e-03
1.2671652e-02
1.6271469e-02
1.8948821e-02
2.0606689e-02
2.0309972e-02
1.7069088e-02
1.3201158e-02
1.1237607e-02
9.3514781e-03
5.5738033e-03
1.5345515e-03
-1.2880539e-03
-3.8424554e-03
-6.6012592e-03
-7.8723531e-03
-8.0858286e-03
-9.3220612e-03
-1.1403619e-02
-1.2560435e-02
-9.3039474e-03
-1.2499934e-03
6.5795897e-03
1.2561987e-02
1.8513353e-02
2.3184112e-02
2.4363359e-02
2.2083895e-02
1.8344589e-02
1.4087759e-02
7.8232014e-03
3.2636820e-04
-5.0463369e-03
-8.5033928e-03
-1.1731535e-02
-1.2742752e-02
-1.1959657e-02
-1.2272922e-02
-1.3349318e-02
-1.4456858e-02
-1.4346649e-02
-1.3039403e-02
-1.3913238e-02
-1.6358452e-02
-1.6869166e-02
-1.4126698e-02
-6.6292443e-03
4.3158047e-03
1.4529407e-02
2.2098193e-02
2.5835726e-02
2.4696055e-02
1.9494647e-02
1.2775696e-02
7.8990192e-03
5.6536744e-03
5.2471141e-03
6.5947166e-03
9.0742474e-03
1.1477022e-02
1.2680367e-02
1.3111774e-02
1.3839200e-02
1.6229731e-02
2.1079201e-02
2.6247780e-02
3.0936988e-02
3.6529839e-02
4.1029034e-02
3.9578525e-02
2.7221365e-02
7.9638112e-03
-4.3924249e-03
-5.9849755e-03
-3.8443535e-03
-2.5210761e-03
-4.1060841e-03
-9.6045380e-03
-1.7091441e-02
-2.4635841e-02
-3.2843901e-02
-4.0956418e-02
-4.6518878e-02
-4.8259548e-02
-4.6050343e-02
-4.0528165e-02
-3.4275829e-02
-3.0183613e-02
-2.7682880e-02
-2.4085911e-02
-1.8242900e-02
-1.1432264e-02
-4.2936722e-03
3.7316180e-03
1.1744339e-02
1.7390932e-02
2.0569395e-02
2.1865238e-02
1.9406212e-02
1.3573148e-02
5.7148337e-03
-3.2427293e-03
-9.7764777e-03
-1.2377549e-02
-1.3239158e-02
-1.3100915e-02
-1.1281388e-02
-9.1106887e-03
-8.4217512e-03
-7.8710840e-03
-5.4433551e-03
-2.2652817e-03
2.7111647e-04
2.6121585e-03
5.5771304e-03
9.3209565e-03
1.2236507e-02
1.4369228e-02
1.7801425e-02
2.0761745e-02
2.0097469e-02
1.7218677e-02
1.4769824e-02
1.2396651e-02
9.5469290e-03
6.4716022e-03
5.3841475e-03
7.3482412e-03
9.6924032e-03
1.1103299e-02
1.1128288e-02
1.0275343e-02
9.4514625e-03
6.2116424e-03
-1.7199210e-03
-1.0616479e-02
-1.4861185e-02
-1.5168579e-02
-1.5272530e-02
-1.4552620e-02
-1.1421272e-02
-6.7526389e-03
-1.4540465e-03
3.3248406e-03
6.7072877e-03
7.8314555e-03
5.0152590e-03
-1.0008120e-03
-8.0765263e-03
-1.5109800e-02
-2.0936094e-02
-2.5692493e-02
-2.9008560e-02
-2.9279106e-02
-2.7045479e-02
-2.4628381e-02
-2.3013612e-02
-2.1323792e-02
-1.9861888e-02
-1.9464655e-02
-1.8421720e-02
-1.6398558e-02
-1.5476499e-02
-1.4005820e-02
-1.1184566e-02
-9.4067500e-03
-7.9443243e-03
-4.7238900e-03
-7.5010630e-04
3.8960010e-03
1.3923401e-02
2.8516086e-02
3.8226793e-02
3.9158309e-02
3.3410046e-02
2.2990160e-02
1.2252070e-02
6.0194661e-03
4.6192292e-03
3.9316384e-03
1.5196496e-03
-1.2479330e-03
-3.5942454e-03
-6.5301254e-03
-9.7027039e-03
-1.1377219e-02
-1.0905875e-02
-9.4033310e-03
-7.7875144e-03
-4.9831855e-03
2.0455876e-04
7.4801635e-03
1.5158121e-02
2.1871611e-02
2.7409847e-02
3.0185670e-02
2.7953932e-02
2.2767226e-02
1.7436191e-02
1.0231518e-02
1.1969648e-03
-5.4520585e-03
-8.6078660e-03
-1.0555504e-02
-1.1213890e-02
-1.1177682e-02
-1.2843500e-02
-1.5906640e-02
-1.8437705e-02
-1.8459946e-02
-1.5612924e-02
-1.0296316e-02
-3.3667713e-03
3.2685843e-03
9.5712989e-03
1.5440291e-02
2.0369942e-02
2.5211116e-02
3.0638585e-02
3.4974065e-02
3.4116072e-02
2.8010011e-02
2.1318516e-02
1.6176895e-02
1.1501590e-02
6.7563766e-03
2.5977238e-03
9.9001963e-05
-1.9712700e-06
1.6382858e-03
4.7763524e-03
9.4079309e-03
1.3908547e-02
1.4654115e-02
7.6718595e-03
-8.7204407e-03
-2.9970749e-02
-4.6644142e-02
-5.5025697e-02
-5.6185102e-02
-5.1414186e-02
-4.3783404e-02
-3.5662960e-02
-2.7486334e-02
-1.7812789e-02
-4.2687395e-03
8.3532302e-03
1.1660853e-02
7.8704678e-03
2.8951344e-03
-1.8197839e-03
-5.6468853e-03
-9.4260515e-03
-1.4748696e-02
-1.9903805e-02
-2.1462556e-02
-1.9953840e-02
-1.8060787e-02
-1.5592464e-02
-1.1822426e-02
-6.9401681e-03
-1.0807782e-03
3.8093511e-03
7.1798762e-03
1.0173155e-02
1.2699902e-02
1.5315272e-02
1.9362424e-02
2.5942122e-02
3.4453900e-02
4.4706127e-02
5.6196139e-02
6.5218515e-02
7.0602512e-02
7.3035568e-02
7.1206401e-02
6.4680504e-02
5.3166807e-02
3.5454588e-02
1.0997479e-02
-1.8109090e-02
-4.6296349e-02
-6.8619579e-02
-8.0763163e-02
-8.1081311e-02
-7.3103083e-02
-6.0319921e-02
-4.4707331e-02
-2.7412962e-02
-1.0362550e-02
3.3620088e-03
1.3413478e-02
2.2880834e-02
3.2567699e-02
3.9128205e-02
3.8898523e-02
3.0510161e-02
1.6934701e-02
3.0028665e-03
-8.8846200e-03
-1.9509557e-02
-3.0336406e-02
-4.0238727e-02
-4.7168971e-02
-5.0255380e-02
-4.9641473e-02
-4.5575045e-02
-3.8665300e-02
-3.0315801e-02
-2.1616173e-02
-1.2764538e-02
-2.7528975e-03
8.2530101e-03
1.8556776e-02
2.7333775e-02
3.3458058e-02
3.7335350e-02
4.0106570e-02
4.0405331e-02
3.8668003e-02
3.5565096e-02
3.0713706e-02
2.6393406e-02
2.3955999e-02
2.1360289e-02
1.7221390e-02
1.2671177e-02
9.4556566e-03
8.4309202e-03
7.8789674e-03
5.2259913e-03
-2.4508593e-04
-7.4840877e-03
-1.4542605e-02
-2.1070792e-02
-2.8003493e-02
-3.5436335e-02
-4.2518292e-02
-4.8731761e-02
-5.5185549e-02
-6.0514284e-02
-6.1273835e-02
-5.7817131e-02
-5.1660172e-02
-4.1371926e-02
-2.4049396e-02
-4.1942906e-03
8.6916283e-03
1.3859919e-02
1.5680949e-02
1.6056012e-02
1.6022934e-02
1.5515994e-02
1.4019602e-02
1.2635389e-02
1.1723349e-02
1.1553795e-02
1.2583299e-02
1.4534179e-02
1.7622578e-02
2.1738509e-02
2.5635475e-02
2.8154461e-02
3.0080303e-02
3.1471059e-02
3.0946261e-02
2.8242912e-02
2.5053457e-02
2.2709600e-02
1.9624229e-02
1.4032432e-02
6.9472821e-03
8.0827157e-04
-3.4866449e-03
-6.1841749e-03
-7.2363684e-03
-7.2999447e-03
-6.9774710e-03
-6.8966161e-03
-8.4021245e-03
-1.0890933e-02
-1.2125889e-02
-1.1155134e-02
-9.1708434e-03
-7.2269165e-03
-5.0660045e-03
-2.7554351e-03
-1.0753300e-03
-5.5136935e-04
4.2104282e-05
1.8403650e-03
4.3026596e-03
7.3384860e-03
1.0006615e-02
1.0319738e-02
8.2796718e-03
4.4842063e-03
-1.1470054e-03
-6.4389097e-03
-9.0127335e-03
-9.8991923e-03
-1.0417479e-02
-1.0488585e-02
-9.8297453e-03
-8.2603139e-03
-6.2094960e-03
-4.0281838e-03
-1.7791460e-03
6.7742019e-04
3.7053177e-03
7.8158131e-03
1.3796194e-02
2.1489535e-02
3.0219435e-02
3.8428433e-02
4.4567980e-02
4.8983811e-02
5.1252694e-02
4.9186787e-02
4.1667236e-02
2.6345569e-02
4.7855352e-03
-1.2775047e-02
-2.1703728e-02
-2.5042715e-02
-2.5167402e-02
-2.3800405e-02
-2.1200031e-02
-1.6921600e-02
-1.2207481e-02
-8.0615362e-03
-3.8216478e-03
1.3945493e-03
8.0314973e-03
1.6110037e-02
2.3359118e-02
2.6506770e-02
2.5512142e-02
2.2164653e-02
1.7752033e-02
1.2233526e-02
4.5855323e-03
-4.5735850e-03
-1.3967295e-02
-2.2419299e-02
-2.7485041e-02
-2.7020447e-02
-1.9271405e-02
-4.1857399e-03
1.6605098e-02
4.0716232e-02
6.3086823e-02
7.7930922e-02
8.0610329e-02
6.8601700e-02
4.2321606e-02
5.5141140e-03
-3.5253442e-02
-7.2332039e-02
-9.8226133e-02
-1.0860857e-01
-1.0469744e-01
-8.9888577e-02
-6.8522884e-02
-4.7820538e-02
-3.4118192e-02
-2.9258865e-02
-3.0290205e-02
-3.1728075e-02
-2.6966475e-02
-9.2000037e-03
1.7585853e-02
3.8308072e-02
4.5183328e-02
4.1791545e-02
3.3088073e-02
2.1040559e-02
8.0778483e-03
-2.0617076e-03
-6.3159427e-03
-3.7893392e-03
3.6298024e-03
1.1837519e-02
1.5853062e-02
1.5266949e-02
1.3518440e-02
1.5797455e-02
2.6792467e-02
4.4340020e-02
5.9360851e-02
6.0979933e-02
4.6398059e-02
2.2930469e-02
-9.5409399e-04
-1.7643269e-02
-2.1186720e-02
-1.2448162e-02
3.5036604e-03
1.9887219e-02
2.4742152e-02
8.7196549e-03
-2.0942617e-02
-4.5506350e-02
-5.1794996e-02
-4.0509019e-02
-2.2705950e-02
-7.7666763e-03
3.9072781e-03
1.6459720e-02
3.1778165e-02
4.6749790e-02
5.3804904e-02
4.8028005e-02
3.2519245e-02
1.4843894e-02
2.3081575e-03
-3.9359904e-03
-8.5667190e-03
-1.3861106e-02
-2.1162760e-02
-3.4579887e-02
-5.0827109e-02
-6.1109968e-02
-6.4716837e-02
-6.3675369e-02
-5.8223477e-02
-5.0229884e-02
-4.1452800e-02
-3.2205449e-02
-2.3041232e-02
-1.4787986e-02
-6.8467585e-03
-6.5615690e-04
1.8880718e-03
2.5104353e-03
2.5866266e-03
7.4551940e-04
-3.3071263e-03
-8.1195181e-03
-1.3615495e-02
-1.9289160e-02
-2.4508903e-02
-2.9734663e-02
-3.2991793e-02
-3.0915974e-02
-2.1250588e-02
-6.1431628e-03
7.6034837e-03
1.6034926e-02
1.9565665e-02
2.0344400e-02
2.0477861e-02
2.0188922e-02
1.9659112e-02
1.9131375e-02
1.8284721e-02
1.9254495e-02
2.2069315e-02
2.2388220e-02
2.0148848e-02
1.8233309e-02
1.5364335e-02
1.0554801e-02
5.1500058e-03
-1.0682228e-04
-4.1844984e-03
-4.8955976e-03
-1.3123075e-03
3.1409101e-03
6.4856169e-03
9.7659184e-03
1.2594135e-02
1.3810501e-02
1.2232717e-02
8.1181257e-03
2.0670263e-03
-4.1571409e-03
-7.5251174e-03
-7.7890483e-03
-6.2647249e-03
-3.5406861e-03
3.3242116e-04
4.1656270e-03
8.0637236e-03
1.2767801e-02
1.5902256e-02
1.5435133e-02
1.1344592e-02
4.7418223e-03
-2.0052743e-03
-6.7427216e-03
-9.7017916e-03
-1.1366993e-02
-1.0208636e-02
-7.6469564e-03
-6.4346821e-03
-6.6356115e-03
-7.8293954e-03
-8.5329414e-03
-7.8560778e-03
-5.9037879e-03
-2.1807992e-03
2.1985080e-03
6.1880696e-03
9.4749642e-03
1.0575906e-02
9.7409173e-03
7.9132877e-03
4.8595086e-03
2.1173542e-03
4.0744050e-04
-2.1017707e-03
-5.4143649e-03
-7.8605938e-03
-8.8086337e-03
-9.5983120e-03
-1.1949053e-02
-1.6202150e-02
-2.1125104e-02
-2.4213779e-02
-2.3431068e-02
-1.9011057e-02
-1.2991345e-02
-6.0937705e-03
9.2701750e-04
6.8507794e-03
1.1126939e-02
1.2974319e-02
1.3767847e-02
1.5428483e-02
1.7080244e-02
1.7937273e-02
1.7990006e-02
1.5325426e-02
1.0220797e-02
4.8109786e-03
-8.6160823e-04
-6.3450338e-03
-1.1233041e-02
-1.5284783e-02
-1.7977961e-02
-1.9624811e-02
-2.0408025e-02
-1.9994723e-02
-1.8712374e-02
-1.7614840e-02
-1.5892926e-02
-1.2953339e-02
-9.9315432e-03
-6.8099164e-03
-3.9643442e-03
-2.2943099e-03
-3.1702093e-04
2.8476789e-03
5.1457494e-03
5.9273735e-03
5.1434057e-03
2.5827638e-03
-4.7475900e-04
-3.3415552e-03
-5.4789028e-03
-5.8990411e-03
-3.4216332e-03
2.7736004e-03
1.0430556e-02
1.6727843e-02
2.1694231e-02
2.5411728e-02
2.8293954e-02
3.0268055e-02
3.0093094e-02
2.9605568e-02
3.1381060e-02
3.4391694e-02
3.7644034e-02
4.2810483e-02
5.0250397e-02
5.7872597e-02
6.2164824e-02
5.8724361e-02
4.4411446e-02
1.9685387e-02
-9.5169207e-03
-3.3376019e-02
-4.6840866e-02
-5.3274265e-02
-5.5392348e-02
-5.3836855e-02
-5.0751591e-02
-4.7005478e-02
-4.0576747e-02
-2.9350812e-02
-1.3928201e-02
2.4699202e-04
3.8935891e-03
-1.4389558e-03
-2.2179117e-03
8.5592700e-03
2.8960231e-02
4.8387500e-02
5.0103079e-02
3.0129592e-02
9.8197111e-04
-2.1743765e-02
-3.1109923e-02
-3.1098848e-02
-2.7892650e-02
-2.3627271e-02
-1.8127542e-02
-1.2472959e-02
-9.6187784e-03
-1.1402541e-02
-1.5628046e-02
-1.8946645e-02
-1.9263740e-02
-1.3889547e-02
1.0561961e-04
2.1614161e-02
4.2471455e-02
5.2107263e-02
4.6779029e-02
3.3550352e-02
2.4951494e-02
2.7765477e-02
3.7970593e-02
4.8011440e-02
5.3508255e-02
5.3884403e-02
5.0403755e-02
4.2266638e-02
2.7240703e-02
6.5484509e-03
-1.3846792e-02
-2.9119913e-02
-3.9290634e-02
-4.4523991e-02
-4.4152893e-02
-3.9563632e-02
-3.4054764e-02
-3.0622103e-02
-2.9331650e-02
-2.5814806e-02
-1.4101241e-02
4.8232744e-03
2.2543523e-02
3.0966668e-02
3.1076308e-02
3.1868555e-02
3.5826616e-02
3.8918752e-02
3.8894269e-02
3.6522748e-02
3.3527409e-02
2.8824183e-02
1.9164508e-02
2.6114011e-03
-2.0689407e-02
-4.6791700e-02
-6.6092447e-02
-7.2453325e-02
-6.8260846e-02
-5.8183832e-02
-4.6766967e-02
-3.7116854e-02
-2.7252329e-02
-1.3573407e-02
9.5546856e-04
1.1117784e-02
1.7674066e-02
2.3254129e-02
2.7557730e-02
2.6803109e-02
1.8560216e-02
8.4107264e-03
2.8443200e-03
2.0908317e-03
2.4149027e-03
5.7754208e-04
-2.9706946e-03
-6.7878522e-03
-8.4143663e-03
-4.9631819e-03
2.2259335e-03
7.0155274e-03
3.6747934e-03
-6.7102822e-03
-2.0011293e-02
-3.4385469e-02
-4.8111176e-02
-5.7584534e-02
-5.7443819e-02
-4.5402205e-02
-2.6469361e-02
-9.4016520e-03
1.0853640e-04
6.9510212e-04
-5.7355610e-03
-1.2354218e-02
-1.5854087e-02
-2.0892364e-02
-2.9543640e-02
-3.7190184e-02
-4.0415245e-02
-4.1102327e-02
-4.0791766e-02
-3.8043273e-02
-3.4127607e-02
-3.3170539e-02
-3.5409047e-02
-3.8361916e-02
-3.8452741e-02
-3.3738726e-02
-2.7186907e-02
-2.0780733e-02
-1.4171742e-02
-7.5621367e-03
-9.0585341e-04
6.2544771e-03
1.3249173e-02
1.8701572e-02
2.3035545e-02
2.8018371e-02
3.5174069e-02
4.4758597e-02
5.5626874e-02
6.5905820e-02
7.3851116e-02
7.8301734e-02
7.6350259e-02
6.3568411e-02
3.9430467e-02
1.0173422e-02
-1.2861990e-02
-1.8787314e-02
-5.4532712e-03
1.7647129e-02
3.6721382e-02
4.2862166e-02
3.3543134e-02
1.2863220e-02
-8.2058001e-03
-1.9856206e-02
-2.1010505e-02
-1.6398837e-02
-1.0651552e-02
-6.5345614e-03
-5.0269671e-03
-5.2296570e-03
-7.0271584e-03
-1.0915492e-02
-1.5354429e-02
-1.9821359e-02
-2.3948671e-02
-2.6578118e-02
-2.8740931e-02
-2.9945348e-02
-2.8930471e-02
-2.5571133e-02
-1.9340478e-02
-1.2426728e-02
-7.5012137e-03
-4.3318998e-03
-1.6334239e-03
7.2351495e-04
2.1172459e-03
3.3082217e-03
5.2020555e-03
7.8359408e-03
1.0581269e-02
1.2664987e-02
1.6254867e-02
2.2233936e-02
2.6728290e-02
2.8981091e-02
3.0052158e-02
2.9506685e-02
2.9651971e-02
3.0803407e-02
3.0253918e-02
2.7963789e-02
2.4080419e-02
1.9221153e-02
1.4595879e-02
1.0357230e-02
8.3824424e-03
8.7402839e-03
9.8658807e-03
1.2082510e-02
1.6444815e-02
2.3593161e-02
3.1789408e-02
3.8224617e-02
4.1406273e-02
4.0230193e-02
3.3500343e-02
2.0217887e-02
3.3306986e-03
-9.8229092e-03
-1.7750600e-02
-2.3308262e-02
-2.6238273e-02
-2.7046242e-02
-2.8133011e-02
-2.9412841e-02
-2.9254276e-02
-2.8015409e-02
-2.6303800e-02
-2.3641304e-02
-1.9283960e-02
-1.3460105e-02
-8.1305237e-03
-4.6723128e-03
-2.3210664e-03
5.3000760e-04
3.1488714e-03
3.3724434e-03
2.0480714e-03
9.5996210e-04
-7.4741032e-04
-4.0308848e-03
-7.3903631e-03
-9.6306448e-03
-1.0364715e-02
-9.5089359e-03
-6.6984838e-03
3.0340820e-04
1.0416056e-02
2.0553795e-02
3.2160057e-02
4.4976089e-02
5.2256692e-02
4.9716113e-02
4.2471538e-02
3.8833385e-02
4.0170334e-02
4.2393525e-02
4.1441255e-02
3.4040537e-02
2.0230767e-02
2.7953627e-03
-1.5508446e-02
-3.1153502e-02
-3.9493610e-02
-3.8503628e-02
-3.0779290e-02
-1.9016339e-02
-4.4150080e-03
8.6072702e-03
1.3878877e-02
8.6566160e-03
-5.6412200e-03
-2.3033377e-02
-3.5860098e-02
-4.0480595e-02
-3.8950103e-02
-3.4173378e-02
-2.7157648e-02
-1.9862499e-02
-1.4020996e-02
-1.0794152e-02
-1.1248208e-02
-1.3947407e-02
-1.5854888e-02
-1.5164635e-02
-1.2741551e-02
-9.9415745e-03
-6.2436263e-03
-1.3075383e-03
4.0612120e-03
8.2433667e-03
9.3593084e-03
8.4339414e-03
8.5929932e-03
1.0542879e-02
1.2122610e-02
1.2409112e-02
1.3111412e-02
1.3867317e-02
1.1565314e-02
5.6003213e-03
-3.2425935e-03
-1.4722367e-02
-2.6047643e-02
-3.4414242e-02
-3.8225791e-02
-3.7539290e-02
-3.5767213e-02
-3.3881322e-02
-3.1948674e-02
-3.2495138e-02
-3.5348835e-02
-3.8385825e-02
-3.9701666e-02
-3.7465541e-02
-2.9836180e-02
-1.3169783e-02
9.8690094e-03
2.8480716e-02
3.7574238e-02
4.1105946e-02
4.5988744e-02
5.4846099e-02
6.5178999e-02
7.5272387e-02
8.3789772e-02
8.8747272e-02
8.8706455e-02
8.3043562e-02
7.2143130e-02
5.7893229e-02
4.4257668e-02
3.3263197e-02
2.2669562e-02
8.0130553e-03
-1.3882189e-02
-4.0179886e-02
-6.2331729e-02
-7.2287153e-02
-6.9171458e-02
-6.0145073e-02
-5.2839740e-02
-5.0755193e-02
-5.3046083e-02
-5.3746272e-02
-4.7653972e-02
-3.4917352e-02
-1.8027915e-02
4.1716837e-05
1.7237059e-02
3.2435188e-02
4.3509763e-02
4.9710834e-02
4.9252104e-02
3.9329056e-02
2.3609480e-02
1.1219476e-02
7.6317238e-03
1.0733190e-02
1.6511298e-02
2.2793700e-02
2.6872881e-02
2.6193905e-02
2.1231111e-02
1.3125887e-02
1.3635231e-03
-1.6587733e-02
-3.6059105e-02
-4.6591861e-02
-4.8470663e-02
-4.7132764e-02
-4.3689068e-02
-3.8207812e-02
-3.3194791e-02
-3.0954948e-02
-2.9908002e-02
-2.6778029e-02
-1.9116198e-02
-6.8839108e-03
7.9959563e-03
2.1739692e-02
2.9073819e-02
2.6881459e-02
1.6610541e-02
4.7676022e-03
-6.8422300e-04
1.4556349e-03
6.7829007e-03
1.1758695e-02
1.3965197e-02
1.3235171e-02
1.0766145e-02
6.1813320e-03
-6.6735030e-04
-7.9012816e-03
-1.4505092e-02
-2.1388976e-02
-2.8375911e-02
-3.4299604e-02
-3.7660407e-02
-3.6660774e-02
-3.1636593e-02
-2.5382692e-02
-1.8860426e-02
-1.1319350e-02
-4.0412686e-03
1.1577185e-03
4.8024577e-03
7.7513421e-03
1.0046782e-02
1.1637473e-02
1.0894397e-02
7.5650973e-03
2.9768099e-03
-2.2654916e-03
-6.4454689e-03
-5.8458579e-03
-5.6674576e-04
3.6312587e-03
3.5507283e-03
5.0699441e-04
-1.9194174e-03
-1.7268224e-03
-1.2863721e-03
-2.1812219e-03
-2.1576570e-03
-1.0593561e-04
1.7117224e-03
2.8208258e-03
4.0246621e-03
3.4145678e-03
2.3690494e-04
-5.2748766e-03
-1.3741851e-02
-2.2295409e-02
-2.5442832e-02
-2.1453655e-02
-1.3505194e-02
-5.2934049e-03
3.2391659e-04
2.5399473e-03
3.0086436e-03
3.5164674e-03
5.8745640e-03
1.0906545e-02
1.6330201e-02
2.0091364e-02
2.2867369e-02
2.3946105e-02
2.2035478e-02
1.9218796e-02
1.7798170e-02
1.8966760e-02
2.2905749e-02
2.7232554e-02
3.1484597e-02
3.7128488e-02
4.1977265e-02
4.3301111e-02
4.2688225e-02
4.1867765e-02
4.0188934e-02
3.8253385e-02
3.5192026e-02
2.5676738e-02
7.5401097e-03
-1.3717874e-02
-3.0442428e-02
-3.9657872e-02
-4.1675251e-02
-3.7473573e-02
-3.1124694e-02
-2.5966489e-02
-2.3448860e-02
-2.6089411e-02
-3.2374561e-02
-3.5916151e-02
-3.2920222e-02
-2.6039067e-02
-1.7818215e-02
-7.1172076e-03
3.5995501e-03
1.0211054e-02
1.3314259e-02
1.5582271e-02
1.7726014e-02
1.9496205e-02
2.0957047e-02
2.1219536e-02
1.8789150e-02
1.2430441e-02
1.6763695e-03
-1.0668415e-02
-2.0042838e-02
-2.5316541e-02
-2.7291173e-02
-2.5954835e-02
-2.2365615e-02
-1.9085714e-02
-1.7135442e-02
-1.5401297e-02
-1.2694724e-02
-8.7221290e-03
-5.4680981e-03
-4.2725838e-03
-2.5059500e-03
6.3708443e-04
1.8065314e-03
-4.5471948e-04
-3.2362737e-03
-3.6850232e-03
-2.3877229e-03
-5.8640413e-04
1.0983402e-03
1.2539283e-03
1.5254454e-03
6.5874131e-03
1.4992388e-02
2.0942482e-02
2.4074317e-02
2.5443749e-02
2.4484692e-02
2.2033714e-02
1.8394101e-02
1.3562671e-02
7.4290835e-03
3.0970550e-04
-6.2472015e-03
-1.1225127e-02
-1.4288001e-02
-1.6374428e-02
-1.7735293e-02
-1.6391749e-02
-1.3378262e-02
-1.2041529e-02
-1.3708271e-02
-1.6973470e-02
-1.8028115e-02
-1.5683343e-02
-1.2832964e-02
-1.3205140e-02
-1.7640177e-02
-2.1355827e-02
-1.7658215e-02
-3.9258298e-03
1.5542008e-02
3.3573027e-02
4.5099156e-02
4.8777106e-02
4.7629899e-02
4.4111994e-02
3.6392207e-02
2.5442152e-02
1.7928641e-02
1.7580720e-02
2.2451641e-02
2.9994884e-02
3.9149156e-02
4.8660012e-02
5.5051726e-02
5.4621438e-02
4.8598067e-02
4.0981732e-02
3.2689779e-02
2.2146916e-02
7.2776815e-03
-1.5296481e-02
-4.1020433e-02
-5.6298117e-02
-5.8831516e-02
-5.6748565e-02
-5.3882096e-02
-5.0574623e-02
-4.8335963e-02
-4.7124174e-02
-4.3712639e-02
-3.7350333e-02
-2.8857545e-02
-1.9258262e-02
-1.1177053e-02
-4.6061736e-03
1.6775036e-03
7.2119680e-03
9.7088519e-03
8.0230272e-03
5.2198666e-03
3.1394644e-03
1.0934414e-03
-4.4612863e-04
-1.1628961e-03
-3.1451722e-03
-7.2974840e-03
-1.1008016e-02
-1.2271148e-02
-1.1735079e-02
-1.0273903e-02
-8.8087894e-03
-7.7806689e-03
-5.8714615e-03
-2.8180375e-03
2.0526076e-04
3.8472575e-03
9.9119768e-03
1.6429821e-02
1.9943293e-02
2.1338228e-02
2.1464473e-02
1.9659963e-02
1.6527998e-02
1.0730041e-02
1.6713900e-03
-7.5661806e-03
-1.4059995e-02
-1.7632707e-02
-1.9669371e-02
-1.9816512e-02
-1.6092698e-02
-9.0837724e-03
-3.0077614e-03
7.0398816e-05
1.0382714e-03
-1.8992182e-04
-2.6093122e-03
-3.3563363e-03
-1.3418273e-03
2.2975504e-03
6.1024011e-03
9.0980676e-03
1.1970955e-02
1.4149988e-02
1.2050068e-02
5.0577231e-03
-4.3155352e-03
-1.4774970e-02
-2.4695832e-02
-3.1480705e-02
-3.4500702e-02
-3.3628723e-02
-2.8801668e-02
-2.1929005e-02
-1.4716932e-02
-7.7301174e-03
-1.7387367e-03
1.9212039e-03
2.7493074e-03
2.2139183e-03
3.1189071e-03
5.8965041e-03
8.5881871e-03
1.0664543e-02
1.2213060e-02
1.4124086e-02
1.7132330e-02
2.1265954e-02
2.6265795e-02
2.9551254e-02
2.9232470e-02
2.4781665e-02
1.6531702e-02
7.6372428e-03
2.6970492e-04
-4.9755420e-03
-6.9923557e-03
-6.7568330e-03
-5.5427971e-03
-3.9006024e-03
-3.0452345e-03
-3.1323421e-03
-4.0605444e-03
-4.9684145e-03
-3.4418444e-03
1.7509720e-03
8.5953867e-03
1.3466469e-02
1.4564932e-02
1.2191123e-02
7.3402461e-03
1.8106652e-03
-2.3708567e-03
-3.8293879e-03
-2.5077847e-03
-1.0067427e-03
-1.3366181e-03
-3.5117089e-03
-7.6315101e-03
-1.2633748e-02
-1.6906648e-02
-1.9600361e-02
-2.1328803e-02
-2.4049356e-02
-2.8627551e-02
-3.5392332e-02
-4.3015075e-02
-4.8021397e-02
-4.9554075e-02
-4.8319786e-02
-4.4794627e-02
-3.8990313e-02
-3.1067190e-02
-2.3190035e-02
-1.5861455e-02
-7.5292606e-03
1.7271181e-03
1.0216632e-02
1.6432965e-02
1.9677325e-02
1.8901142e-02
1.4282797e-02
7.7305965e-03
7.0139810e-04
-4.7951985e-03
-7.9526332e-03
-9.4702735e-03
-9.0095378e-03
-6.9774920e-03
-4.2438385e-03
3.4296904e-05
5.4479681e-03
1.0804886e-02
1.5963266e-02
1.9562341e-02
2.1031945e-02
2.2326603e-02
2.6238969e-02
3.1919723e-02
3.6649956e-02
4.1140467e-02
4.4869581e-02
4.5425086e-02
4.3484210e-02
4.1168602e-02
3.7952351e-02
3.1858473e-02
2.4129073e-02
1.7791136e-02
1.3212905e-02
9.8317483e-03
8.1831263e-03
7.8982361e-03
6.4285596e-03
1.2335187e-03
-7.2062806e-03
-1.5961107e-02
-2.1641531e-02
-2.2158712e-02
-1.8406001e-02
-1.3514053e-02
-9.3624066e-03
-6.4720573e-03
-4.7262179e-03
-2.7101207e-03
-2.9883530e-04
2.0580423e-03
4.3532541e-03
5.4167888e-03
3.7601619e-03
-1.0638369e-03
-6.3951367e-03
-9.2373861e-03
-1.0346132e-02
-1.0511247e-02
-1.0304445e-02
-1.1769413e-02
-1.5199390e-02
-1.8884784e-02
-2.0775127e-02
-1.9227935e-02
-1.4523636e-02
-8.6775609e-03
-3.6135488e-03
-4.5670463e-04
9.7364761e-04
2.1697735e-03
4.6901151e-03
9.3695257e-03
1.6264319e-02
2.3824366e-02
2.9730050e-02
3.3007216e-02
3.3039712e-02
2.9592993e-02
2.3537444e-02
1.5271071e-02
5.7655158e-03
-3.0725450e-03
-9.9344771e-03
-1.3454207e-02
-1.3856140e-02
-1.1823021e-02
-7.8893922e-03
-4.5411390e-03
-1.5492689e-03
2.2499766e-03
5.2311257e-03
7.0304347e-03
8.1484739e-03
9.3643307e-03
1.1428611e-02
1.3513854e-02
1.5397464e-02
1.7296571e-02
1.8722038e-02
1.9766482e-02
2.0187390e-02
1.8278552e-02
1.3620303e-02
7.3065647e-03
1.5940327e-04
-6.4265336e-03
-1.1028523e-02
-1.3626052e-02
-1.5242352e-02
-1.7600432e-02
-2.1182244e-02
-2.4010775e-02
-2.5151684e-02
-2.5031354e-02
-2.3746798e-02
-2.1543818e-02
-1.9252847e-02
-1.7431286e-02
-1.4809094e-02
-9.7671828e-03
-3.2417202e-03
2.7762015e-03
8.1820802e-03
1.2679148e-02
1.5741982e-02
1.7300749e-02
1.6191368e-02
1.1824141e-02
5.7139245e-03
7.9600038e-04
-1.6652406e-03
-2.1829858e-03
-5.3444823e-04
2.7312762e-03
6.6582876e-03
1.0148422e-02
1.0617835e-02
8.0917785e-03
5.3169127e-03
2.7389992e-03
-1.9634564e-04
-2.1642005e-03
-6.2396298e-04
4.4331339e-03
9.7197088e-03
1.3149918e-02
1.3756834e-02
1.1627814e-02
8.8225244e-03
5.9012452e-03
2.0642449e-03
-3.1055256e-03
-9.6273394e-03
-1.6011114e-02
-2.0357874e-02
-2.1899667e-02
-2.1082846e-02
-1.9329649e-02
-1.8722807e-02
-1.9610772e-02
-2.0504500e-02
-2.1176888e-02
-2.0069829e-02
-1.6499784e-02
-1.2802993e-02
-9.6968560e-03
-7.5275529e-03
-6.4678372e-03
-5.0326560e-03
-2.4411692e-03
7.7319034e-04
4.8462702e-03
9.9612245e-03
1.3617194e-02
1.4504305e-02
1.4542341e-02
1.4726874e-02
1.5599479e-02
1.6667312e-02
1.6421269e-02
1.5545715e-02
1.4002531e-02
1.0085048e-02
3.5440047e-03
-5.6553639e-03
-1.6865606e-02
-2.5723817e-02
-2.8635897e-02
-2.5276171e-02
-1.6437105e-02
-5.0916228e-03
5.7717161e-03
1.3981275e-02
1.8748136e-02
2.1624632e-02
2.2953169e-02
2.2031763e-02
1.9154004e-02
1.4470277e-02
8.2309908e-03
2.4838319e-03
-1.5788503e-03
-4.5940364e-03
-6.3386204e-03
-5.8411585e-03
-3.0614791e-03
-3.2364822e-05
1.6296328e-03
2.2177111e-03
2.7394933e-03
3.3538492e-03
4.4883672e-03
7.3326490e-03
9.1612214e-03
7.1282457e-03
4.5612188e-03
5.6049550e-03
9.0626138e-03
1.1163197e-02
1.0916097e-02
9.3369481e-03
5.5858114e-03
6.2814389e-05
-4.3259664e-03
-7.0596417e-03
-9.1754802e-03
-1.0986028e-02
-1.2081021e-02
-1.1908457e-02
-1.1334775e-02
-1.2451280e-02
-1.4330760e-02
-1.4009404e-02
-1.2274689e-02
-9.9256345e-03
-5.6413907e-03
5.9145403e-04
7.5013978e-03
1.4721761e-02
2.3608769e-02
3.2190202e-02
3.7292413e-02
3.9555648e-02
4.0003021e-02
3.8171508e-02
3.3352101e-02
2.7664866e-02
2.3918649e-02
2.1884978e-02
2.0193494e-02
1.6908019e-02
9.6312382e-03
-2.8155017e-03
-2.0843582e-02
-4.2993522e-02
-6.4755847e-02
-8.1019635e-02
-8.7121779e-02
-8.2612568e-02
-7.1981657e-02
-5.8503545e-02
-4.2472392e-02
-2.4839812e-02
-6.6455288e-03
1.0573253e-02
2.2081122e-02
2.5621316e-02
2.3398433e-02
1.8307623e-02
1.3753774e-02
1.2356402e-02
1.3932111e-02
1.7297899e-02
2.0758418e-02
2.1557576e-02
1.8515240e-02
1.3535904e-02
7.5324106e-03
-1.4744428e-04
-6.5310116e-03
-6.3002297e-03
2.6260051e-03
1.6790785e-02
3.0214059e-02
3.9266834e-02
4.3408382e-02
4.2179171e-02
3.6663629e-02
3.0401069e-02
2.4467724e-02
1.6157924e-02
1.0141378e-03
-2.0827682e-02
-4.0758312e-02
-5.0317559e-02
-4.9007822e-02
-4.0420431e-02
-2.7206885e-02
-1.3695829e-02
-4.7663660e-03
-1.4451780e-03
-2.0195973e-03
-3.9876937e-03
-5.9887147e-03
-7.4381723e-03
-7.6459881e-03
-6.7276889e-03
-4.2075527e-03
1.3374184e-04
4.0977022e-03
5.6175773e-03
5.3147761e-03
3.2791514e-03
-2.7105699e-03
-9.4693035e-03
-9.9987692e-03
-4.4642915e-03
2.9184043e-03
8.5884655e-03
9.6847489e-03
7.1370518e-03
6.8210714e-03
1.4627814e-02
2.8595384e-02
4.1272356e-02
4.7324498e-02
4.4595744e-02
3.2792884e-02
1.4796474e-02
-3.4787899e-03
-1.6876472e-02
-2.2822278e-02
-2.3292553e-02
-2.4754793e-02
-3.0860342e-02
-3.9504909e-02
-4.6206382e-02
-4.7271943e-02
-4.2990667e-02
-3.6824383e-02
-3.2084674e-02
-2.9297873e-02
-2.6290843e-02
-2.2915580e-02
-2.1041331e-02
-2.0173189e-02
-1.9379414e-02
-1.9360129e-02
-1.9755962e-02
-1.8170381e-02
-1.3136553e-02
-4.8210072e-03
7.8243088e-03
2.4533288e-02
3.9916122e-02
4.9127469e-02
5.1943752e-02
4.9991826e-02
4.4882857e-02
3.8065057e-02
3.1365179e-02
2.5650385e-02
2.0640402e-02
1.6535725e-02
