-4.8929664e-04
-5.1073509e-04
-6.1667009e-04
-8.5385106e-04
-1.2269117e-03
-1.6920638e-03
-2.1799318e-03
-2.6107125e-03
-2.8530272e-03
-2.7094703e-03
-2.0172473e-03
-7.7824138e-04
7.7745048e-04
2.2798666e-03
3.4405451e-03
4.1341686e-03
4.2791915e-03
3.7665372e-03
2.5107296e-03
5.5249634e-04
-1.8105094e-03
-3.9890200e-03
-5.2773731e-03
-5.1098469e-03
-3.3883138e-03
-7.9431977e-04
1.5349639e-03
2.8125809e-03
2.8030326e-03
1.4409071e-03
-1.2886749e-03
-5.1621787e-03
-9.6472329e-03
-1.4026614e-02
-1.7564585e-02
-1.9692874e-02
-2.0173009e-02
-1.9073400e-02
-1.6629233e-02
-1.3128352e-02
-8.7954077e-03
-3.7450712e-03
1.8486377e-03
7.5986245e-03
1.3117447e-02
1.8231952e-02
2.2890950e-02
2.7144862e-02
3.1189055e-02
3.5024451e-02
3.8045729e-02
3.9472182e-02
3.9140198e-02
3.7435704e-02
3.4715846e-02
3.0984650e-02
2.6026625e-02
1.9795422e-02
1.2340796e-02
3.4503538e-03
-7.2524981e-03
-1.9957829e-02
-3.4465675e-02
-5.0000650e-02
-6.5030976e-02
-7.7605387e-02
-8.6152497e-02
-8.9824358e-02
-8.8207831e-02
-8.1096350e-02
-6.8541716e-02
-5.0893571e-02
-2.8913052e-02
-3.9634137e-03
2.2071904e-02
4.6832191e-02
6.7511623e-02
8.1719309e-02
8.8548442e-02
8.8580842e-02
8.3365098e-02
7.5042957e-02
6.5598860e-02
5.6023177e-02
4.6282362e-02
3.5802109e-02
2.3982576e-02
1.0705058e-02
-3.4993900e-03
-1.7634256e-02
-3.0564182e-02
-4.1403228e-02
-4.9504745e-02
-5.4205835e-02
-5.5105318e-02
-5.2432853e-02
-4.6827856e-02
-3.9245445e-02
-3.1150899e-02
-2.3984297e-02
-1.8329738e-02
-1.3978684e-02
-1.0325011e-02
-6.4764017e-03
-1.8179583e-03
3.1800628e-03
7.2200144e-03
9.2765998e-03
9.1478944e-03
7.1222185e-03
3.5740742e-03
-9.1453583e-04
-5.3737082e-03
-8.6567898e-03
-9.6257679e-03
-7.1638395e-03
-4.4458439e-04
1.0638703e-02
2.5369716e-02
4.2268809e-02
5.8752429e-02
7.0452427e-02
7.1158545e-02
5.4790952e-02
2.0712243e-02
-2.1062203e-02
-5.3744240e-02
-6.5280564e-02
-5.4143462e-02
-2.6441518e-02
8.5288991e-03
4.1558888e-02
6.5840093e-02
7.8056943e-02
7.8186609e-02
6.8117702e-02
5.0167748e-02
2.6527330e-02
-7.5198179e-04
-2.9567827e-02
-5.7396880e-02
-8.1441676e-02
-9.9630695e-02
-1.1134363e-01
-1.1683792e-01
-1.1607138e-01
-1.0817700e-01
-9.2139518e-02
-6.7984394e-02
-3.7401380e-02
-3.7811839e-03
2.8652876e-02
5.6602590e-02
7.8472304e-02
9.3568739e-02
1.0136331e-01
1.0160222e-01
9.4573966e-02
8.1192122e-02
6.3132020e-02
4.2762993e-02
2.2637121e-02
5.0755254e-03
-8.2028862e-03
-1.6875840e-02
-2.2132091e-02
-2.5412306e-02
-2.7344269e-02
-2.7907710e-02
-2.7075890e-02
-2.5153105e-02
-2.2773484e-02
-2.0875086e-02
-2.0571706e-02
-2.2271156e-02
-2.4594762e-02
-2.4951500e-02
-2.1371808e-02
-1.3479493e-02
-2.4121354e-03
9.5769455e-03
1.9845515e-02
2.6313293e-02
2.8134613e-02
2.5703770e-02
2.0109604e-02
1.2630125e-02
4.5710041e-03
-2.8064230e-03
-8.4520451e-03
-1.1774953e-02
-1.2663839e-02
-1.1206325e-02
-7.7270148e-03
-3.0781893e-03
1.5355358e-03
4.8649367e-03
5.6040289e-03
2.9745386e-03
-2.0938740e-03
-6.9460627e-03
-8.7812615e-03
-6.4012586e-03
-6.8867249e-04
6.4282378e-03
1.3141895e-02
1.8066109e-02
2.0278105e-02
1.9305939e-02
1.5141883e-02
8.7309695e-03
1.9172383e-03
-3.7747972e-03
-8.0249178e-03
-1.1506056e-02
-1.5199618e-02
-1.9533241e-02
-2.3883256e-02
-2.7131128e-02
-2.8594094e-02
-2.8077304e-02
-2.5236105e-02
-1.9556011e-02
-1.1037448e-02
-5.0883621e-04
1.0647829e-02
2.0993335e-02
2.9498173e-02
3.5588921e-02
3.8769028e-02
3.8573082e-02
3.5241305e-02
3.0016988e-02
2.4287876e-02
1.8740027e-02
1.3525258e-02
8.6251806e-03
3.5871981e-03
-2.5997699e-03
-1.0745732e-02
-2.0576891e-02
-3.0749420e-02
-3.9595907e-02
-4.5801788e-02
-4.8718386e-02
-4.8258621e-02
-4.4247944e-02
-3.5803365e-02
-2.1955130e-02
-3.4734199e-03
1.6121091e-02
3.2131810e-02
4.1673455e-02
4.4784267e-02
4.2899493e-02
3.7397908e-02
2.9701987e-02
2.1467737e-02
1.3929567e-02
7.4198378e-03
1.7424934e-03
-3.2759304e-03
-7.6843266e-03
-1.1392625e-02
-1.4100963e-02
-1.5568248e-02
-1.5915342e-02
-1.5559875e-02
-1.4999320e-02
-1.4584177e-02
-1.4356913e-02
-1.4197522e-02
-1.3995363e-02
-1.3353401e-02
-1.1436267e-02
-7.5776148e-03
-1.8860470e-03
4.7584465e-03
1.1015115e-02
1.5633142e-02
1.8177020e-02
1.9090006e-02
1.8883273e-02
1.7662546e-02
1.5537973e-02
1.2964486e-02
1.0370654e-02
7.7487312e-03
5.0117637e-03
2.4968944e-03
6.5542187e-04
-5.7900925e-04
-1.7884796e-03
-3.4116169e-03
-5.3769936e-03
-7.5318607e-03
-9.9234495e-03
-1.2570810e-02
-1.5363591e-02
-1.7896474e-02
-1.9311390e-02
-1.8844886e-02
-1.6426822e-02
-1.2461738e-02
-7.4655617e-03
-2.0725675e-03
3.1711657e-03
8.2267598e-03
1.3320954e-02
1.8121652e-02
2.1473129e-02
2.2109471e-02
1.9659223e-02
1.4950674e-02
9.3026100e-03
3.7223309e-03
-1.1930003e-03
-5.0436301e-03
-7.6413250e-03
-9.1278192e-03
-9.8363780e-03
-1.0066370e-02
-1.0030636e-02
-9.6744247e-03
-8.6398451e-03
-6.7735224e-03
-4.3739526e-03
-1.8451487e-03
5.5358183e-04
2.7095453e-03
4.6353977e-03
6.4033050e-03
8.0943269e-03
9.8739261e-03
1.1949130e-02
1.4410214e-02
1.7256373e-02
2.0226125e-02
2.2469796e-02
2.2752012e-02
1.9825244e-02
1.2687908e-02
1.1579123e-03
-1.3735995e-02
-2.9994954e-02
-4.4860916e-02
-5.4966242e-02
-5.7153762e-02
-4.9771610e-02
-3.3904932e-02
-1.3883864e-02
4.5589300e-03
1.7594662e-02
2.4412494e-02
2.5803691e-02
2.2787736e-02
1.6407718e-02
8.2573657e-03
5.5944721e-04
-4.9004267e-03
-7.8754833e-03
-9.4840240e-03
-1.1074147e-02
-1.3216799e-02
-1.5383155e-02
-1.6160685e-02
-1.3973939e-02
-8.3152973e-03
-2.6665294e-04
8.6793417e-03
1.7972968e-02
2.7745012e-02
3.7670296e-02
4.6513472e-02
5.2513923e-02
5.4235406e-02
5.1520285e-02
4.5545734e-02
3.7844021e-02
2.9673379e-02
2.2067734e-02
1.5745221e-02
1.0935612e-02
7.3457453e-03
4.1380976e-03
2.5290028e-04
-5.1246485e-03
-1.2623668e-02
-2.2879954e-02
-3.6335448e-02
-5.2911990e-02
-7.1915062e-02
-9.2228228e-02
-1.1229531e-01
-1.2953694e-01
-1.3981215e-01
-1.3780539e-01
-1.1847848e-01
-7.9252685e-02
-2.3197385e-02
3.8908748e-02
9.2643662e-02
1.2792282e-01
1.4238787e-01
1.3900560e-01
1.2265148e-01
9.8196865e-02
7.0105602e-02
4.2374863e-02
1.8181194e-02
-3.5881432e-04
-1.2215896e-02
-1.7438340e-02
-1.7098600e-02
-1.3035360e-02
-7.1425441e-03
-5.8751627e-04
6.1846551e-03
1.2645596e-02
1.7541827e-02
1.9146715e-02
1.5777746e-02
5.8749637e-03
-1.1504906e-02
-3.4987986e-02
-5.9459970e-02
-7.7621878e-02
-8.3928406e-02
-7.6941460e-02
-5.8703165e-02
-3.3032247e-02
-4.2433001e-03
2.3519811e-02
4.6740762e-02
6.3057255e-02
7.1506244e-02
7.2068966e-02
6.5106961e-02
5.1397111e-02
3.2240622e-02
9.2573214e-03
-1.5746733e-02
-4.0757669e-02
-6.3289587e-02
-8.0065071e-02
-8.7276607e-02
-8.1229603e-02
-5.9171092e-02
-2.0867146e-02
2.8425337e-02
7.5756246e-02
1.0520860e-01
1.0799520e-01
8.6800645e-02
5.1757130e-02
1.4607489e-02
-1.5400089e-02
-3.3375332e-02
-3.8728204e-02
-3.4215998e-02
-2.4533764e-02
-1.4556911e-02
-7.7165414e-03
-5.2203803e-03
-6.4948333e-03
-1.0307512e-02
-1.5556281e-02
-2.1294019e-02
-2.6452871e-02
-2.9899740e-02
-3.0726947e-02
-2.8330373e-02
-2.2316645e-02
-1.2554229e-02
2.6928953e-04
1.3924816e-02
2.5100740e-02
3.1024648e-02
3.0548973e-02
2.4057333e-02
1.2907105e-02
-8.9765164e-04
-1.4786904e-02
-2.6006695e-02
-3.2476143e-02
-3.3547952e-02
-2.9963438e-02
-2.2977901e-02
-1.3518474e-02
-1.9375735e-03
1.1969226e-02
2.8708440e-02
4.8347473e-02
6.9701854e-02
8.9991458e-02
1.0513214e-01
1.1049069e-01
1.0190552e-01
7.7203499e-02
3.8457744e-02
-6.6647995e-03
-4.7724120e-02
-7.7058641e-02
-9.2290339e-02
-9.4979049e-02
-8.8618555e-02
-7.6922639e-02
-6.2590250e-02
-4.7246585e-02
-3.2086772e-02
-1.8164945e-02
-6.2963109e-03
2.9810893e-03
9.5587236e-03
1.3947465e-02
1.6965992e-02
1.9255433e-02
2.1135418e-02
2.2593756e-02
2.3375915e-02
2.3208110e-02
2.1844552e-02
1.8802419e-02
1.3159739e-02
4.2606023e-03
-6.9145315e-03
-1.7700046e-02
-2.5428231e-02
-2.8829541e-02
-2.8151375e-02
-2.4500910e-02
-1.9186089e-02
-1.3429977e-02
-8.0742970e-03
-3.3904388e-03
7.8032163e-04
4.9636117e-03
9.8802708e-03
1.5862162e-02
2.2362568e-02
2.8173446e-02
3.2234752e-02
3.4249609e-02
3.4710883e-02
3.4436931e-02
3.3788054e-02
3.2200726e-02
2.8367345e-02
2.0932601e-02
9.6529230e-03
-3.9685546e-03
-1.7486491e-02
-2.8834532e-02
-3.6898912e-02
-4.1437598e-02
-4.3001279e-02
-4.2521397e-02
-4.0249621e-02
-3.5438327e-02
-2.7503949e-02
-1.6985437e-02
-5.2159183e-03
6.2605507e-03
1.5929026e-02
2.2663129e-02
2.6100305e-02
2.6535771e-02
2.4448926e-02
2.0306783e-02
1.4738797e-02
8.5140625e-03
2.2524570e-03
-3.8359562e-03
-9.9361636e-03
-1.6030233e-02
-2.1294815e-02
-2.4490754e-02
-2.4793501e-02
-2.2038619e-02
-1.6623576e-02
-9.2941352e-03
-7.0699748e-04
8.7073934e-03
1.8500027e-02
2.8094368e-02
3.6736907e-02
4.3392403e-02
4.6820125e-02
4.5917628e-02
4.0240961e-02
3.0461286e-02
1.8302430e-02
5.6948734e-03
-6.1483467e-03
-1.6809662e-02
-2.6159536e-02
-3.4006461e-02
-4.0137981e-02
-4.4613008e-02
-4.7779173e-02
-4.9782581e-02
-5.0277882e-02
-4.8778511e-02
-4.4994400e-02
-3.8641916e-02
-2.9350660e-02
-1.7134920e-02
-2.7978501e-03
1.2159469e-02
2.5892439e-02
3.6782733e-02
4.4057539e-02
4.7810308e-02
4.8576875e-02
4.7360292e-02
4.5739498e-02
4.5173809e-02
4.6164831e-02
4.8238907e-02
5.0291195e-02
5.0535558e-02
4.6370992e-02
3.4948857e-02
1.4497165e-02
-1.4007563e-02
-4.5785935e-02
-7.3925681e-02
-9.3162190e-02
-1.0158145e-01
-9.9581724e-02
-8.8823886e-02
-7.1548107e-02
-4.9789335e-02
-2.5057860e-02
1.4625654e-03
2.8439340e-02
5.3806737e-02
7.4599236e-02
8.7662913e-02
9.1066254e-02
8.5019794e-02
7.1106073e-02
5.0647231e-02
2.4378543e-02
-6.1765971e-03
-3.7691521e-02
-6.5649915e-02
-8.5521302e-02
-9.3796029e-02
-8.9261073e-02
-7.3772784e-02
-5.1454505e-02
-2.6954971e-02
-3.8494450e-03
1.6212296e-02
3.3108121e-02
4.6982196e-02
5.7261052e-02
6.2818960e-02
6.3029322e-02
5.8360639e-02
4.9958116e-02
3.8906716e-02
2.5839754e-02
1.1246234e-02
-3.7487897e-03
-1.7178051e-02
-2.7070684e-02
-3.2448333e-02
-3.3540150e-02
-3.1362097e-02
-2.7418394e-02
-2.3502190e-02
-2.1035530e-02
-2.0384217e-02
-2.0889537e-02
-2.1369283e-02
-2.0599911e-02
-1.7763163e-02
-1.2735486e-02
-5.9880488e-03
1.7581207e-03
9.8129793e-03
1.7532551e-02
2.4258159e-02
2.9441499e-02
3.2771703e-02
3.4094119e-02
3.3316965e-02
3.0628651e-02
2.6706953e-02
2.2384472e-02
1.8209291e-02
1.4498403e-02
1.1374477e-02
8.3757216e-03
4.2673686e-03
-2.4813277e-03
-1.2696383e-02
-2.5498822e-02
-3.8299927e-02
-4.8200067e-02
-5.3526411e-02
-5.4068095e-02
-5.0396618e-02
-4.3424188e-02
-3.4268421e-02
-2.3973067e-02
-1.3229440e-02
-2.4527757e-03
7.8119863e-03
1.6687440e-02
2.3422753e-02
2.7967509e-02
3.0978351e-02
3.3449718e-02
3.6391225e-02
4.0542677e-02
4.5913918e-02
5.1492448e-02
5.5398341e-02
5.5032786e-02
4.7383993e-02
3.0272014e-02
4.4900141e-03
-2.4866818e-02
-5.0441918e-02
-6.6854990e-02
-7.2604989e-02
-6.8948503e-02
-5.8310578e-02
-4.3268544e-02
-2.6123804e-02
-8.8513043e-03
6.7847090e-03
1.9070681e-02
2.6572523e-02
2.8672286e-02
2.5885218e-02
1.9778774e-02
1.2536423e-02
6.3990197e-03
3.1073150e-03
3.3992235e-03
6.7804309e-03
1.1476160e-02
1.4643948e-02
1.3306023e-02
5.7165601e-03
-7.4735016e-03
-2.2751844e-02
-3.5098731e-02
-4.0740150e-02
-3.8612494e-02
-2.9901660e-02
-1.7169180e-02
-3.4427326e-03
8.7452360e-03
1.7799343e-02
2.3007017e-02
2.4439170e-02
2.2773655e-02
1.9001380e-02
1.4274238e-02
9.8267847e-03
6.7595032e-03
5.8769796e-03
7.5823494e-03
1.1614413e-02
1.6797434e-02
2.1137941e-02
2.2316866e-02
1.8183086e-02
7.3425049e-03
-9.4406653e-03
-2.8095616e-02
-4.2861536e-02
-4.9689537e-02
-4.7692648e-02
-3.8147593e-02
-2.3192741e-02
-5.3218323e-03
1.2820090e-02
2.8973529e-02
4.1530703e-02
4.9269155e-02
5.1356188e-02
4.7599539e-02
3.8443626e-02
2.4888319e-02
8.4403106e-03
-9.0576576e-03
-2.5687247e-02
-3.9756675e-02
-5.0063321e-02
-5.5905872e-02
-5.6875164e-02
-5.2742916e-02
-4.3665818e-02
-3.0754513e-02
-1.6390225e-02
-3.3211271e-03
6.7608308e-03
1.3625077e-02
1.7975773e-02
2.0733612e-02
2.2456608e-02
2.3385249e-02
2.3934650e-02
2.4650344e-02
2.5617086e-02
2.6213397e-02
2.5459464e-02
2.2614072e-02
1.7725813e-02
1.1851884e-02
6.6612506e-03
3.5598329e-03
3.0552042e-03
4.7488802e-03
7.5006715e-03
9.4936112e-03
8.6038348e-03
3.3066801e-03
-6.2349778e-03
-1.7756276e-02
-2.8097364e-02
-3.5096189e-02
-3.8041403e-02
-3.7022218e-02
-3.2584956e-02
-2.5501689e-02
-1.6445824e-02
-6.0770133e-03
4.6018081e-03
1.4421260e-02
2.2574467e-02
2.8497998e-02
3.1404921e-02
3.0489781e-02
2.5594797e-02
1.7510234e-02
7.6254010e-03
-2.8327781e-03
-1.3082476e-02
-2.2191287e-02
-2.8749555e-02
-3.1377704e-02
-2.9300684e-02
-2.2827367e-02
-1.3781293e-02
-4.8570484e-03
2.0613214e-03
6.6069724e-03
9.2504406e-03
1.0666509e-02
1.1458812e-02
1.2064929e-02
1.2900486e-02
1.4246020e-02
1.5940836e-02
1.7504218e-02
1.8379279e-02
1.8069067e-02
1.6388967e-02
1.3550480e-02
1.0100786e-02
6.7190290e-03
3.6225602e-03
3.4480856e-04
-3.7095804e-03
-8.8367025e-03
-1.5096337e-02
-2.2220800e-02
-2.9250102e-02
-3.4587578e-02
-3.6776085e-02
-3.5317114e-02
-3.0628651e-02
-2.3386785e-02
-1.4134311e-02
-3.1966662e-03
9.2554278e-03
2.2842115e-02
3.6593587e-02
4.8875963e-02
5.7538785e-02
6.0436223e-02
5.6365102e-02
4.5646913e-02
2.9817854e-02
1.1070900e-02
-8.1562759e-03
-2.5842283e-02
-4.0748188e-02
-5.1939403e-02
-5.8427782e-02
-5.9487774e-02
-5.5072416e-02
-4.6129431e-02
-3.4724866e-02
-2.3244499e-02
-1.3119264e-02
-4.6597553e-03
2.2859605e-03
8.0030409e-03
1.2901965e-02
1.7624788e-02
2.2841167e-02
2.8522096e-02
3.3638134e-02
3.6828088e-02
3.7213833e-02
3.4667194e-02
2.9815713e-02
2.4016269e-02
1.8940798e-02
1.5835133e-02
1.5054758e-02
1.5921697e-02
1.6670984e-02
1.4785110e-02
7.8742310e-03
-5.2405204e-03
-2.3430385e-02
-4.2721312e-02
-5.7687312e-02
-6.4315910e-02
-6.1583595e-02
-5.0796537e-02
-3.4379963e-02
-1.5144411e-02
4.3401002e-03
2.2095379e-02
3.6477650e-02
4.6013923e-02
4.9627886e-02
4.6856751e-02
3.7973908e-02
2.3967142e-02
6.4700319e-03
-1.2343305e-02
-3.0026405e-02
-4.4059022e-02
-5.2223050e-02
-5.3387868e-02
-4.7968151e-02
-3.7512722e-02
-2.3909141e-02
-9.0887148e-03
4.8859802e-03
1.6266654e-02
2.4384544e-02
2.9801535e-02
3.3733247e-02
3.7104179e-02
3.9835604e-02
4.1020273e-02
3.9915147e-02
3.6895267e-02
3.3170432e-02
2.9370091e-02
2.4983912e-02
1.9314818e-02
1.2147834e-02
3.3857217e-03
-7.2648899e-03
-1.9881100e-02
-3.3547421e-02
-4.6231864e-02
-5.5632576e-02
-6.0109887e-02
-5.9052544e-02
-5.2828624e-02
-4.2785416e-02
-3.1132611e-02
-2.0058449e-02
-1.0553287e-02
-2.1419539e-03
6.4031848e-03
1.6137984e-02
2.7189394e-02
3.8344094e-02
4.7349123e-02
5.2004175e-02
5.1265216e-02
4.5381443e-02
3.5326141e-02
2.2516019e-02
8.8274391e-03
-3.7877803e-03
-1.4042054e-02
-2.1660439e-02
-2.7020834e-02
-3.0593115e-02
-3.2648663e-02
-3.3028483e-02
-3.0972031e-02
-2.5612614e-02
-1.6975824e-02
-6.3587586e-03
4.3346941e-03
1.3582988e-02
2.0759866e-02
2.5828457e-02
2.8624951e-02
2.8679760e-02
2.5666166e-02
1.9842052e-02
1.2212637e-02
4.2225488e-03
-2.8819780e-03
-8.3727696e-03
-1.1969506e-02
-1.3847283e-02
-1.4677441e-02
-1.5243830e-02
-1.5834524e-02
-1.6239812e-02
-1.6261945e-02
-1.5799175e-02
-1.4489149e-02
-1.1594549e-02
-6.3295444e-03
1.6877565e-03
1.2128590e-02
2.3657632e-02
3.3892106e-02
4.0305719e-02
4.1511093e-02
3.7483116e-02
2.8962059e-02
1.7373872e-02
4.9212752e-03
-6.2153080e-03
-1.5105353e-02
-2.2608645e-02
-3.0603481e-02
-4.0324506e-02
-5.1222351e-02
-6.0914582e-02
-6.5926788e-02
-6.3192760e-02
-5.1402912e-02
-3.1157730e-02
-4.6715224e-03
2.4325630e-02
5.1093795e-02
7.0917070e-02
8.0403464e-02
7.8696769e-02
6.7474679e-02
4.9650130e-02
2.8352048e-02
6.7512644e-03
-1.2162092e-02
-2.6189844e-02
-3.4428384e-02
-3.7254600e-02
-3.5858209e-02
-3.1790812e-02
-2.6568677e-02
-2.1158328e-02
-1.5733594e-02
-9.9170753e-03
-3.1942339e-03
4.8249469e-03
1.4216971e-02
2.4555306e-02
3.4829538e-02
4.3336985e-02
4.7784621e-02
4.5943885e-02
3.6516812e-02
2.0098874e-02
-1.5062882e-04
-1.9521990e-02
-3.4131826e-02
-4.2449411e-02
-4.5217259e-02
-4.4420664e-02
-4.1923538e-02
-3.8557818e-02
-3.4261523e-02
-2.8813524e-02
-2.2160090e-02
-1.4353347e-02
-5.7604839e-03
2.9447173e-03
1.1278834e-02
1.8975958e-02
2.5745888e-02
3.1421354e-02
3.5841379e-02
3.8413835e-02
3.8229983e-02
3.4720585e-02
2.8072623e-02
1.9174122e-02
9.5092501e-03
8.4664003e-04
-5.6753798e-03
-1.0106961e-02
-1.3172746e-02
-1.5640372e-02
-1.8023667e-02
-2.0396808e-02
-2.2415054e-02
-2.3494497e-02
-2.3099586e-02
-2.0975404e-02
-1.7142095e-02
-1.1645193e-02
-4.3674445e-03
4.5716702e-03
1.4340377e-02
2.3551846e-02
3.0595458e-02
3.3932613e-02
3.2642904e-02
2.6795004e-02
1.7387547e-02
6.2595414e-03
-4.1358982e-03
-1.1419325e-02
-1.4350346e-02
-1.3545170e-02
-1.0920294e-02
-8.4771109e-03
-7.6235693e-03
-8.8909997e-03
-1.1906032e-02
-1.5887661e-02
-2.0102457e-02
-2.3763660e-02
-2.5914259e-02
-2.5794865e-02
-2.3095300e-02
-1.7589597e-02
-8.9604487e-03
2.6647728e-03
1.6242297e-02
3.0062945e-02
4.2201233e-02
5.0713849e-02
5.4069971e-02
5.1587463e-02
4.3394825e-02
3.0358990e-02
1.4182019e-02
-2.6969357e-03
-1.7711865e-02
-2.8972302e-02
-3.5711262e-02
-3.8304560e-02
-3.7840381e-02
-3.5380387e-02
-3.1469870e-02
-2.6337904e-02
-2.0428620e-02
-1.4504029e-02
-9.2789713e-03
-5.0542118e-03
-1.5065795e-03
2.2085327e-03
6.8249909e-03
1.2435090e-02
1.8609330e-02
2.4636221e-02
2.9660881e-02
3.2897030e-02
3.3723453e-02
3.1666986e-02
2.6510943e-02
1.8610133e-02
9.1742730e-03
5.6984389e-06
-7.2776176e-03
-1.1925452e-02
-1.4343864e-02
-1.5808974e-02
-1.7635030e-02
-2.0427971e-02
-2.3813363e-02
-2.6563147e-02
-2.7167242e-02
-2.4689596e-02
-1.9300577e-02
-1.2031090e-02
-4.0520799e-03
3.7467133e-03
1.0723287e-02
1.6488594e-02
2.0912864e-02
2.3830688e-02
2.4868137e-02
2.3606568e-02
1.9856391e-02
1.4053942e-02
7.3626747e-03
1.1635215e-03
-3.5153041e-03
-6.2438646e-03
-7.3062121e-03
-7.6174815e-03
-8.1471056e-03
-9.3656307e-03
-1.1305305e-02
-1.3887039e-02
-1.7028618e-02
-2.0373870e-02
-2.3054616e-02
-2.4111789e-02
-2.2957567e-02
-1.9040892e-02
-1.1633190e-02
-5.5020931e-04
1.3092414e-02
2.7007735e-02
3.8747919e-02
4.6730399e-02
5.0239447e-02
4.8827104e-02
4.2334337e-02
3.1549256e-02
1.8459182e-02
5.5001805e-03
-5.5523330e-03
-1.4044900e-02
-2.0126992e-02
-2.4255839e-02
-2.6981982e-02
-2.8829920e-02
-3.0072184e-02
-3.0664279e-02
-3.0373035e-02
-2.8917758e-02
-2.6206111e-02
-2.2495995e-02
-1.8169747e-02
-1.3467873e-02
-8.5736316e-03
-3.7886484e-03
5.4107929e-04
4.2920686e-03
7.6932144e-03
1.1194850e-02
1.5282098e-02
2.0262545e-02
2.5896803e-02
3.1227061e-02
3.5135996e-02
3.7180881e-02
3.7549835e-02
3.6286849e-02
3.3094180e-02
2.7718233e-02
2.0035848e-02
1.0005778e-02
-2.0340571e-03
-1.5035780e-02
-2.7428999e-02
-3.7738101e-02
-4.5053947e-02
-4.9057088e-02
-4.9761934e-02
-4.7388514e-02
-4.2434965e-02
-3.5454073e-02
-2.6490394e-02
-1.5069271e-02
-1.0293971e-03
1.4722774e-02
3.0180096e-02
4.2693739e-02
4.9720561e-02
5.0073223e-02
4.4812151e-02
3.6237348e-02
2.5998829e-02
1.4682850e-02
2.7391162e-03
-8.9906214e-03
-1.9411310e-02
-2.7155925e-02
-3.0739836e-02
-2.9449991e-02
-2.3978136e-02
-1.5906295e-02
-6.8335235e-03
1.9741847e-03
9.5682116e-03
1.5277726e-02
1.8700962e-02
1.9616237e-02
1.7778532e-02
1.2908452e-02
5.2077999e-03
-3.9612538e-03
-1.2423277e-02
-1.8675128e-02
-2.2551109e-02
-2.4246920e-02
-2.3495658e-02
-2.0095478e-02
-1.4646597e-02
-8.2886254e-03
-2.0594229e-03
3.2560415e-03
6.9778007e-03
8.4940459e-03
7.5003854e-03
4.4660711e-03
9.8883532e-04
-5.5928084e-04
1.7718089e-03
8.3612228e-03
1.7852243e-02
2.7908949e-02
3.6084383e-02
4.0300144e-02
3.9190966e-02
3.2520761e-02
2.1330882e-02
7.6988688e-03
-5.7288876e-03
-1.6727932e-02
-2.4663890e-02
-3.0521933e-02
-3.5605797e-02
-4.0122022e-02
-4.2930680e-02
-4.2509686e-02
-3.7830672e-02
-2.8633505e-02
-1.5665169e-02
-8.3518544e-04
1.3199360e-02
2.3998389e-02
3.0276686e-02
3.2244033e-02
3.1225600e-02
2.8801555e-02
2.5907640e-02
2.2503540e-02
1.8024119e-02
1.2129430e-02
5.3219964e-03
-9.1707084e-04
-5.0311741e-03
-6.9278575e-03
-8.4577588e-03
-1.1938587e-02
-1.8059780e-02
-2.5118183e-02
-3.0046239e-02
-3.0433648e-02
-2.6276452e-02
-1.9943157e-02
-1.3968498e-02
-8.8050318e-03
-3.0699858e-03
4.3229134e-03
1.2689456e-02
1.9817635e-02
2.3404619e-02
2.2569433e-02
1.8316508e-02
1.2731566e-02
7.7583569e-03
4.6033844e-03
3.9468052e-03
6.0748049e-03
1.0250436e-02
1.4195657e-02
1.5016026e-02
1.1179334e-02
3.6804570e-03
-4.7330816e-03
-1.1419895e-02
-1.5169605e-02
-1.6180486e-02
-1.5205882e-02
-1.2974428e-02
-1.0030643e-02
-6.7111843e-03
-3.2881309e-03
7.0387088e-05
3.4996474e-03
7.1005326e-03
1.0374701e-02
1.2454394e-02
1.2773569e-02
1.1225938e-02
8.0135735e-03
3.6488913e-03
-1.0408369e-03
-5.2775875e-03
-8.8175745e-03
-1.1769122e-02
-1.4136770e-02
-1.5946475e-02
-1.7335234e-02
-1.8126970e-02
-1.7758271e-02
-1.5881167e-02
-1.2788168e-02
-9.0952142e-03
-5.2033006e-03
-1.2580038e-03
2.6771679e-03
6.6893286e-03
1.0832499e-02
1.4791795e-02
1.8213999e-02
2.1066770e-02
2.3316978e-02
2.4814929e-02
2.5594203e-02
2.5713093e-02
2.4796514e-02
2.2022667e-02
1.6496528e-02
7.7700619e-03
-3.4886805e-03
-1.5225947e-02
-2.4894190e-02
-3.0856925e-02
-3.2877055e-02
-3.1633902e-02
-2.8075245e-02
-2.2967272e-02
-1.6687667e-02
-9.4170531e-03
-1.6477775e-03
5.6810120e-03
1.1596901e-02
1.5573928e-02
1.7702192e-02
1.8247201e-02
1.7071179e-02
1.3809281e-02
8.6370975e-03
2.6098151e-03
-3.0201443e-03
-7.7370945e-03
-1.1701224e-02
-1.4906447e-02
-1.6819890e-02
-1.6793921e-02
-1.4444563e-02
-9.7127248e-03
-3.0103426e-03
4.6474069e-03
1.1956706e-02
1.7978739e-02
2.2385329e-02
2.4906203e-02
2.4868765e-02
2.1713877e-02
1.5742446e-02
8.0688282e-03
9.5467665e-05
-7.0144208e-03
-1.2717585e-02
-1.7030659e-02
-2.0199476e-02
-2.2434636e-02
-2.3722633e-02
-2.3753441e-02
-2.2000971e-02
-1.7934516e-02
-1.1368316e-02
-2.7114341e-03
6.9927858e-03
1.6136498e-02
2.3074390e-02
2.6914225e-02
2.7719650e-02
2.6084364e-02
2.2497379e-02
1.7003355e-02
9.5388813e-03
4.4616940e-04
-9.3263227e-03
-1.8381784e-02
-2.5394745e-02
-2.9451387e-02
-3.0034266e-02
-2.7139049e-02
-2.1237960e-02
-1.2918508e-02
-2.9124465e-03
7.5359922e-03
1.6819234e-02
2.3582172e-02
2.7004146e-02
2.6669105e-02
2.2553668e-02
1.5339500e-02
6.7226008e-03
-1.0487554e-03
-6.3247205e-03
-8.5205123e-03
-7.7395773e-03
-4.7475607e-03
-1.1055327e-03
1.5456348e-03
2.6006923e-03
2.6641298e-03
2.5410505e-03
2.3685570e-03
1.7744005e-03
3.4410693e-04
-2.2420001e-03
-6.1325272e-03
-1.1074325e-02
-1.6246897e-02
-2.0416959e-02
-2.2492595e-02
-2.2116256e-02
-1.9547979e-02
-1.5062279e-02
-8.9057995e-03
-1.6695044e-03
5.7763412e-03
1.2728966e-02
1.8899469e-02
2.4173606e-02
2.8193829e-02
3.0321586e-02
3.0049095e-02
2.7449098e-02
2.3168373e-02
1.7797724e-02
1.1394865e-02
3.9656147e-03
-3.9586100e-03
-1.1648033e-02
-1.8560529e-02
-2.4085506e-02
-2.7542171e-02
-2.8875037e-02
-2.8936259e-02
-2.8686918e-02
-2.8316606e-02
-2.7145037e-02
-2.4042764e-02
-1.8052399e-02
-8.9725893e-03
2.4481635e-03
1.4783269e-02
2.6454370e-02
3.6079886e-02
4.2524488e-02
4.5003106e-02
4.3300486e-02
3.7923055e-02
3.0026204e-02
2.1110951e-02
1.2561238e-02
5.0680782e-03
-1.5690049e-03
-7.9599436e-03
-1.4489660e-02
-2.1080234e-02
-2.7375521e-02
-3.3038783e-02
-3.7809788e-02
-4.1211514e-02
-4.2306551e-02
-4.0045816e-02
-3.3951663e-02
-2.4271551e-02
-1.1727332e-02
2.2906819e-03
1.5614893e-02
2.6103069e-02
3.2574152e-02
3.5009968e-02
3.4063718e-02
3.0425587e-02
2.4700264e-02
1.7604613e-02
9.8349894e-03
1.8994697e-03
-5.5249706e-03
-1.1446421e-02
-1.5155320e-02
-1.6595496e-02
-1.6173689e-02
-1.4488698e-02
-1.1947885e-02
-8.5652860e-03
-4.3112577e-03
4.3767385e-04
4.9575418e-03
8.7345098e-03
1.1781271e-02
1.4347082e-02
1.6565916e-02
1.8324572e-02
1.9199038e-02
1.8803739e-02
1.7581209e-02
1.6807664e-02
1.7241676e-02
1.7757664e-02
1.5602043e-02
8.4078023e-03
-3.7681999e-03
-1.8244575e-02
-3.1272774e-02
-3.9866241e-02
-4.2752619e-02
-4.0458352e-02
-3.4939168e-02
-2.8598814e-02
-2.3098220e-02
-1.8944511e-02
-1.5704719e-02
-1.2357096e-02
-7.8993246e-03
-2.0555717e-03
4.4779362e-03
1.0557482e-02
1.5434880e-02
1.9100349e-02
2.1990631e-02
2.4636458e-02
2.7435266e-02
3.0310239e-02
3.2480504e-02
3.2730664e-02
3.0110666e-02
2.4528721e-02
1.6832824e-02
8.4250021e-03
5.9941070e-04
-5.8875621e-03
-1.0826644e-02
-1.4530517e-02
-1.7658721e-02
-2.0677137e-02
-2.3445006e-02
-2.5422214e-02
-2.6189134e-02
-2.5622934e-02
-2.3716854e-02
-2.0514493e-02
-1.6154288e-02
-1.0735130e-02
-4.3293350e-03
2.6423129e-03
9.3779901e-03
1.5218436e-02
1.9905447e-02
2.3290280e-02
2.5039450e-02
2.4763929e-02
2.2522685e-02
1.9002029e-02
1.4837853e-02
1.0003885e-02
4.2694983e-03
-2.1100879e-03
-8.5411504e-03
-1.4512573e-02
-1.9569064e-02
-2.3311483e-02
-2.5663762e-02
-2.6701446e-02
-2.6057051e-02
-2.2802182e-02
-1.6184151e-02
-6.5985820e-03
4.4529635e-03
1.5374209e-02
2.4850732e-02
3.1546890e-02
3.4393132e-02
3.3221951e-02
2.8729814e-02
2.1852751e-02
1.3508732e-02
4.8871282e-03
-2.7092501e-03
-8.5060834e-03
-1.2289055e-02
-1.4141315e-02
-1.4598329e-02
-1.4457105e-02
-1.4231232e-02
-1.4082107e-02
-1.4060610e-02
-1.4346994e-02
-1.5057823e-02
-1.5581314e-02
-1.4632783e-02
-1.1157741e-02
-5.0234020e-03
2.8191874e-03
1.0691056e-02
1.6792905e-02
1.9630637e-02
1.8454458e-02
1.3744641e-02
7.1107676e-03
3.7342240e-04
-5.3039971e-03
-9.4358070e-03
-1.1942481e-02
-1.3141064e-02
-1.3614324e-02
-1.3793284e-02
-1.3456163e-02
-1.1457431e-02
-6.2068067e-03
3.1173577e-03
1.5656394e-02
2.9007882e-02
3.9883536e-02
4.4927647e-02
4.1981315e-02
3.1452828e-02
1.6735675e-02
2.6453091e-03
-7.2997779e-03
-1.2091095e-02
-1.2466695e-02
-1.0015878e-02
-6.7127264e-03
-4.5362046e-03
-5.1266339e-03
-9.1855942e-03
-1.5869387e-02
-2.3088948e-02
-2.8594257e-02
-3.0886432e-02
-2.9734025e-02
-2.6209027e-02
-2.1725013e-02
-1.6772212e-02
-1.0865344e-02
-3.5415749e-03
5.0389880e-03
1.4311388e-02
2.3477366e-02
3.1360277e-02
3.6680680e-02
3.8562869e-02
3.6493653e-02
3.0322513e-02
2.0682267e-02
9.0236368e-03
-2.7055563e-03
-1.2533172e-02
-1.9272607e-02
-2.2863591e-02
-2.3865154e-02
-2.3026984e-02
-2.1179450e-02
-1.8897802e-02
-1.6225908e-02
-1.3051892e-02
-9.5695883e-03
-6.0732003e-03
-2.5495184e-03
1.2357860e-03
5.2936531e-03
9.3087613e-03
1.3015341e-02
1.6162668e-02
1.8141272e-02
1.8382934e-02
1.7027460e-02
1.4691418e-02
1.1906325e-02
9.0938040e-03
6.7853930e-03
5.4564222e-03
4.9573735e-03
4.4862243e-03
3.3143623e-03
1.1662490e-03
-1.9924015e-03
-6.2070628e-03
-1.1453131e-02
-1.7086935e-02
-2.1629921e-02
-2.3737660e-02
-2.3266348e-02
-2.0832733e-02
-1.6745276e-02
-1.0979541e-02
-3.7088682e-03
4.5434455e-03
1.2962315e-02
2.0535959e-02
2.6139829e-02
2.8666837e-02
2.7391497e-02
2.2314368e-02
1.4238356e-02
4.6402560e-03
-4.6537947e-03
-1.1972370e-02
-1.6342576e-02
-1.7738018e-02
-1.6834748e-02
-1.4555195e-02
-1.1809135e-02
-9.4269246e-03
-7.9091201e-03
-7.2594658e-03
-7.3234068e-03
-7.9366925e-03
-8.7224441e-03
-9.2335858e-03
-9.0332775e-03
-7.4791034e-03
-3.9231615e-03
1.9580241e-03
1.0254276e-02
2.0463105e-02
3.0524779e-02
3.7201873e-02
3.8098468e-02
3.2970918e-02
2.3531581e-02
1.2575951e-02
2.6072094e-03
-5.4012757e-03
-1.1857542e-02
-1.7330250e-02
-2.1904627e-02
-2.5481120e-02
-2.7933830e-02
-2.8892717e-02
-2.7890395e-02
-2.4883481e-02
-2.0344640e-02
-1.4682238e-02
-7.7834002e-03
6.8696210e-04
1.0631527e-02
2.1215611e-02
3.1078394e-02
3.8651191e-02
4.2416634e-02
4.1481501e-02
3.6077800e-02
2.7173083e-02
1.5947358e-02
3.9996932e-03
-6.8190062e-03
-1.5398116e-02
-2.1737753e-02
-2.6461327e-02
-3.0444606e-02
-3.4357847e-02
-3.8002185e-02
-4.0270257e-02
-3.9850558e-02
-3.5974095e-02
-2.8713625e-02
-1.8889956e-02
-7.6787197e-03
3.8617007e-03
1.4927743e-02
2.4927501e-02
3.3367966e-02
3.9468406e-02
4.1956924e-02
3.9807182e-02
3.3413777e-02
2.4585488e-02
1.5300245e-02
6.9342655e-03
4.9879227e-04
-3.0482712e-03
-2.9581255e-03
8.8684666e-04
7.7283880e-03
1.6003723e-02
2.3407962e-02
2.6969879e-02
2.3669112e-02
1.1765389e-02
-7.7304108e-03
-3.0630349e-02
-5.1214226e-02
-6.4903696e-02
-6.9632238e-02
-6.5623392e-02
-5.4584248e-02
-3.8689398e-02
-1.9858352e-02
1.9348035e-04
1.9232835e-02
3.4176554e-02
4.2463440e-02
4.3764006e-02
3.9680788e-02
3.2354571e-02
2.3645899e-02
1.4875618e-02
7.0847051e-03
1.2974954e-03
-2.0190920e-03
-3.4823578e-03
-4.2735037e-03
-5.3292626e-03
-7.1298385e-03
-9.7654811e-03
-1.3014569e-02
-1.6404049e-02
-1.9153302e-02
-2.0286074e-02
-1.8951945e-02
-1.4627295e-02
-7.2484366e-03
2.6138283e-03
1.3732958e-02
2.4404082e-02
3.2738589e-02
3.7295350e-02
3.7692720e-02
3.4379900e-02
2.8189012e-02
2.0429388e-02
1.2560121e-02
5.0948276e-03
-2.8464533e-03
-1.2576236e-02
-2.4437870e-02
-3.7087915e-02
-4.7880069e-02
-5.4133162e-02
-5.4151119e-02
-4.7425753e-02
-3.4598660e-02
-1.7373037e-02
1.7425381e-03
2.0034389e-02
3.5496910e-02
4.7114140e-02
5.4122247e-02
5.5550376e-02
5.0866624e-02
4.0792870e-02
2.7249520e-02
1.2480527e-02
-1.9063348e-03
-1.5268750e-02
-2.7365570e-02
-3.7504564e-02
-4.4452764e-02
-4.7204186e-02
-4.5620764e-02
-4.0405401e-02
-3.2840057e-02
-2.4468440e-02
-1.6487675e-02
-9.1496177e-03
-1.8494327e-03
6.0467355e-03
1.4550391e-02
2.3045346e-02
3.0547586e-02
3.6112698e-02
3.9058578e-02
3.8889425e-02
3.5465196e-02
2.9257006e-02
2.1426458e-02
1.3613876e-02
7.1099455e-03
2.1936490e-03
-1.4661674e-03
-4.0672261e-03
-5.5305705e-03
-5.8885585e-03
-5.6277237e-03
-5.4728370e-03
-5.8449867e-03
-6.7745013e-03
-8.3220313e-03
-1.0769395e-02
-1.4305176e-02
-1.8758942e-02
-2.3687973e-02
-2.8492931e-02
-3.2335654e-02
-3.4098629e-02
-3.2750686e-02
-2.7793953e-02
-1.9220885e-02
-7.3834328e-03
6.5207229e-03
2.0044788e-02
3.0541965e-02
3.6785894e-02
3.9128626e-02
3.8492245e-02
3.5589954e-02
3.0735628e-02
2.4100040e-02
1.6008481e-02
6.9584953e-03
-2.3416302e-03
-1.0823475e-02
-1.7241304e-02
-2.0743614e-02
-2.1299694e-02
-1.9590195e-02
-1.6483455e-02
-1.2680907e-02
-8.8249920e-03
-5.4301961e-03
-2.4719186e-03
5.7172047e-04
4.0268766e-03
7.4150234e-03
9.6797449e-03
1.0057752e-02
8.5816681e-03
5.8722416e-03
2.7653019e-03
-3.2072890e-05
-2.2444392e-03
-3.9884083e-03
-5.4739473e-03
-6.7519801e-03
-7.5589749e-03
-7.4251105e-03
-6.0967234e-03
-3.7945982e-03
-1.0166592e-03
1.7232995e-03
3.9555345e-03
5.3742664e-03
6.0841023e-03
6.6075405e-03
7.4679115e-03
8.7310104e-03
9.8845292e-03
1.0050425e-02
8.5139908e-03
5.1917941e-03
5.2831430e-04
-4.7355942e-03
-9.5797799e-03
-1.3089521e-02
-1.4992851e-02
-1.5536864e-02
-1.5028860e-02
-1.3745546e-02
-1.2119403e-02
-1.0686757e-02
-9.7534428e-03
-9.2137813e-03
-8.5394664e-03
-6.7829308e-03
-2.8885128e-03
3.6295021e-03
1.2333499e-02
2.2143876e-02
3.1718689e-02
3.9728503e-02
4.4984554e-02
4.6334290e-02
4.2799134e-02
3.4028573e-02
2.0690659e-02
4.7213422e-03
-1.1242539e-02
-2.5320549e-02
-3.7001820e-02
-4.6352987e-02
-5.3176500e-02
-5.6841358e-02
-5.6570630e-02
-5.1831115e-02
-4.2448577e-02
-2.8532137e-02
-1.0695842e-02
9.4280095e-03
2.8967487e-02
4.4484665e-02
5.3376418e-02
5.4794161e-02
4.9441191e-02
3.8917193e-02
2.5163934e-02
1.0093840e-02
-4.6309155e-03
-1.7717025e-02
-2.8032431e-02
-3.4333350e-02
-3.5519238e-02
-3.1113751e-02
-2.1436647e-02
-7.4915288e-03
9.1186021e-03
2.6109134e-02
4.0587200e-02
4.9596049e-02
5.0988353e-02
4.4141374e-02
3.0198893e-02
1.1923507e-02
-6.9038792e-03
-2.2647425e-02
-3.3010041e-02
-3.7558300e-02
-3.7532389e-02
-3.5279807e-02
-3.3366184e-02
-3.3339721e-02
-3.4714907e-02
-3.5022781e-02
-3.1039795e-02
-2.0442882e-02
-3.3998927e-03
1.6519305e-02
3.3632469e-02
4.3305741e-02
4.4003266e-02
3.6888921e-02
2.4638946e-02
1.0730300e-02
-1.2397624e-03
-8.5595974e-03
-1.0315616e-02
-7.6527422e-03
-3.0546829e-03
1.2223762e-03
4.5240129e-03
7.8268884e-03
1.2620114e-02
1.9298693e-02
2.5935142e-02
2.8834848e-02
2.4784859e-02
1.3222270e-02
-3.2120000e-03
-2.0019552e-02
-3.2955798e-02
-3.9512211e-02
-3.9280487e-02
-3.3572075e-02
-2.5030334e-02
-1.6979564e-02
-1.1646851e-02
-8.6046921e-03
-5.6576300e-03
-1.2223413e-03
4.3612189e-03
9.3466762e-03
1.2286225e-02
1.3389720e-02
1.4115982e-02
1.5742051e-02
1.8468796e-02
2.1497838e-02
2.3788964e-02
2.4761449e-02
2.4324860e-02
2.2307873e-02
1.7961416e-02
1.0471720e-02
6.9760044e-05
-1.1822881e-02
-2.3207139e-02
-3.1886715e-02
-3.6164503e-02
-3.5615016e-02
-3.0914114e-02
-2.3302289e-02
-1.4231356e-02
-4.9477873e-03
3.6824522e-03
1.0924091e-02
1.6056580e-02
1.8482612e-02
1.7874405e-02
1.4552849e-02
9.5815767e-03
4.1783632e-03
-6.8623859e-04
-4.2457432e-03
-6.1159593e-03
-6.4738477e-03
-5.8277489e-03
-4.7446222e-03
-3.5737267e-03
-2.1610390e-03
-8.8352368e-05
2.7072651e-03
5.7116759e-03
8.1307474e-03
9.3192252e-03
9.0489192e-03
7.3927331e-03
4.4707659e-03
6.6547434e-04
-3.0549297e-03
-5.5741846e-03
-6.3550391e-03
-5.6833816e-03
-4.6050059e-03
-4.3307688e-03
-5.2424224e-03
-6.7710281e-03
-8.0115354e-03
-8.0663260e-03
-6.3730092e-03
-3.0019278e-03
1.5479457e-03
6.5853645e-03
1.1134940e-02
1.4154233e-02
1.5177247e-02
1.4416580e-02
1.2255046e-02
8.9398168e-03
4.6127965e-03
-5.3212193e-04
-5.9860899e-03
-1.0734403e-02
-1.3623574e-02
-1.4071055e-02
-1.2247598e-02
-8.7102841e-03
-4.0964711e-03
9.9135861e-04
6.0607974e-03
1.0533568e-02
1.3472037e-02
1.3911094e-02
1.1515026e-02
6.8528157e-03
1.1470396e-03
-4.3366625e-03
-8.7287586e-03
-1.1513338e-02
-1.2609375e-02
-1.2659292e-02
-1.2669995e-02
-1.3211349e-02
-1.4054404e-02
-1.4391200e-02
-1.3354196e-02
-1.0399045e-02
-5.4750082e-03
9.3040014e-04
8.0480509e-03
1.5081227e-02
2.1220708e-02
2.5698408e-02
2.7930327e-02
2.7728679e-02
2.5376885e-02
2.1328175e-02
1.6032000e-02
1.0093619e-02
4.1056134e-03
-1.8598810e-03
-8.3011066e-03
-1.5662880e-02
-2.3652331e-02
-3.1040580e-02
-3.6095014e-02
-3.7445376e-02
-3.4722984e-02
-2.8475637e-02
-1.9739939e-02
-9.7688190e-03
2.1994927e-04
9.3501641e-03
1.7311432e-02
2.4316056e-02
3.0534708e-02
3.5560225e-02
3.8542932e-02
3.8523517e-02
3.4788217e-02
2.7401375e-02
1.7240035e-02
5.5644631e-03
-6.2170269e-03
-1.6749978e-02
-2.5010934e-02
-3.0519815e-02
-3.3369640e-02
-3.3912808e-02
-3.2415108e-02
-2.9064729e-02
-2.3998189e-02
-1.7096251e-02
-8.1298080e-03
2.7743526e-03
1.5045958e-02
2.7821498e-02
4.0006709e-02
5.0186964e-02
5.6239984e-02
5.5404767e-02
4.5401588e-02
2.5636772e-02
-2.0936650e-03
-3.3465832e-02
-6.2615788e-02
-8.3964043e-02
-9.3673034e-02
-9.0324668e-02
-7.5333783e-02
-5.2729836e-02
-2.7562053e-02
-4.0607711e-03
1.5102503e-02
2.8710365e-02
3.6661572e-02
3.9983860e-02
4.0983452e-02
4.2455569e-02
4.6462557e-02
5.3955879e-02
6.4691050e-02
7.6703617e-02
8.6137869e-02
8.8079713e-02
7.8180978e-02
5.4677882e-02
1.9986670e-02
-1.9379476e-02
-5.5340083e-02
-8.1946382e-02
-9.7158223e-02
-1.0179180e-01
-9.7904760e-02
-8.7807709e-02
-7.3269500e-02
-5.5303773e-02
-3.4935433e-02
-1.4149047e-02
4.1582810e-03
1.7933924e-02
2.8116493e-02
3.7905354e-02
4.9193439e-02
6.0107219e-02
6.5650611e-02
6.0983993e-02
4.5402195e-02
2.3387604e-02
1.6208742e-03
-1.4887674e-02
-2.4342483e-02
-2.7314883e-02
-2.5388348e-02
-2.0485192e-02
-1.4712467e-02
-1.0065638e-02
-7.7889428e-03
-8.0465697e-03
-1.0300215e-02
-1.3697055e-02
-1.7080308e-02
-1.9265778e-02
-1.9668229e-02
-1.8414020e-02
-1.5527434e-02
-1.0019140e-02
-3.2673711e-04
1.3996178e-02
3.1235556e-02
4.7970773e-02
6.0345798e-02
6.5506513e-02
6.2564414e-02
5.2438495e-02
3.6900152e-02
1.7896835e-02
-2.4703035e-03
-2.1949758e-02
-3.8558215e-02
-5.0938944e-02
-5.8392998e-02
-6.1016269e-02
-5.9824421e-02
-5.6296207e-02
-5.1352200e-02
-4.4402963e-02
-3.3520514e-02
-1.7289042e-02
3.0967805e-03
2.3891002e-02
4.1366268e-02
5.4369798e-02
6.4024591e-02
7.1277849e-02
7.5707539e-02
7.6365082e-02
7.2598680e-02
6.3811387e-02
4.8961952e-02
2.6949519e-02
-2.1321906e-03
-3.5795542e-02
-6.8857842e-02
-9.4897622e-02
-1.0917677e-01
-1.1059112e-01
-1.0115093e-01
-8.4139796e-02
-6.2373847e-02
-3.7537547e-02
-1.1148032e-02
1.4313576e-02
3.6048780e-02
5.2297617e-02
6.2325157e-02
6.5596709e-02
6.1874302e-02
5.2433407e-02
4.0530882e-02
2.9685599e-02
2.1509168e-02
1.5500879e-02
1.0579877e-02
6.4738462e-03
3.8988901e-03
3.8013842e-03
6.1082753e-03
8.7818057e-03
8.4173437e-03
2.3589451e-03
-9.5294489e-03
-2.4966241e-02
-4.0408931e-02
-5.1848494e-02
-5.5423567e-02
-4.8669834e-02
-3.2163018e-02
-1.0044468e-02
1.1600853e-02
2.7468318e-02
3.4985190e-02
3.4762313e-02
2.9505107e-02
2.1916333e-02
1.3607163e-02
5.8367690e-03
1.6497742e-05
-3.1386577e-03
-4.2119768e-03
-4.4246728e-03
-4.9521345e-03
-6.9638987e-03
-1.1285802e-02
-1.7545876e-02
-2.4081355e-02
-2.8818943e-02
-3.0392502e-02
-2.8615489e-02
-2.3998564e-02
-1.7281298e-02
-9.3960275e-03
-1.3069678e-03
6.1533382e-03
1.2272377e-02
1.6706820e-02
1.9830169e-02
2.2520201e-02
2.5530223e-02
2.9044177e-02
3.2574186e-02
3.5106934e-02
3.5337412e-02
3.1813540e-02
2.3220070e-02
9.1901590e-03
-8.6109688e-03
-2.5999867e-02
-3.7278010e-02
-3.7878984e-02
-2.7213785e-02
-9.4799303e-03
8.2955511e-03
1.9631973e-02
2.1489509e-02
1.5369441e-02
5.9985184e-03
-1.7058996e-03
-5.1638634e-03
-4.5828162e-03
-1.8455733e-03
9.2894037e-04
2.3484032e-03
1.8948205e-03
-4.1554603e-04
-4.2138690e-03
-8.8612460e-03
-1.3637370e-02
-1.7796338e-02
-2.0692537e-02
-2.1905269e-02
-2.1017670e-02
-1.7620140e-02
-1.1746694e-02
-4.2978658e-03
2.9562794e-03
8.1783457e-03
1.0429358e-02
9.7825520e-03
6.8468771e-03
2.5215774e-03
-2.0503722e-03
-5.7756097e-03
-7.9595508e-03
-8.3479704e-03
-6.8472814e-03
-3.4298114e-03
1.3756235e-03
6.4181369e-03
1.0745928e-02
1.4035967e-02
1.6395059e-02
1.7980261e-02
1.8443511e-02
1.7000037e-02
1.3175638e-02
7.1862817e-03
-1.4532746e-04
-7.6267459e-03
-1.3915223e-02
-1.7743486e-02
-1.8297482e-02
-1.5266626e-02
-8.5578559e-03
1.6272241e-03
1.4314090e-02
2.7476356e-02
3.8425205e-02
4.4590515e-02
4.4139218e-02
3.6442288e-02
2.2624711e-02
5.7590275e-03
-1.0322434e-02
-2.2973657e-02
-3.1320118e-02
-3.5625266e-02
-3.6887346e-02
-3.6365529e-02
-3.4865679e-02
-3.2655533e-02
-2.9821269e-02
-2.6280750e-02
-2.1674647e-02
-1.5657114e-02
-8.3970000e-03
-6.6773415e-04
6.6640050e-03
1.3127764e-02
1.8475400e-02
2.2209637e-02
2.3720169e-02
2.2788734e-02
1.9559481e-02
1.4276990e-02
7.4518081e-03
5.8337902e-05
-6.7123184e-03
-1.1825223e-02
-1.4466460e-02
-1.3908009e-02
-9.7785908e-03
-2.6109175e-03
6.3645282e-03
1.5674787e-02
2.3246508e-02
2.6581326e-02
2.4506130e-02
1.8535070e-02
1.1982034e-02
7.7107536e-03
6.6511804e-03
7.8737659e-03
9.4830679e-03
9.5858670e-03
7.0028498e-03
1.6423352e-03
-5.4959161e-03
-1.2821003e-02
-1.8880752e-02
-2.2739822e-02
-2.4046843e-02
-2.3397269e-02
-2.2544672e-02
-2.3244977e-02
-2.5629710e-02
-2.8064275e-02
-2.8248743e-02
-2.4381883e-02
-1.6057705e-02
-4.5052586e-03
8.1482897e-03
1.9763061e-02
2.8524552e-02
3.3178616e-02
3.3283040e-02
2.9276782e-02
2.2436877e-02
1.4481991e-02
6.8817643e-03
5.8741582e-04
-3.6984431e-03
-5.4255700e-03
-4.5359873e-03
-1.7226565e-03
1.8186387e-03
4.9935064e-03
7.1538956e-03
7.8893684e-03
6.8334087e-03
3.9183947e-03
-2.9275413e-04
-4.7148101e-03
-8.2484651e-03
-1.0140177e-02
-1.0028670e-02
-7.9757660e-03
-4.3984388e-03
1.0299391e-04
4.6968049e-03
8.2530831e-03
9.6116237e-03
8.1932196e-03
4.3407901e-03
-1.2401577e-03
-7.9571031e-03
-1.5051056e-02
-2.1496238e-02
-2.6222252e-02
-2.8312511e-02
-2.7319190e-02
-2.3700395e-02
-1.9043166e-02
-1.5279370e-02
-1.3077421e-02
-1.1092829e-02
-6.9360636e-03
1.0885129e-03
1.2857132e-02
2.6518351e-02
3.9593324e-02
5.0284315e-02
5.8058898e-02
6.3266542e-02
6.6206400e-02
6.6351216e-02
6.2231803e-02
5.1849485e-02
3.3512758e-02
7.1177971e-03
-2.4891207e-02
-5.7606976e-02
-8.4618922e-02
-1.0002355e-01
-1.0117537e-01
-8.9926747e-02
-7.1209158e-02
-5.0576014e-02
-3.2167248e-02
-1.7615393e-02
-6.3289981e-03
3.2616950e-03
1.2447552e-02
2.1628820e-02
3.0501923e-02
3.8369735e-02
4.4116108e-02
4.6247331e-02
4.3450288e-02
3.5690060e-02
2.4972184e-02
1.4783592e-02
8.4617649e-03
7.6690943e-03
1.1948213e-02
1.9174743e-02
2.6273134e-02
3.0223937e-02
2.9102735e-02
2.2324920e-02
1.0338934e-02
-5.1335551e-03
-2.0819321e-02
-3.3315120e-02
-4.1184529e-02
-4.4993018e-02
-4.5893019e-02
-4.4980253e-02
-4.3252920e-02
-4.1112070e-02
-3.7785691e-02
-3.1654644e-02
-2.1428141e-02
-7.2333211e-03
9.0137112e-03
2.4010091e-02
3.4321563e-02
3.8117456e-02
3.6256141e-02
3.1910593e-02
2.8642756e-02
2.8118873e-02
2.9552051e-02
3.0958610e-02
3.0490073e-02
2.7060219e-02
2.0370234e-02
1.0697502e-02
-1.1217325e-03
-1.3803100e-02
-2.6033603e-02
-3.6662663e-02
-4.4546952e-02
-4.8500655e-02
-4.7551131e-02
-4.1504150e-02
-3.1420888e-02
-1.9288460e-02
-7.0812328e-03
3.7435768e-03
1.2173505e-02
1.7764209e-02
2.0880525e-02
2.2380055e-02
2.2915091e-02
2.2563042e-02
2.1120536e-02
1.8602926e-02
1.5306577e-02
1.1699111e-02
8.4284967e-03
5.9715220e-03
4.0436047e-03
1.7431823e-03
-1.5309774e-03
-5.3570067e-03
-8.3159451e-03
-8.9646461e-03
-7.0515839e-03
-3.4633123e-03
6.1029477e-04
3.8656168e-03
5.0611487e-03
3.5497834e-03
-7.0971214e-04
-7.3196378e-03
-1.5314235e-02
-2.3261603e-02
-2.9429624e-02
-3.1779501e-02
-2.8598071e-02
-1.9701627e-02
-6.8016047e-03
7.3384548e-03
2.0076226e-02
2.9765016e-02
3.5952329e-02
3.8861772e-02
3.8703857e-02
3.5340101e-02
2.8488606e-02
1.8239740e-02
5.2496940e-03
-9.4953614e-03
-2.4729016e-02
-3.8854783e-02
-5.0176915e-02
-5.7145250e-02
-5.8649834e-02
-5.4172362e-02
-4.3536357e-02
-2.7132356e-02
-6.5217959e-03
1.5827175e-02
3.7269377e-02
5.5274377e-02
6.7747915e-02
7.3333058e-02
7.1071221e-02
6.0429931e-02
4.2404503e-02
2.0128563e-02
-2.0175988e-03
-1.9851521e-02
-3.0516962e-02
-3.3269291e-02
-2.9720929e-02
-2.3247330e-02
-1.7786607e-02
-1.6200725e-02
-1.8736326e-02
-2.3047798e-02
-2.6037359e-02
-2.5673533e-02
-2.1433388e-02
-1.4051200e-02
-5.2116157e-03
3.2353592e-03
1.0150907e-02
1.5264229e-02
1.8839572e-02
2.1235495e-02
2.2353641e-02
2.1379336e-02
1.7280715e-02
9.6840631e-03
-4.8331574e-04
-1.0935686e-02
-1.8883217e-02
-2.2333898e-02
-2.0840419e-02
-1.5452588e-02
-8.1345883e-03
-8.9930361e-04
4.9605130e-03
9.1049194e-03
1.1712060e-02
1.2868289e-02
1.2491235e-02
1.0786697e-02
8.2936972e-03
5.2528690e-03
1.4810279e-03
-2.8915155e-03
-7.0423625e-03
-1.0043527e-02
-1.1522913e-02
-1.1619922e-02
-1.0582560e-02
-8.3521710e-03
-4.3441937e-03
1.8981145e-03
9.6613539e-03
1.7195324e-02
2.2766033e-02
2.5263223e-02
2.4372662e-02
2.0547508e-02
1.4608465e-02
7.3836693e-03
-3.2168403e-04
-7.6093986e-03
-1.3473799e-02
-1.7068918e-02
-1.8074751e-02
-1.6730251e-02
-1.3475880e-02
-8.8969490e-03
-4.1714338e-03
-9.5572381e-04
-3.5912553e-04
-2.1647683e-03
-5.2065438e-03
-8.4432021e-03
-1.1563750e-02
-1.4641990e-02
-1.7294134e-02
-1.8245587e-02
-1.5972873e-02
-9.9812413e-03
-1.5044917e-03
7.0410168e-03
1.3276695e-02
1.5842766e-02
1.4645118e-02
1.0350357e-02
4.1005026e-03
-2.0535331e-03
-5.3784488e-03
-3.8921381e-03
2.5935804e-03
1.2728029e-02
2.4278956e-02
3.4488134e-02
4.0665314e-02
4.1258932e-02
3.6418167e-02
2.7475486e-02
1.5986759e-02
3.1311190e-03
-1.0224479e-02
-2.2901384e-02
-3.2893792e-02
-3.8184446e-02
-3.8385715e-02
-3.4912155e-02
-2.9704743e-02
-2.4396066e-02
-2.0037285e-02
-1.6723314e-02
-1.3690767e-02
-1.0094468e-02
-5.5548341e-03
-2.3108671e-04
5.3889387e-03
1.0835358e-02
1.5658515e-02
1.9228133e-02
2.0958243e-02
2.0892604e-02
1.9802618e-02
1.8449663e-02
1.6950006e-02
1.4867709e-02
1.1564322e-02
6.5974279e-03
2.7767917e-04
-6.2573904e-03
-1.1881124e-02
-1.6257143e-02
-1.9680973e-02
-2.2341800e-02
-2.3804793e-02
-2.3220188e-02
-1.9975157e-02
-1.3961771e-02
-5.3732289e-03
5.1366180e-03
1.5963305e-02
2.4986673e-02
3.0735752e-02
3.2700599e-02
3.0857572e-02
2.5368470e-02
1.6632513e-02
5.7013496e-03
-5.5456326e-03
-1.5117689e-02
-2.1766114e-02
-2.5040288e-02
-2.4892194e-02
-2.1693944e-02
-1.6522911e-02
-1.0851019e-02
-5.8183149e-03
-1.9441307e-03
8.5825979e-04
3.3183732e-03
6.4786645e-03
1.0971462e-02
1.6524383e-02
2.2024992e-02
2.6086866e-02
2.7561103e-02
2.5512930e-02
1.9312925e-02
9.2442569e-03
-3.2196627e-03
-1.5812978e-02
-2.6122955e-02
-3.2319823e-02
-3.3640870e-02
-3.0324654e-02
-2.3414790e-02
-1.4630751e-02
-5.9870216e-03
7.7012563e-04
4.5816761e-03
5.2863365e-03
3.6647871e-03
1.1874444e-03
-6.5998565e-04
-1.1342697e-03
-3.4348334e-04
1.3280332e-03
3.7516027e-03
7.1447700e-03
1.1723067e-02
1.7164937e-02
2.2264617e-02
2.5180735e-02
2.4315098e-02
1.9088375e-02
1.0232683e-02
-4.1043886e-04
-1.0660497e-02
-1.8756030e-02
-2.3738872e-02
-2.5600454e-02
-2.5047200e-02
-2.3047089e-02
-2.0404265e-02
-1.7381065e-02
-1.3564125e-02
-8.0686022e-03
-1.6994197e-04
9.7572142e-03
1.9856190e-02
2.7600208e-02
3.1156775e-02
3.0182492e-02
2.5761251e-02
1.9850878e-02
1.4499742e-02
1.1031428e-02
9.5156843e-03
8.9504296e-03
8.1260849e-03
6.3459015e-03
3.5923444e-03
3.8514489e-04
-2.6569865e-03
-5.3812187e-03
-8.3194783e-03
-1.2326748e-02
-1.7895901e-02
-2.4635115e-02
-3.1200128e-02
-3.5892967e-02
-3.7543066e-02
-3.5827720e-02
-3.1022691e-02
-2.3705170e-02
-1.4643559e-02
-4.6356658e-03
5.7925515e-03
1.6211109e-02
2.5735729e-02
3.3034502e-02
3.6824009e-02
3.6190332e-02
3.0892263e-02
2.1799706e-02
1.0822013e-02
2.2767530e-04
-8.1336312e-03
-1.3390132e-02
-1.5596150e-02
-1.5339904e-02
-1.3582268e-02
-1.1413211e-02
-9.6343618e-03
-8.5554608e-03
-8.0467256e-03
-7.7909823e-03
-7.4233165e-03
-6.3370329e-03
-3.6966775e-03
9.5314639e-04
7.1377825e-03
1.3763780e-02
1.9686612e-02
2.3824913e-02
2.5497043e-02
2.4830140e-02
2.2290976e-02
1.8100584e-02
1.2609407e-02
6.8249552e-03
2.0078099e-03
-1.0991830e-03
-2.4733385e-03
-2.6886536e-03
-2.8930789e-03
-4.5801488e-03
-8.8089950e-03
-1.5284801e-02
-2.2246658e-02
-2.7391711e-02
-2.9079426e-02
-2.7032415e-02
-2.2127525e-02
-1.5586186e-02
-8.3337844e-03
-8.0947265e-04
6.7470589e-03
1.3857957e-02
1.9802941e-02
2.3770763e-02
2.4972544e-02
2.3094276e-02
1.8784156e-02
1.3451140e-02
8.2815328e-03
3.5025016e-03
-1.3560371e-03
-6.9055383e-03
-1.3458359e-02
-2.0516890e-02
-2.6676899e-02
-3.0282689e-02
-3.0374737e-02
-2.7280760e-02
-2.2388221e-02
-1.7236439e-02
-1.2619536e-02
-8.2126156e-03
-2.8279408e-03
4.8685554e-03
1.5539501e-02
2.8586748e-02
4.2078216e-02
5.3345359e-02
5.9834114e-02
5.9682135e-02
5.2077859e-02
3.7463418e-02
1.7567845e-02
-4.6754628e-03
-2.5673333e-02
-4.2199687e-02
-5.2322722e-02
-5.5738812e-02
-5.3401758e-02
-4.6963458e-02
-3.8210924e-02
-2.8550349e-02
-1.9111636e-02
-1.0871354e-02
-4.1781174e-03
1.4759741e-03
7.0671021e-03
1.3369652e-02
2.0518711e-02
2.8145576e-02
3.5607524e-02
4.2017470e-02
4.6283063e-02
4.7221393e-02
4.3949446e-02
3.6513346e-02
2.6092875e-02
1.4550982e-02
3.7431502e-03
-5.1550682e-03
-1.2086954e-02
-1.7994306e-02
-2.4065724e-02
-3.0788020e-02
-3.7671820e-02
-4.3785910e-02
-4.8153721e-02
-4.9816081e-02
-4.8100147e-02
-4.2833408e-02
-3.4119579e-02
-2.2167322e-02
-7.6524259e-03
7.9298240e-03
2.2649308e-02
3.4809638e-02
4.3152613e-02
4.6801721e-02
4.5282005e-02
3.8710612e-02
2.8195519e-02
1.5962025e-02
4.6810631e-03
-3.5918544e-03
-7.9296315e-03
-8.4566504e-03
-6.2105589e-03
-2.8989065e-03
-4.6679231e-04
-4.2767647e-04
-3.1047630e-03
-7.6376116e-03
-1.2666266e-02
-1.6620198e-02
-1.7794908e-02
-1.5030966e-02
-8.5713445e-03
-4.0304759e-06
8.6749348e-03
1.5864144e-02
2.0620775e-02
2.2500051e-02
2.1265623e-02
1.6989733e-02
1.0326010e-02
2.4212331e-03
-5.3424035e-03
-1.1615333e-02
-1.5528675e-02
-1.7087727e-02
-1.7077030e-02
-1.6464730e-02
-1.5758662e-02
-1.4878881e-02
-1.3436213e-02
-1.1024054e-02
-7.5994510e-03
-3.6215750e-03
2.8051125e-04
3.6644469e-03
6.5542444e-03
9.4429900e-03
1.2801057e-02
1.6673294e-02
2.0626586e-02
2.3646390e-02
2.4327521e-02
2.1788153e-02
1.6369953e-02
9.3530864e-03
2.1399892e-03
-4.4352136e-03
-1.0166662e-02
-1.5126760e-02
-1.9518697e-02
-2.3509363e-02
-2.6934923e-02
-2.9252617e-02
-2.9623555e-02
-2.7162471e-02
-2.1441150e-02
-1.2731538e-02
-1.9846033e-03
9.3094530e-03
1.9595455e-02
2.7659306e-02
3.2739821e-02
3.4519322e-02
3.2968589e-02
2.8334182e-02
2.1284418e-02
1.2829698e-02
4.1168881e-03
-3.8142434e-03
-1.0324989e-02
-1.5105680e-02
-1.7829749e-02
-1.8266901e-02
-1.6808605e-02
-1.4511034e-02
-1.2399228e-02
-1.0855534e-02
-9.6261591e-03
-8.1334682e-03
-5.8201570e-03
-2.6108337e-03
8.8272478e-04
4.0249972e-03
6.8445448e-03
9.5538288e-03
1.1784977e-02
1.2826681e-02
1.2338068e-02
1.0524988e-02
7.8976183e-03
5.1524570e-03
2.9408927e-03
1.3844504e-03
-4.2787549e-06
-1.7826043e-03
-4.0946165e-03
-6.7651406e-03
-9.6298795e-03
-1.2510578e-02
-1.4917504e-02
-1.6144116e-02
-1.5791905e-02
-1.3993976e-02
-1.1155580e-02
-7.5663579e-03
-3.2053690e-03
2.1092051e-03
8.2537596e-03
1.4365003e-02
1.9213932e-02
2.2126554e-02
2.3190469e-02
2.2795421e-02
2.1569013e-02
2.0557072e-02
2.0696718e-02
2.2025817e-02
2.3576025e-02
2.3621876e-02
1.9937023e-02
1.0436635e-02
-5.6725283e-03
-2.6813466e-02
-4.9007448e-02
-6.7160962e-02
-7.6900124e-02
-7.6092915e-02
-6.5250757e-02
-4.6633860e-02
-2.3260756e-02
1.4106799e-03
2.3798584e-02
4.0749468e-02
5.0099063e-02
5.1367042e-02
4.6012741e-02
3.6764951e-02
2.6585380e-02
1.7656394e-02
1.0717400e-02
5.2019374e-03
-9.2120110e-05
-6.2538374e-03
-1.3648228e-02
-2.1804738e-02
-2.9679452e-02
-3.5551255e-02
-3.6724084e-02
-3.0313978e-02
-1.5304808e-02
5.9967965e-03
2.8793456e-02
4.8102103e-02
6.0449586e-02
6.4402532e-02
6.0453535e-02
5.0169168e-02
3.4885967e-02
1.5141569e-02
-8.3763973e-03
-3.3039037e-02
-5.3957851e-02
-6.6289738e-02
-6.7836505e-02
-5.9516296e-02
-4.4439828e-02
-2.6881895e-02
-1.0861823e-02
1.2206955e-03
8.7751603e-03
1.2400857e-02
1.3288300e-02
1.2760751e-02
1.1897288e-02
1.1350307e-02
1.1278691e-02
1.1216073e-02
1.0289585e-02
7.9777212e-03
4.5858136e-03
9.7126936e-04
-1.8157964e-03
-2.6862695e-03
-1.0839623e-03
2.3001720e-03
5.6245651e-03
6.7797111e-03
4.6857354e-03
4.5445397e-04
-2.8980703e-03
-2.6349823e-03
1.5679478e-03
7.7000352e-03
1.3098876e-02
1.5771540e-02
1.4885469e-02
1.0876212e-02
5.1207727e-03
-7.5662049e-04
-5.5487703e-03
-8.9173291e-03
-1.1296491e-02
-1.3193160e-02
-1.4614489e-02
-1.5158897e-02
-1.4582049e-02
-1.3149181e-02
-1.1332042e-02
-9.3226699e-03
-6.9737008e-03
-4.1405681e-03
-9.7936858e-04
2.1297950e-03
4.8052141e-03
6.7653828e-03
7.9450771e-03
8.5597643e-03
8.9064049e-03
9.1008165e-03
9.0679908e-03
8.6928337e-03
7.8467724e-03
6.3834756e-03
4.3123815e-03
1.9356977e-03
-2.8056467e-04
-1.9408349e-03
-2.8334009e-03
-2.9134224e-03
-2.2638542e-03
-1.0671953e-03
4.3450333e-04
