9.2593069e-05
1.0218990e-04
1.2446132e-04
1.6536402e-04
2.2592092e-04
3.0124065e-04
3.8080161e-04
4.4992963e-04
4.9222618e-04
4.9261880e-04
4.4061802e-04
3.3320554e-04
1.7663294e-04
-1.3523373e-05
-2.1432821e-04
-3.9921310e-04
-5.4276796e-04
-6.2569101e-04
-6.3890212e-04
-5.8580848e-04
-4.8188533e-04
-3.5127226e-04
-2.2098367e-04
-1.1427749e-04
-4.5233406e-05
-1.6205497e-05
-1.8168577e-05
-3.3073835e-05
-3.8254972e-05
-1.2716461e-05
5.6281872e-05
1.6848148e-04
3.0943966e-04
4.5349448e-04
5.7006454e-04
6.3135306e-04
6.1912621e-04
5.2867997e-04
3.6919293e-04
1.6089381e-04
-6.9673923e-05
-2.9479119e-04
-4.8993074e-04
-6.3673256e-04
-7.2446096e-04
-7.5011353e-04
-7.1746964e-04
-6.3539160e-04
-5.1569385e-04
-3.7075509e-04
-2.1112491e-04
-4.3945358e-05
1.2697695e-04
2.9942269e-04
4.7004485e-04
6.3178771e-04
7.7258135e-04
8.7609931e-04
9.2472896e-04
9.0414057e-04
8.0816237e-04
6.4232677e-04
4.2466607e-04
1.8315593e-04
-4.9665346e-05
-2.4348427e-04
-3.7668242e-04
-4.4091849e-04
-4.4262970e-04
-4.0089183e-04
-3.4206304e-04
-2.9275698e-04
-2.7339758e-04
-2.9384513e-04
-3.5109277e-04
-4.2959321e-04
-5.0548694e-04
-5.5395963e-04
-5.5689857e-04
-5.0795340e-04
-4.1329879e-04
-2.8815771e-04
-1.5071653e-04
-1.5875746e-05
1.0890228e-04
2.2438545e-04
3.3703120e-04
4.5420500e-04
5.7885469e-04
7.0543306e-04
8.1846737e-04
8.9442826e-04
9.0668205e-04
8.3247481e-04
6.6018827e-04
3.9473435e-04
5.9195329e-05
-3.0806900e-04
-6.6014014e-04
-9.5078074e-04
-1.1443444e-03
-1.2235248e-03
-1.1925258e-03
-1.0746706e-03
-9.0490329e-04
-7.1905237e-04
-5.4270586e-04
-3.8281791e-04
-2.2474114e-04
-3.6356903e-05
2.2067608e-04
5.7474481e-04
1.0275906e-03
1.5428110e-03
2.0448029e-03
2.4309124e-03
2.5955338e-03
2.4604935e-03
2.0027978e-03
1.2701006e-03
3.7682602e-04
-5.2105504e-04
-1.2688845e-03
-1.7615249e-03
-1.9766314e-03
-1.9766653e-03
-1.8777365e-03
-1.7982256e-03
-1.8088196e-03
-1.9043952e-03
-2.0084367e-03
-2.0073419e-03
-1.8004020e-03
-1.3454413e-03
-6.8197936e-04
7.7443183e-05
7.8478964e-04
1.3086911e-03
1.5811489e-03
1.6204799e-03
1.5212746e-03
1.4150929e-03
1.4172429e-03
1.5804350e-03
1.8734673e-03
2.1929982e-03
2.4008808e-03
2.3699579e-03
2.0238761e-03
1.3605861e-03
4.5320764e-04
-5.7041267e-04
-1.5609532e-03
-2.3820764e-03
-2.9362255e-03
-3.1767372e-03
-3.1064457e-03
-2.7666056e-03
-2.2215228e-03
-1.5439390e-03
-8.0447827e-04
-6.6146660e-05
6.1710166e-04
1.1997467e-03
1.6440854e-03
1.9211076e-03
2.0135611e-03
1.9208663e-03
1.6638600e-03
1.2853980e-03
8.4458825e-04
4.0652226e-04
3.0008687e-05
-2.4420177e-04
-4.0125686e-04
-4.5333285e-04
-4.3340221e-04
-3.8358907e-04
-3.4197086e-04
-3.3207161e-04
-3.5808908e-04
-4.0670287e-04
-4.5406202e-04
-4.7509752e-04
-4.5203697e-04
-3.7974428e-04
-2.6676594e-04
-1.3225395e-04
1.2376097e-08
1.0859270e-04
1.8020474e-04
2.1258221e-04
2.1353797e-04
1.9709549e-04
1.7846818e-04
1.6908552e-04
1.7266293e-04
1.8354806e-04
1.8815101e-04
1.6936618e-04
1.1282066e-04
1.2876189e-05
-1.2389812e-04
-2.7925832e-04
-4.2776415e-04
-5.4361677e-04
-6.0743330e-04
-6.1068715e-04
-5.5654542e-04
-4.5720904e-04
-3.2902506e-04
-1.8723548e-04
-4.2211083e-05
1.0157680e-04
2.4373023e-04
3.8447565e-04
5.2155759e-04
6.4853198e-04
7.5382717e-04
8.2062584e-04
8.2931513e-04
7.6301503e-04
6.1440392e-04
3.9121763e-04
1.1807029e-04
-1.6663536e-04
-4.1833734e-04
-5.9657735e-04
-6.7502645e-04
-6.4830012e-04
-5.3337661e-04
-3.6491255e-04
-1.8560274e-04
-3.4454429e-05
6.3285391e-05
1.0134998e-04
9.1385992e-05
5.6355189e-05
2.1007222e-05
3.0469332e-06
8.2147803e-06
3.0365397e-05
5.5565715e-05
6.8437423e-05
5.8355431e-05
2.3158530e-05
-3.0672528e-05
-9.0845160e-05
-1.4357462e-04
-1.7774396e-04
-1.8769484e-04
-1.7403566e-04
-1.4246723e-04
-1.0125572e-04
-5.8455710e-05
-1.9976151e-05
1.1011260e-05
3.3592867e-05
4.8220227e-05
5.5957517e-05
5.8149981e-05
5.6560593e-05
5.3800430e-05
5.3694686e-05
6.1240418e-05
8.1954194e-05
1.2062109e-04
1.7975708e-04
2.5812506e-04
3.4956746e-04
4.4258496e-04
5.2112313e-04
5.6677151e-04
5.6221081e-04
4.9530651e-04
3.6279780e-04
1.7233123e-04
-5.8050605e-05
-3.0297436e-04
-5.3442688e-04
-7.2666051e-04
-8.6009487e-04
-9.2365474e-04
-9.1558934e-04
-8.4299620e-04
-7.2014859e-04
-5.6570075e-04
-3.9909693e-04
-2.3697371e-04
-9.0692436e-05
3.4429838e-05
1.3849380e-04
2.2537439e-04
3.0056551e-04
3.6929120e-04
4.3535721e-04
5.0064395e-04
5.6481189e-04
6.2488723e-04
6.7477851e-04
7.0516000e-04
7.0427321e-04
6.5993808e-04
5.6257944e-04
4.0860148e-04
2.0314807e-04
-3.8723362e-05
-2.9311531e-04
-5.3073812e-04
-7.2221672e-04
-8.4404049e-04
-8.8335910e-04
-8.3995789e-04
-7.2494013e-04
-5.5729300e-04
-3.5991234e-04
-1.5567113e-04
3.6102162e-05
2.0196922e-04
3.3502351e-04
4.3387803e-04
5.0058291e-04
5.3836188e-04
5.5001387e-04
5.3744368e-04
5.0220757e-04
4.4646708e-04
3.7360480e-04
2.8800318e-04
1.9394506e-04
9.4077986e-05
-1.1766591e-05
-1.2655289e-04
-2.5431785e-04
-3.9695081e-04
-5.5052634e-04
-7.0287508e-04
-8.3388472e-04
-9.1823522e-04
-9.2959661e-04
-8.4666979e-04
-6.6059331e-04
-3.8116999e-04
-3.9084712e-05
3.1759055e-04
6.3241049e-04
8.5298408e-04
9.4345116e-04
8.9340430e-04
7.2052685e-04
4.6603101e-04
1.8422198e-04
-7.0640986e-05
-2.5638553e-04
-3.5084481e-04
-3.5418866e-04
-2.8574074e-04
-1.7657189e-04
-6.0113096e-05
3.6406714e-05
9.7329356e-05
1.2030128e-04
1.1532085e-04
1.0141142e-04
1.0107024e-04
1.3357258e-04
2.0858715e-04
3.2144351e-04
4.5129338e-04
5.6329567e-04
6.1539973e-04
5.6896256e-04
4.0071603e-04
1.1245745e-04
-2.6503391e-04
-6.7587442e-04
-1.0503468e-03
-1.3206099e-03
-1.4362665e-03
-1.3752588e-03
-1.1472350e-03
-7.8906886e-04
-3.5456310e-04
9.8260554e-05
5.1882552e-04
8.7192642e-04
1.1401031e-03
1.3206302e-03
1.4195562e-03
1.4455375e-03
1.4055178e-03
1.3032650e-03
1.1403525e-03
9.1829273e-04
6.4053995e-04
3.1374676e-04
-5.1603740e-05
-4.4075962e-04
-8.3424038e-04
-1.2076508e-03
-1.5324744e-03
-1.7785077e-03
-1.9180116e-03
-1.9308298e-03
-1.8091764e-03
-1.5608020e-03
-1.2096544e-03
-7.9363488e-04
-3.5942647e-04
4.5649954e-05
3.8330918e-04
6.3171093e-04
7.8784338e-04
8.6470900e-04
8.8465345e-04
8.7135401e-04
8.4340905e-04
8.1165061e-04
7.8057201e-04
7.5242761e-04
7.3143487e-04
7.2551072e-04
7.4407777e-04
7.9235555e-04
8.6457541e-04
9.3974184e-04
9.8299256e-04
9.5325673e-04
8.1494369e-04
5.4945316e-04
1.6235391e-04
-3.1610801e-04
-8.3703856e-04
-1.3425352e-03
-1.7741937e-03
-2.0782617e-03
-2.2095046e-03
-2.1362043e-03
-1.8465511e-03
-1.3550692e-03
-7.0681903e-04
2.3056091e-05
7.3624747e-04
1.3250788e-03
1.6916555e-03
1.7688072e-03
1.5378302e-03
1.0378123e-03
3.6262375e-04
-3.5560657e-04
-9.7398666e-04
-1.3709231e-03
-1.4738834e-03
-1.2747188e-03
-8.2868796e-04
-2.3909507e-04
3.6721499e-04
8.6941980e-04
1.1807462e-03
1.2642745e-03
1.1326126e-03
8.3604334e-04
4.4561297e-04
3.6936919e-05
-3.2180190e-04
-5.7712362e-04
-6.9427479e-04
-6.5977383e-04
-4.8308884e-04
-1.9652485e-04
1.4838706e-04
4.8916909e-04
7.6481346e-04
9.2968031e-04
9.6467976e-04
8.8152538e-04
7.1778034e-04
5.2375673e-04
3.4560522e-04
2.1059805e-04
1.1974341e-04
5.0006936e-05
-3.5022870e-05
-1.7021065e-04
-3.7505853e-04
-6.4547964e-04
-9.5382168e-04
-1.2570135e-03
-1.5096230e-03
-1.6768218e-03
-1.7424698e-03
-1.7095971e-03
-1.5936383e-03
-1.4116629e-03
-1.1724396e-03
-8.7185612e-04
-4.9611425e-04
-3.1942362e-05
5.2008115e-04
1.1348634e-03
1.7600669e-03
2.3235125e-03
2.7484821e-03
2.9712104e-03
2.9546257e-03
2.6952490e-03
2.2228533e-03
1.5940358e-03
8.8212005e-04
1.6581188e-04
-4.8179958e-04
-1.0029375e-03
-1.3627554e-03
-1.5537954e-03
-1.5959278e-03
-1.5307727e-03
-1.4108176e-03
-1.2851988e-03
-1.1857261e-03
-1.1174997e-03
-1.0578293e-03
-9.6496434e-04
-7.9481933e-04
-5.2049651e-04
-1.4739127e-04
2.8264334e-04
7.0080372e-04
1.0316560e-03
1.2165916e-03
1.2308911e-03
1.0887824e-03
8.3727449e-04
5.4181915e-04
2.6789239e-04
6.4150235e-05
-4.7940204e-05
-7.5685020e-05
-4.8657201e-05
-7.1785653e-06
1.0101955e-05
-2.4048933e-05
-1.2034394e-04
-2.7261910e-04
-4.6103687e-04
-6.5720138e-04
-8.2975658e-04
-9.4953124e-04
-9.9371680e-04
-9.4879460e-04
-8.1205525e-04
-5.9170929e-04
-3.0579371e-04
1.9880676e-05
3.5484354e-04
6.6767483e-04
9.2908295e-04
1.1142197e-03
1.2048612e-03
1.1915762e-03
1.0754776e-03
8.6880503e-04
5.9372116e-04
2.7933653e-04
-4.2341337e-05
-3.4051659e-04
-5.8887857e-04
-7.6759074e-04
-8.6408707e-04
-8.7313791e-04
-7.9666110e-04
-6.4348897e-04
-4.2901746e-04
-1.7452009e-04
9.4130722e-05
3.4858092e-04
5.6105872e-04
7.0800317e-04
7.7359789e-04
7.5256436e-04
6.5122256e-04
4.8618246e-04
2.8109486e-04
6.2378593e-05
-1.4512336e-04
-3.2172496e-04
-4.5515062e-04
-5.4120233e-04
-5.8283495e-04
-5.8781297e-04
-5.6532894e-04
-5.2230328e-04
-4.6046616e-04
-3.7544563e-04
-2.5865698e-04
-1.0178080e-04
9.7562064e-05
3.3103629e-04
5.7764586e-04
8.0560649e-04
9.7777941e-04
1.0592932e-03
1.0252256e-03
8.6615898e-04
5.9034306e-04
2.2258602e-04
-1.9915679e-04
-6.2857495e-04
-1.0166771e-03
-1.3180684e-03
-1.4973906e-03
-1.5350433e-03
-1.4309322e-03
-1.2050211e-03
-8.9401705e-04
-5.4441506e-04
-2.0310781e-04
9.2392228e-05
3.2164011e-04
4.8467889e-04
6.0007093e-04
6.9785612e-04
8.0913673e-04
9.5507045e-04
1.1386230e-03
1.3419831e-03
1.5301637e-03
1.6579145e-03
1.6772117e-03
1.5456136e-03
1.2356321e-03
7.4317007e-04
9.2636333e-05
-6.6287829e-04
-1.4467824e-03
-2.1687689e-03
-2.7375990e-03
-3.0748079e-03
-3.1270935e-03
-2.8752562e-03
-2.3379877e-03
-1.5696893e-03
-6.5278386e-04
3.1378178e-04
1.2276100e-03
1.9955875e-03
2.5450776e-03
2.8327924e-03
2.8504731e-03
2.6258857e-03
2.2168040e-03
1.6982135e-03
1.1472658e-03
6.3008792e-04
1.9249309e-04
-1.4407658e-04
-3.8123186e-04
-5.3809072e-04
-6.4337980e-04
-7.2707145e-04
-8.1301867e-04
-9.1365058e-04
-1.0276065e-03
-1.1409489e-03
-1.2319332e-03
-1.2782191e-03
-1.2643225e-03
-1.1866650e-03
-1.0542044e-03
-8.8425472e-04
-6.9509188e-04
-4.9840109e-04
-2.9492617e-04
-7.5446771e-05
1.7356308e-04
4.6199407e-04
7.8823880e-04
1.1342149e-03
1.4655229e-03
1.7368828e-03
1.9012706e-03
1.9202597e-03
1.7729776e-03
1.4616223e-03
1.0123980e-03
4.7177318e-04
-1.0103856e-04
-6.4374082e-04
-1.1007819e-03
-1.4314217e-03
-1.6145104e-03
-1.6491924e-03
-1.5517752e-03
-1.3500041e-03
-1.0765154e-03
-7.6315962e-04
-4.3737246e-04
-1.2113413e-04
1.6826422e-04
4.1717780e-04
6.1477021e-04
7.5254734e-04
8.2459291e-04
8.2819938e-04
7.6440270e-04
6.3827160e-04
4.5905549e-04
2.4029842e-04
-1.4094760e-07
-2.4044853e-04
-4.5605393e-04
-6.2210189e-04
-7.1724724e-04
-7.2813155e-04
-6.5324693e-04
-5.0473261e-04
-3.0714117e-04
-9.3104389e-05
1.0325003e-04
2.5358213e-04
3.4145938e-04
3.6565505e-04
3.3992339e-04
2.8959739e-04
2.4546358e-04
2.3553260e-04
2.7645427e-04
3.6731879e-04
4.8842536e-04
6.0609960e-04
6.8239781e-04
6.8668082e-04
6.0534753e-04
4.4660182e-04
2.3868511e-04
2.2033596e-05
-1.6233475e-04
-2.8477861e-04
-3.3575244e-04
-3.2849901e-04
-2.9455866e-04
-2.7307935e-04
-2.9699555e-04
-3.8048767e-04
-5.1216358e-04
-6.5688711e-04
-7.6622121e-04
-7.9403791e-04
-7.1204351e-04
-5.2027400e-04
-2.4899378e-04
4.8987415e-05
3.1311516e-04
4.9197259e-04
5.5674639e-04
5.0740990e-04
3.7050200e-04
1.9004431e-04
1.4881787e-05
-1.1379730e-04
-1.7167907e-04
-1.5553191e-04
-8.2099303e-05
1.7459900e-05
1.0599800e-04
1.4980241e-04
1.2716975e-04
3.4452162e-05
-1.1184417e-04
-2.7785934e-04
-4.1995461e-04
-4.9452540e-04
-4.6701283e-04
-3.1981357e-04
-5.8993411e-05
2.8235260e-04
6.4648594e-04
9.6003587e-04
1.1482394e-03
1.1510949e-03
9.3744862e-04
5.1367874e-04
-7.4924955e-05
-7.5031849e-04
-1.4140664e-03
-1.9634209e-03
-2.3081001e-03
-2.3848596e-03
-2.1675362e-03
-1.6711345e-03
-9.4956114e-04
-8.7601730e-05
8.1148880e-04
1.6410317e-03
2.3070630e-03
2.7426398e-03
2.9164533e-03
2.8348233e-03
2.5379376e-03
2.0908562e-03
1.5703040e-03
1.0493344e-03
5.8312063e-04
1.9959455e-04
-1.0235001e-04
-3.4672185e-04
-5.6856569e-04
-8.0017231e-04
-1.0593233e-03
-1.3425071e-03
-1.6245001e-03
-1.8641592e-03
-2.0149081e-03
-2.0372580e-03
-1.9100466e-03
-1.6372739e-03
-1.2486379e-03
-7.9383977e-04
-3.3204323e-04
8.1370140e-05
4.0702815e-04
6.2871800e-04
7.5362037e-04
8.0639705e-04
8.1960312e-04
8.2358563e-04
8.3864022e-04
8.7097345e-04
9.1262785e-04
9.4457643e-04
9.4183112e-04
8.7941393e-04
7.3818701e-04
5.0972890e-04
1.9961399e-04
-1.7142341e-04
-5.6881235e-04
-9.4808039e-04
-1.2611578e-03
-1.4642790e-03
-1.5259992e-03
-1.4333560e-03
-1.1946750e-03
-8.3856590e-04
-4.0911656e-04
4.2217195e-05
4.6625992e-04
8.2476391e-04
1.0958074e-03
1.2745995e-03
1.3696963e-03
1.3961038e-03
1.3677913e-03
1.2922891e-03
1.1691364e-03
9.9234882e-04
7.5556126e-04
4.5772409e-04
1.0733422e-04
-2.7611924e-04
-6.6387514e-04
-1.0222569e-03
-1.3184291e-03
-1.5259609e-03
-1.6287161e-03
-1.6222478e-03
-1.5128042e-03
-1.3142930e-03
-1.0439287e-03
-7.1855993e-04
-3.5357207e-04
3.5489158e-05
4.2993787e-04
8.0560425e-04
1.1328250e-03
1.3794788e-03
1.5164831e-03
1.5240447e-03
1.3965333e-03
1.1443839e-03
7.9262645e-04
3.7679323e-04
-6.2444926e-05
-4.8457162e-04
-8.5352067e-04
-1.1406278e-03
-1.3263894e-03
-1.4013906e-03
-1.3665899e-03
-1.2326300e-03
-1.0175849e-03
-7.4402760e-04
-4.3697381e-04
-1.2214597e-04
1.7643274e-04
4.3905654e-04
6.5241500e-04
8.1072917e-04
9.1576986e-04
9.7567358e-04
1.0026005e-03
1.0095223e-03
1.0067124e-03
9.9872919e-04
9.8274941e-04
9.4890792e-04
8.8280545e-04
7.6967010e-04
5.9908175e-04
3.6894218e-04
8.7591830e-05
-2.2641658e-04
-5.4655216e-04
-8.4187803e-04
-1.0824158e-03
-1.2464653e-03
-1.3266944e-03
-1.3310018e-03
-1.2774004e-03
-1.1853488e-03
-1.0674684e-03
-9.2542106e-04
-7.5198893e-04
-5.3865583e-04
-2.8542041e-04
-8.3400044e-06
2.5900809e-04
4.7160241e-04
5.8499537e-04
5.6930544e-04
4.2053378e-04
1.6562248e-04
-1.4025645e-04
-4.2350883e-04
-6.0667798e-04
-6.2450538e-04
-4.3804617e-04
-4.3624620e-05
5.2447601e-04
1.1957842e-03
1.8697952e-03
2.4290503e-03
2.7589109e-03
2.7701155e-03
2.4189964e-03
1.7204363e-03
7.5000359e-04
-3.6597943e-04
-1.4708761e-03
-2.4046199e-03
-3.0315656e-03
-3.2638549e-03
-3.0760561e-03
-2.5086951e-03
-1.6603560e-03
-6.7001085e-04
3.0709126e-04
1.1256374e-03
1.6741144e-03
1.8924695e-03
1.7805603e-03
1.3951786e-03
8.3547886e-04
2.2161589e-04
-3.2699920e-04
-7.1154197e-04
-8.7024519e-04
-7.8829135e-04
-4.9863310e-04
-7.3178323e-05
3.9394386e-04
8.0715632e-04
1.0891358e-03
1.1946893e-03
1.1158987e-03
8.7821401e-04
5.2963807e-04
1.2683033e-04
-2.7759511e-04
-6.4326604e-04
-9.4445977e-04
-1.1676748e-03
-1.3068488e-03
-1.3590054e-03
-1.3222302e-03
-1.1965084e-03
-9.8670363e-04
-7.0556487e-04
-3.7437621e-04
-2.0574435e-05
3.2673905e-04
6.4183659e-04
9.0618971e-04
1.1097368e-03
1.2492977e-03
1.3250855e-03
1.3370938e-03
1.2831444e-03
1.1595850e-03
9.6436982e-04
7.0111324e-04
3.8226067e-04
2.9953303e-05
-3.2585848e-04
-6.5156955e-04
-9.1531068e-04
-1.0923444e-03
-1.1692144e-03
-1.1455349e-03
-1.0328246e-03
-8.5058889e-04
-6.2155650e-04
-3.6868815e-04
-1.1422460e-04
1.2048553e-04
3.1523296e-04
4.5181252e-04
5.1567483e-04
4.9804224e-04
3.9778319e-04
2.2227780e-04
-1.3077495e-05
-2.8633901e-04
-5.7055244e-04
-8.3467883e-04
-1.0441897e-03
-1.1626539e-03
-1.1559153e-03
-9.9946268e-04
-6.8757885e-04
-2.4087551e-04
2.9178076e-04
8.3951048e-04
1.3236355e-03
1.6768887e-03
1.8615345e-03
1.8789037e-03
1.7660898e-03
1.5807927e-03
1.3797016e-03
1.1982441e-03
1.0388839e-03
8.7191827e-04
6.4827032e-04
3.1973354e-04
-1.4012278e-04
-7.2112494e-04
-1.3724095e-03
-2.0104135e-03
-2.5366668e-03
-2.8603210e-03
-2.9191871e-03
-2.6937381e-03
-2.2107610e-03
-1.5363827e-03
-7.6112486e-04
1.8349982e-05
7.1592854e-04
1.2688927e-03
1.6459520e-03
1.8479731e-03
1.9007227e-03
1.8425922e-03
1.7115314e-03
1.5350022e-03
1.3253566e-03
1.0812532e-03
7.9401363e-04
4.5651644e-04
7.1558758e-05
-3.4317502e-04
-7.5531380e-04
-1.1232824e-03
-1.4054263e-03
-1.5698550e-03
-1.6017583e-03
-1.5058073e-03
-1.3030679e-03
-1.0239404e-03
-7.0006819e-04
-3.5827351e-04
-1.8397185e-05
3.0555171e-04
6.0258291e-04
8.6103145e-04
1.0656804e-03
1.1977975e-03
1.2384216e-03
1.1738029e-03
1.0012145e-03
7.3323252e-04
3.9896117e-04
4.1376053e-05
-2.8913028e-04
-5.4393466e-04
-6.8623370e-04
-6.9961229e-04
-5.9268825e-04
-3.9790826e-04
-1.6395586e-04
5.6693232e-05
2.2152781e-04
3.0861263e-04
3.2050137e-04
2.8041603e-04
2.2247833e-04
1.7973529e-04
1.7350920e-04
2.0642027e-04
2.6133103e-04
3.0699327e-04
3.0831371e-04
2.3765287e-04
8.3679011e-05
-1.4450546e-04
-4.1859634e-04
-6.9688217e-04
-9.3294225e-04
-1.0852661e-03
-1.1258433e-03
-1.0460091e-03
-8.5828116e-04
-5.9368420e-04
-2.9506428e-04
-7.8697554e-06
2.2947336e-04
3.9329602e-04
4.7863855e-04
4.9852218e-04
4.7906348e-04
4.5194042e-04
4.4583851e-04
4.7884062e-04
5.5382789e-04
6.5779083e-04
7.6475582e-04
8.4152268e-04
8.5504262e-04
7.7993397e-04
6.0457034e-04
3.3454292e-04
-7.0389654e-06
-3.8225492e-04
-7.4344617e-04
-1.0398682e-03
-1.2252632e-03
-1.2657274e-03
-1.1469127e-03
-8.7905566e-04
-4.9805551e-04
-6.1267447e-05
3.6205352e-04
7.0391714e-04
9.1110213e-04
9.5577753e-04
8.4106855e-04
5.9991288e-04
2.8690457e-04
-3.4605608e-05
-3.0637645e-04
-4.8665429e-04
-5.5686590e-04
-5.2280410e-04
-4.1064925e-04
-2.5910533e-04
-1.0961506e-04
3.0728946e-06
5.7906256e-05
5.0706442e-05
-6.8891522e-06
-9.2115262e-05
-1.7796518e-04
-2.4037182e-04
-2.6380714e-04
-2.4396825e-04
-1.8710717e-04
-1.0653388e-04
-1.7491393e-05
6.8228163e-05
1.4632894e-04
2.2093695e-04
3.0150954e-04
3.9671516e-04
5.0794736e-04
6.2544169e-04
7.2878625e-04
7.9173609e-04
7.8953533e-04
7.0614359e-04
5.3911433e-04
3.0102074e-04
1.7547159e-05
-2.7688882e-04
-5.4491896e-04
-7.5244184e-04
-8.7442594e-04
-8.9946624e-04
-8.3221884e-04
-6.9292021e-04
-5.1361932e-04
-3.3157467e-04
-1.8122468e-04
-8.6369450e-05
-5.4045062e-05
-7.1989877e-05
-1.1124990e-04
-1.3364761e-04
-1.0204869e-04
9.3744843e-06
2.0743030e-04
4.7646468e-04
7.7984805e-04
1.0660001e-03
1.2776663e-03
1.3626162e-03
1.2838680e-03
1.0277772e-03
6.0858069e-04
6.8258680e-05
-5.2880279e-04
-1.1057878e-03
-1.5863007e-03
-1.9075330e-03
-2.0310642e-03
-1.9490278e-03
-1.6840880e-03
-1.2827752e-03
-8.0369189e-04
-3.0407325e-04
1.7130482e-04
5.9588992e-04
9.6086083e-04
1.2695381e-03
1.5291320e-03
1.7426576e-03
1.9034679e-03
1.9939213e-03
1.9884840e-03
1.8603511e-03
1.5897322e-03
1.1715607e-03
6.2067258e-04
-2.6715827e-05
-7.1551203e-04
-1.3778469e-03
-1.9420221e-03
-2.3433101e-03
-2.5352469e-03
-2.4995002e-03
-2.2517719e-03
-1.8405806e-03
-1.3373943e-03
-8.2065698e-04
-3.5839579e-04
5.9308654e-06
2.6047428e-04
4.2321332e-04
5.3247427e-04
6.3309504e-04
7.6245389e-04
9.4008513e-04
1.1631257e-03
1.4079088e-03
1.6362636e-03
1.8040908e-03
1.8698360e-03
1.8013198e-03
1.5804442e-03
1.2060630e-03
6.9550773e-04
8.4900073e-05
-5.7231433e-04
-1.2097217e-03
-1.7560819e-03
-2.1468150e-03
-2.3352767e-03
-2.2994628e-03
-2.0437804e-03
-1.5975538e-03
-1.0110083e-03
-3.4930527e-04
3.1472313e-04
9.0860423e-04
1.3684446e-03
1.6464771e-03
1.7168307e-03
1.5784846e-03
1.2547613e-03
7.8937778e-04
2.3991551e-04
-3.2976424e-04
-8.5656670e-04
-1.2837539e-03
-1.5651737e-03
-1.6688892e-03
-1.5808033e-03
-1.3079538e-03
-8.7984353e-04
-3.4575197e-04
2.3145318e-04
7.8302955e-04
1.2436296e-03
1.5616663e-03
1.7083424e-03
1.6829568e-03
1.5129429e-03
1.2481665e-03
9.5031136e-04
6.7946495e-04
4.8083833e-04
3.7459589e-04
3.5114229e-04
3.7317983e-04
3.8457452e-04
3.2459132e-04
1.4451103e-04
-1.7754075e-04
-6.2784806e-04
-1.1573348e-03
-1.6910008e-03
-2.1438857e-03
-2.4391864e-03
-2.5242994e-03
-2.3810934e-03
-2.0276081e-03
-1.5111021e-03
-8.9546016e-04
-2.4745444e-04
3.7416410e-04
9.2471097e-04
1.3748837e-03
1.7089256e-03
1.9215477e-03
2.0149825e-03
1.9967426e-03
1.8780587e-03
1.6726767e-03
1.3956965e-03
1.0624415e-03
6.8779774e-04
2.8664016e-04
-1.2447940e-04
-5.2514646e-04
-8.8999304e-04
-1.1902557e-03
-1.3983061e-03
-1.4940119e-03
-1.4710185e-03
-1.3401428e-03
-1.1271998e-03
-8.6545653e-04
-5.8595035e-04
-3.0975854e-04
-4.5164810e-05
2.0965049e-04
4.5998706e-04
7.0685498e-04
9.4088223e-04
1.1399852e-03
1.2717983e-03
1.3006279e-03
1.1973964e-03
9.4986919e-04
5.6991338e-04
9.5107523e-05
-4.1631334e-04
-8.9604320e-04
-1.2788939e-03
-1.5148801e-03
-1.5770495e-03
-1.4641978e-03
-1.1992613e-03
-8.2385282e-04
-3.9013734e-04
4.7725756e-05
4.4085189e-04
7.5084851e-04
9.5300950e-04
1.0378084e-03
1.0107710e-03
8.9048982e-04
7.0466544e-04
4.8466861e-04
2.5978592e-04
5.2571252e-05
-1.2358513e-04
-2.6425373e-04
-3.7149519e-04
-4.5009615e-04
-5.0377950e-04
-5.3261383e-04
-5.3246343e-04
-4.9658745e-04
-4.1857438e-04
-2.9533324e-04
-1.2973905e-04
6.7371300e-05
2.7748272e-04
4.7775635e-04
6.4619606e-04
7.6665322e-04
8.3194395e-04
8.4416911e-04
8.1237953e-04
7.4865242e-04
6.6406074e-04
5.6577280e-04
4.5588479e-04
3.3200315e-04
1.8923305e-04
2.2997343e-05
-1.6807037e-04
-3.7996927e-04
-6.0256775e-04
-8.2051069e-04
-1.0155443e-03
-1.1695514e-03
-1.2674713e-03
-1.2991511e-03
-1.2592081e-03
-1.1454318e-03
-9.5778720e-04
-6.9941977e-04
-3.7937705e-04
-1.5608715e-05
3.6366400e-04
7.2173647e-04
1.0187072e-03
1.2190797e-03
1.2993749e-03
1.2532810e-03
1.0926809e-03
8.4429759e-04
5.4316577e-04
2.2514586e-04
-7.9119173e-05
-3.4712657e-04
-5.6400185e-04
-7.1972789e-04
-8.0628199e-04
-8.1679469e-04
-7.4733975e-04
-5.9960049e-04
-3.8263079e-04
-1.1352697e-04
1.8334917e-04
4.7877354e-04
7.4189402e-04
9.4353321e-04
1.0592565e-03
1.0721988e-03
9.7560052e-04
7.7475160e-04
4.8779709e-04
1.4478886e-04
-2.1539197e-04
-5.5009768e-04
-8.1924788e-04
-9.9183807e-04
-1.0513510e-03
-9.9875680e-04
-8.5201972e-04
-6.4181426e-04
-4.0441989e-04
-1.7394876e-04
2.3611196e-05
1.7330856e-04
2.7147772e-04
3.2367363e-04
3.4051504e-04
3.3269767e-04
3.0694522e-04
2.6417162e-04
2.0029981e-04
1.0933464e-04
-1.2329181e-05
-1.6166180e-04
-3.2607926e-04
-4.8285498e-04
-6.0145151e-04
-6.4880394e-04
-5.9686168e-04
-4.3086204e-04
-1.5610463e-04
1.9916636e-04
5.8643174e-04
9.4519629e-04
1.2151012e-03
1.3485998e-03
1.3207173e-03
1.1338945e-03
8.1789550e-04
4.2493935e-04
1.9906617e-05
-3.3296363e-04
-5.8366786e-04
-7.0671563e-04
-7.0528030e-04
-6.0812385e-04
-4.6030556e-04
-3.1046261e-04
-1.9833655e-04
-1.4597157e-04
-1.5471931e-04
-2.0829791e-04
-2.8035363e-04
-3.4385139e-04
-3.7935836e-04
-3.7974711e-04
-3.4995872e-04
-3.0221177e-04
-2.4895989e-04
-1.9697662e-04
-1.4528163e-04
-8.7158328e-05
-1.4039991e-05
8.0791513e-05
1.9915024e-04
3.3585637e-04
4.7833776e-04
6.0828172e-04
7.0499115e-04
7.4947176e-04
7.2805635e-04
6.3467749e-04
4.7157806e-04
2.4897362e-04
-1.5499556e-05
-2.9715828e-04
-5.6508532e-04
-7.8471026e-04
-9.2306844e-04
-9.5616145e-04
-8.7623152e-04
-6.9602648e-04
-4.4768380e-04
-1.7547114e-04
7.6098315e-05
2.7494571e-04
4.1024389e-04
4.9424859e-04
5.5651910e-04
6.3200064e-04
7.4632766e-04
9.0311393e-04
1.0779494e-03
1.2219398e-03
1.2744092e-03
1.1811144e-03
9.1235786e-04
4.7538295e-04
-8.2826293e-05
-6.8340786e-04
-1.2321788e-03
-1.6404889e-03
-1.8448217e-03
-1.8200269e-03
-1.5829798e-03
-1.1863595e-03
-7.0522171e-04
-2.2107577e-04
1.9213407e-04
4.7958326e-04
6.1511963e-04
6.0526932e-04
4.8498500e-04
3.0697737e-04
1.2824278e-04
-2.7388567e-06
-5.5522263e-05
-2.2458567e-05
8.1626357e-05
2.2419136e-04
3.6288288e-04
4.5505094e-04
4.6738561e-04
3.8412193e-04
2.1199304e-04
-1.9798376e-05
-2.6521336e-04
-4.7141795e-04
-5.9063223e-04
-5.9091060e-04
-4.6353997e-04
-2.2555463e-04
8.3258891e-05
4.0824972e-04
6.9081124e-04
8.7993626e-04
9.4190745e-04
8.6583681e-04
6.6395009e-04
3.6714743e-04
1.7622567e-05
-3.3924560e-04
-6.6193579e-04
-9.1779981e-04
-1.0857808e-03
-1.1569392e-03
-1.1331591e-03
-1.0247136e-03
-8.4754409e-04
-6.2094391e-04
-3.6586888e-04
-1.0358609e-04
1.4588972e-04
3.6587409e-04
5.4517766e-04
6.7926915e-04
7.6956370e-04
8.2108427e-04
8.3962151e-04
8.2980173e-04
7.9510066e-04
7.3955598e-04
6.6993800e-04
5.9700541e-04
5.3482846e-04
4.9792096e-04
4.9679861e-04
5.3322367e-04
5.9662734e-04
6.6308768e-04
6.9780626e-04
6.6118495e-04
5.1751037e-04
2.4437792e-04
-1.5931318e-04
-6.6876267e-04
-1.2335779e-03
-1.7837530e-03
-2.2408976e-03
-2.5328163e-03
-2.6083943e-03
-2.4489965e-03
-2.0725453e-03
-1.5288261e-03
-8.8820642e-04
-2.2757799e-04
3.8287646e-04
8.8936936e-04
1.2593799e-03
1.4819806e-03
1.5649390e-03
1.5302113e-03
1.4090284e-03
1.2369867e-03
1.0489667e-03
8.7378390e-04
7.2919626e-04
6.1867059e-04
5.3146127e-04
4.4672998e-04
3.4086405e-04
1.9562133e-04
4.1874160e-06
-2.2691662e-04
-4.8040190e-04
-7.3336523e-04
-9.6170258e-04
-1.1423169e-03
-1.2544305e-03
-1.2811989e-03
-1.2117794e-03
-1.0436246e-03
-7.8438908e-04
-4.5258089e-04
-7.6286621e-05
3.1005548e-04
6.7012394e-04
9.7031386e-04
1.1834530e-03
1.2911315e-03
1.2848019e-03
1.1662111e-03
9.4760146e-04
6.5160381e-04
3.1025924e-04
-3.7529120e-05
-3.5050421e-04
-5.9116889e-04
-7.3222566e-04
-7.6184315e-04
-6.8664965e-04
-5.3134664e-04
-3.3420692e-04
-1.3916516e-04
1.3469314e-05
9.5297308e-05
9.5172382e-05
2.0563082e-05
-1.0505058e-04
-2.4785754e-04
-3.7106860e-04
-4.4241950e-04
-4.4048868e-04
-3.5881214e-04
-2.0711229e-04
-9.3365277e-06
2.0126706e-04
3.8911447e-04
5.2375424e-04
5.8609744e-04
5.7198492e-04
4.9237711e-04
3.7032545e-04
2.3540299e-04
1.1685795e-04
3.7717828e-05
1.1579532e-05
4.2017010e-05
1.2357091e-04
2.4331654e-04
3.8239231e-04
5.1735862e-04
6.2170321e-04
6.6811236e-04
6.3208609e-04
4.9690872e-04
2.5900456e-04
-6.8150061e-05
-4.5346532e-04
-8.5200159e-04
-1.2124886e-03
-1.4866249e-03
-1.6376160e-03
-1.6459431e-03
-1.5115827e-03
-1.2530949e-03
-9.0427140e-04
-5.0774135e-04
-1.0553292e-04
2.6987192e-04
5.9989877e-04
8.7853044e-04
1.1068571e-03
1.2865851e-03
1.4154437e-03
1.4860239e-03
1.4877424e-03
1.4103460e-03
1.2472041e-03
9.9746650e-04
6.6726046e-04
2.7060041e-04
-1.6972921e-04
-6.2184872e-04
-1.0459889e-03
-1.3980185e-03
-1.6354161e-03
-1.7248633e-03
-1.6497212e-03
-1.4151739e-03
-1.0491936e-03
-5.9855030e-04
-1.2070143e-04
3.2645244e-04
6.9484458e-04
9.5421026e-04
1.0955700e-03
1.1294068e-03
1.0794210e-03
9.7405888e-04
8.3847198e-04
6.8914484e-04
5.3236642e-04
3.6643952e-04
1.8644952e-04
-1.0207207e-05
-2.1946718e-04
-4.2898163e-04
-6.1991068e-04
-7.7157038e-04
-8.6727656e-04
-8.9924309e-04
-8.7067257e-04
-7.9415377e-04
-6.8694948e-04
-5.6513352e-04
-4.3889688e-04
-3.1067862e-04
-1.7671817e-04
-3.1251883e-05
1.2859403e-04
2.9935868e-04
4.7059805e-04
6.2704036e-04
7.5237151e-04
8.3302840e-04
8.6069545e-04
8.3289986e-04
7.5181108e-04
6.2196201e-04
4.4809652e-04
2.3446608e-04
-1.3680966e-05
-2.8684182e-04
-5.6779783e-04
-8.3000057e-04
-1.0394514e-03
-1.1605405e-03
-1.1647487e-03
-1.0396590e-03
-7.9472105e-04
-4.6100598e-04
-8.4976160e-05
2.8149957e-04
5.9196301e-04
8.1422763e-04
9.3533314e-04
9.6187752e-04
9.1619689e-04
8.2966584e-04
7.3473168e-04
6.5730418e-04
6.1091479e-04
5.9367938e-04
5.8861163e-04
5.6734007e-04
4.9678175e-04
3.4775500e-04
1.0389862e-04
-2.3122692e-04
-6.3106894e-04
-1.0486777e-03
-1.4253193e-03
-1.7030857e-03
-1.8365721e-03
-1.7998594e-03
-1.5894352e-03
-1.2244091e-03
-7.4397617e-04
-2.0213802e-04
3.3977169e-04
8.2181185e-04
1.1942302e-03
1.4249234e-03
1.5039817e-03
1.4439842e-03
1.2755872e-03
1.0392224e-03
7.7494024e-04
5.1321747e-04
2.6957403e-04
4.4820285e-05
-1.6923702e-04
-3.8102032e-04
-5.9108945e-04
-7.8826046e-04
-9.5151069e-04
-1.0561427e-03
-1.0807671e-03
-1.0126613e-03
-8.5083444e-04
-6.0665684e-04
-3.0204921e-04
3.4265885e-05
3.7141420e-04
6.8068394e-04
9.3852306e-04
1.1278122e-03
1.2376070e-03
1.2619699e-03
1.1986868e-03
1.0485785e-03
8.1585105e-04
5.0954995e-04
1.4572148e-04
-2.5061030e-04
-6.4492545e-04
-9.9545003e-04
-1.2588987e-03
-1.3992856e-03
-1.3978602e-03
-1.2606457e-03
-1.0198977e-03
-7.2829539e-04
-4.4735817e-04
-2.3290501e-04
-1.2139506e-04
-1.2100044e-04
-2.0979665e-04
-3.4133924e-04
-4.5586561e-04
-4.9402986e-04
-4.0981530e-04
-1.8002609e-04
1.9093501e-04
6.7108917e-04
1.2051188e-03
1.7220557e-03
2.1455755e-03
2.4057458e-03
2.4506379e-03
2.2559724e-03
1.8311272e-03
1.2202720e-03
4.9767308e-04
-2.4393113e-04
-9.1006439e-04
-1.4210979e-03
-1.7255070e-03
-1.8084492e-03
-1.6936628e-03
-1.4375872e-03
-1.1166654e-03
-8.1065731e-04
-5.8568839e-04
-4.8058331e-04
-4.9915821e-04
-6.1000860e-04
-7.5406970e-04
-8.5876290e-04
-8.5597671e-04
-6.9987821e-04
-3.8006233e-04
7.3822251e-05
5.9788551e-04
1.1091543e-03
1.5258097e-03
1.7861633e-03
1.8604344e-03
1.7527469e-03
1.4945908e-03
1.1324135e-03
7.1280697e-04
2.7028112e-04
-1.7781553e-04
-6.2756649e-04
-1.0777709e-03
-1.5167216e-03
-1.9119214e-03
-2.2074415e-03
-2.3315763e-03
-2.2143766e-03
-1.8109741e-03
-1.1234881e-03
-2.1331093e-04
8.0226436e-04
1.7701997e-03
2.5339746e-03
2.9689635e-03
3.0107981e-03
2.6689978e-03
2.0231454e-03
1.2037465e-03
3.6155414e-04
-3.6788431e-04
-8.9251834e-04
-1.1756843e-03
-1.2312083e-03
-1.1074719e-03
-8.6814617e-04
-5.7606195e-04
-2.8362778e-04
-2.9856164e-05
1.5840408e-04
2.6432773e-04
2.8053635e-04
2.1052134e-04
7.0464882e-05
-1.1095278e-04
-2.9637143e-04
-4.4700310e-04
-5.3133910e-04
-5.3247419e-04
-4.5175095e-04
-3.0805971e-04
-1.3384592e-04
3.0644514e-05
1.4481740e-04
1.7734650e-04
1.1558987e-04
-2.9435027e-05
-2.2486986e-04
-4.2416749e-04
-5.7910096e-04
-6.5194938e-04
-6.2417753e-04
-4.9929084e-04
-2.9967035e-04
-5.9067190e-05
1.8656564e-04
4.0716739e-04
5.8355948e-04
7.0852102e-04
7.8445447e-04
8.1905676e-04
8.2066491e-04
7.9468506e-04
7.4200963e-04
6.5970646e-04
5.4359828e-04
3.9178079e-04
2.0755910e-04
2.0688872e-07
-2.1673496e-04
-4.2835651e-04
-6.2098169e-04
-7.8361522e-04
-9.0812722e-04
-9.8868578e-04
-1.0211298e-03
-1.0027128e-03
-9.3229724e-04
-8.1089886e-04
-6.4239896e-04
-4.3413607e-04
-1.9701232e-04
5.5134553e-05
3.0682802e-04
5.4253121e-04
7.4801684e-04
9.1119823e-04
1.0224036e-03
1.0744152e-03
1.0628246e-03
9.8698106e-04
8.5052163e-04
6.6068118e-04
4.2770022e-04
1.6534698e-04
-1.0815429e-04
-3.7003519e-04
-5.9478146e-04
-7.5801525e-04
-8.4147162e-04
-8.3728723e-04
-7.4995641e-04
-5.9528185e-04
-3.9684801e-04
-1.8133652e-04
2.5910434e-05
2.0415607e-04
3.3909488e-04
4.2342409e-04
4.5647355e-04
4.4312358e-04
3.9218048e-04
3.1449312e-04
2.2130201e-04
1.2334734e-04
3.0643810e-05
-4.8092593e-05
-1.0664887e-04
-1.4200070e-04
-1.5395122e-04
-1.4438536e-04
-1.1688628e-04
-7.6982746e-05
-3.2708437e-05
5.1869411e-06
2.4029858e-05
1.1434650e-05
-4.1093297e-05
-1.3388359e-04
-2.5561351e-04
-3.8240238e-04
-4.8089710e-04
-5.1560336e-04
-4.5904087e-04
-3.0173675e-04
-5.8488706e-05
2.3175709e-04
5.1290213e-04
7.2352573e-04
8.1015824e-04
7.3963441e-04
5.0830673e-04
1.4468303e-04
-2.9568342e-04
-7.4083723e-04
-1.1154863e-03
-1.3537460e-03
-1.4095608e-03
-1.2635634e-03
-9.2576253e-04
-4.3393732e-04
1.5190117e-04
7.5810704e-04
1.3077681e-03
1.7313898e-03
1.9764653e-03
2.0146326e-03
1.8453470e-03
1.4953991e-03
1.0141987e-03
4.6545377e-04
-8.3367816e-05
-5.7192021e-04
-9.5650687e-04
-1.2158403e-03
-1.3503752e-03
-1.3757106e-03
-1.3134817e-03
-1.1835054e-03
-9.9997143e-04
-7.7253550e-04
-5.1101761e-04
-2.3083816e-04
4.4008022e-05
2.8258600e-04
4.5342488e-04
5.3378690e-04
5.1850813e-04
4.2483283e-04
2.9061424e-04
1.6529407e-04
9.5684927e-05
1.1087566e-04
2.1156993e-04
3.6823194e-04
5.2966869e-04
6.3980562e-04
6.5631394e-04
5.6396375e-04
3.7882655e-04
1.4244281e-04
-9.2193275e-05
-2.7798743e-04
-3.8829224e-04
-4.2345472e-04
-4.0711211e-04
-3.7387050e-04
-3.5332110e-04
-3.5674973e-04
-3.7179711e-04
-3.6716028e-04
-3.0546323e-04
-1.5932691e-04
7.5309823e-05
3.7326351e-04
6.8348435e-04
9.4060896e-04
1.0811029e-03
1.0591823e-03
8.5805497e-04
4.9384471e-04
1.2072452e-05
-5.2124438e-04
-1.0307899e-03
-1.4429404e-03
-1.6955374e-03
-1.7464612e-03
-1.5807456e-03
-1.2148097e-03
-6.9566350e-04
-9.3773048e-05
5.0949711e-04
1.0365968e-03
1.4263603e-03
1.6410784e-03
1.6672037e-03
1.5115833e-03
1.1966514e-03
7.5744615e-04
2.4097746e-04
-2.9419229e-04
-7.8149974e-04
-1.1551606e-03
-1.3631366e-03
-1.3801143e-03
-1.2158403e-03
-9.1573474e-04
-5.5170449e-04
-2.0366975e-04
6.2670429e-05
2.1358822e-04
2.5414904e-04
2.2228482e-04
1.7322056e-04
1.6045058e-04
2.1973181e-04
3.6038838e-04
5.6496949e-04
7.9556757e-04
1.0038608e-03
1.1420717e-03
1.1727223e-03
1.0756865e-03
8.5155709e-04
5.2096289e-04
1.2027835e-04
-3.0506441e-04
-7.0805149e-04
-1.0468687e-03
-1.2898608e-03
-1.4176640e-03
-1.4225151e-03
-1.3064943e-03
-1.0804113e-03
-7.6368717e-04
-3.8454612e-04
2.0667266e-05
4.1003804e-04
7.4076320e-04
9.7536198e-04
1.0881361e-03
1.0702938e-03
9.3224572e-04
7.0208208e-04
4.2016157e-04
1.3094179e-04
-1.2578683e-04
-3.2178848e-04
-4.4359869e-04
-4.9168905e-04
-4.7666640e-04
-4.1447781e-04
-3.2230966e-04
-2.1549470e-04
-1.0551993e-04
-2.9233109e-08
9.5228261e-05
1.7401023e-04
2.2841929e-04
2.4982850e-04
2.3154618e-04
1.7197607e-04
7.6804894e-05
-4.0808958e-05
-1.6224068e-04
-2.6697499e-04
-3.3664108e-04
-3.5837919e-04
-3.2685288e-04
-2.4486449e-04
-1.2293449e-04
2.1871316e-05
1.6791483e-04
2.9196290e-04
3.7311355e-04
3.9703146e-04
3.5932157e-04
2.6680671e-04
1.3624440e-04
-8.9390644e-06
-1.4300258e-04
-2.4246912e-04
-2.9010040e-04
-2.7770652e-04
-2.0748183e-04
-9.1628552e-05
4.9877341e-05
1.9317807e-04
3.1533655e-04
3.9885808e-04
4.3467943e-04
4.2277015e-04
3.7024483e-04
2.8778867e-04
1.8589480e-04
7.2476423e-05
-4.7298120e-05
-1.6925716e-04
-2.8785783e-04
-3.9481273e-04
-4.7986406e-04
-5.3378202e-04
-5.5203991e-04
-5.3689895e-04
-4.9679621e-04
-4.4318583e-04
-3.8585640e-04
-3.2858665e-04
-2.6707662e-04
-1.9020715e-04
-8.4318641e-05
6.0926397e-05
2.4697766e-04
4.6283420e-04
6.8468802e-04
8.7927954e-04
1.0105479e-03
1.0481102e-03
9.7528107e-04
7.9419062e-04
5.2629681e-04
2.0800785e-04
-1.1729893e-04
-4.0840771e-04
-6.3383990e-04
-7.7633442e-04
-8.3418102e-04
-8.1943143e-04
-7.5298059e-04
-6.5779444e-04
-5.5258658e-04
-4.4790819e-04
-3.4552933e-04
-2.4086765e-04
-1.2740035e-04
-1.5399466e-06
1.3365058e-04
2.6722842e-04
3.8222772e-04
4.6020588e-04
4.8713340e-04
4.5872619e-04
3.8338582e-04
2.8158814e-04
1.8159267e-04
1.1241905e-04
9.5943269e-05
1.4052915e-04
2.3849476e-04
3.6805366e-04
4.9778937e-04
5.9213082e-04
6.1846890e-04
5.5543428e-04
3.9975318e-04
1.6909407e-04
-1.0041609e-04
-3.6152552e-04
-5.6592561e-04
-6.7417779e-04
-6.6304611e-04
-5.2904836e-04
-2.8839094e-04
2.5730400e-05
3.6735185e-04
6.8271724e-04
9.1576064e-04
1.0142881e-03
9.3715852e-04
6.6232143e-04
1.9459107e-04
-4.2908198e-04
-1.1397865e-03
-1.8447608e-03
-2.4417944e-03
-2.8355542e-03
-2.9542129e-03
-2.7644139e-03
-2.2798561e-03
-1.5596599e-03
-6.9603610e-04
2.0528762e-04
1.0457909e-03
1.7498524e-03
2.2716100e-03
2.5928043e-03
2.7146577e-03
2.6485403e-03
2.4098429e-03
2.0173089e-03
1.4970404e-03
8.8791144e-04
2.4436757e-04
-3.6624626e-04
-8.7232318e-04
-1.2106118e-03
-1.3392335e-03
-1.2479958e-03
-9.6380668e-04
-5.4835921e-04
-8.6626504e-05
3.3105408e-04
6.2773767e-04
7.5412386e-04
6.9520480e-04
4.6915809e-04
1.2059587e-04
-2.8889992e-04
-6.9057613e-04
-1.0175200e-03
-1.2128980e-03
-1.2378242e-03
-1.0787034e-03
-7.5273301e-04
-3.0925178e-04
1.7541641e-04
6.1070610e-04
9.1081799e-04
1.0157523e-03
9.0778896e-04
6.1686247e-04
2.1271832e-04
-2.1209659e-04
-5.6370330e-04
-7.6993803e-04
-7.9941764e-04
-6.6928935e-04
-4.3784498e-04
-1.8391524e-04
2.0029747e-05
1.3181859e-04
1.5238386e-04
1.2322277e-04
1.0960263e-04
1.7528339e-04
3.5706650e-04
6.4735196e-04
9.9046078e-04
1.2945216e-03
1.4561329e-03
1.3909286e-03
1.0609687e-03
4.9062134e-04
-2.3382889e-04
-9.8118123e-04
-1.6062967e-03
-1.9870544e-03
-2.0540136e-03
-1.8036997e-03
-1.2941097e-03
-6.2580474e-04
8.4402719e-05
7.2879009e-04
1.2265286e-03
1.5313113e-03
1.6301673e-03
1.5370471e-03
1.2846721e-03
9.1667352e-04
4.8068032e-04
2.2549655e-05
-4.1786925e-04
-8.0891282e-04
-1.1270584e-03
-1.3552137e-03
-1.4805452e-03
-1.4933109e-03
-1.3879068e-03
-1.1662429e-03
-8.4131407e-04
-4.3865021e-04
4.5103564e-06
4.4245089e-04
8.2689041e-04
1.1145997e-03
1.2751985e-03
1.2976374e-03
1.1938688e-03
9.9822185e-04
7.6140444e-04
5.3920526e-04
3.7787457e-04
3.0021799e-04
2.9745084e-04
3.3075765e-04
3.4331311e-04
2.7954899e-04
1.0541253e-04
-1.7750114e-04
-5.2929027e-04
-8.8190157e-04
-1.1585472e-03
-1.2956340e-03
-1.2612434e-03
-1.0662087e-03
-7.6361072e-04
-4.3429812e-04
-1.6225111e-04
-8.5782632e-06
6.9130263e-06
-8.9137118e-05
-2.3284027e-04
-3.4311924e-04
-3.4607301e-04
-1.9635831e-04
1.1018285e-04
5.3547908e-04
1.0092116e-03
1.4463180e-03
1.7667817e-03
1.9124086e-03
1.8567641e-03
1.6068068e-03
1.1971848e-03
6.8000784e-04
1.1373197e-04
-4.4573327e-04
-9.5094873e-04
-1.3665472e-03
-1.6700497e-03
-1.8498133e-03
-1.9016518e-03
-1.8260086e-03
-1.6270723e-03
-1.3143040e-03
-9.0573840e-04
-4.3143054e-04
6.5119104e-05
5.2950808e-04
9.0377124e-04
1.1375018e-03
1.1998049e-03
1.0880539e-03
8.2998707e-04
4.7792767e-04
9.6871461e-05
-2.4958052e-04
-5.1106601e-04
-6.5723326e-04
-6.7904742e-04
-5.8584574e-04
-3.9958709e-04
-1.4820940e-04
1.3963513e-04
4.3731645e-04
7.2062475e-04
9.6675819e-04
1.1531906e-03
1.2576165e-03
1.2597117e-03
1.1447510e-03
9.0833670e-04
5.6084666e-04
1.2996120e-04
-3.4010475e-04
-7.9336930e-04
-1.1705867e-03
-1.4200307e-03
-1.5079807e-03
-1.4258644e-03
-1.1917212e-03
-8.4545305e-04
-4.3946924e-04
-2.7847812e-05
3.4267697e-04
6.3853714e-04
8.4223609e-04
9.5181167e-04
9.7661946e-04
9.3115593e-04
8.2950794e-04
6.8248858e-04
4.9821139e-04
2.8531966e-04
5.6891940e-05
-1.6730088e-04
-3.6182528e-04
-5.0012373e-04
-5.6130840e-04
-5.3703178e-04
-4.3610505e-04
-2.8506464e-04
-1.2391919e-04
2.3694004e-06
5.4816717e-05
1.0989618e-05
-1.2779387e-04
-3.3510019e-04
-5.6496430e-04
-7.6342110e-04
-8.8220540e-04
-8.8993532e-04
-7.7821410e-04
-5.6192600e-04
-2.7404485e-04
4.3269297e-05
3.4847093e-04
6.0854126e-04
8.0323487e-04
9.2530357e-04
9.7757864e-04
9.6852401e-04
9.0798281e-04
8.0440921e-04
6.6416850e-04
4.9274421e-04
2.9703123e-04
8.7479912e-05
-1.2106507e-04
-3.1035574e-04
-4.6124737e-04
-5.5686422e-04
-5.8558749e-04
-5.4333043e-04
-4.3485067e-04
-2.7403918e-04
-8.3092446e-05
1.0959978e-04
2.7294972e-04
3.7790997e-04
4.0290624e-04
3.3900763e-04
1.9361348e-04
-8.6189220e-06
-2.2861168e-04
-4.1973113e-04
-5.3780693e-04
-5.5227037e-04
-4.5554306e-04
-2.6757663e-04
-3.3220320e-05
1.8787763e-04
3.3643020e-04
3.6929087e-04
2.7110366e-04
5.8522486e-05
-2.2406767e-04
-5.1647775e-04
-7.5838862e-04
-9.0255633e-04
-9.2194869e-04
-8.1087717e-04
-5.8174383e-04
-2.5971529e-04
1.2251429e-04
5.2857464e-04
9.2077185e-04
1.2617934e-03
1.5168280e-03
1.6565834e-03
1.6608922e-03
1.5221577e-03
1.2478833e-03
8.6171144e-04
4.0252918e-04
-7.8761113e-05
-5.2508641e-04
-8.8149257e-04
-1.1048765e-03
-1.1732060e-03
-1.0916094e-03
-8.9281452e-04
-6.3079573e-04
-3.6873710e-04
-1.6446480e-04
-5.7412539e-05
-6.0520979e-05
-1.5890676e-04
-3.1535114e-04
-4.8098552e-04
-6.0840054e-04
-6.6388974e-04
-6.3568163e-04
-5.3590535e-04
-3.9565509e-04
-2.5451052e-04
-1.4761263e-04
-9.4272302e-05
-9.1744944e-05
-1.1626498e-04
-1.3112410e-04
-9.9213899e-05
4.1870803e-06
1.8291773e-04
4.1885328e-04
6.7765813e-04
9.1741976e-04
1.0971517e-03
1.1844788e-03
1.1618217e-03
1.0299443e-03
8.0810428e-04
5.3060037e-04
2.4007265e-04
-2.1381542e-05
-2.2142146e-04
-3.4465559e-04
-3.9573498e-04
-3.9744016e-04
-3.8443553e-04
-3.9452258e-04
-4.5942855e-04
-5.9660975e-04
-8.0294328e-04
-1.0511303e-03
-1.2900921e-03
-1.4508830e-03
-1.4588320e-03
-1.2506914e-03
-7.9308733e-04
-9.7351541e-05
7.7396085e-04
1.7126399e-03
2.5827685e-03
3.2469410e-03
3.5941510e-03
3.5621609e-03
3.1486529e-03
2.4088652e-03
1.4415196e-03
3.6790555e-04
-6.9007566e-04
-1.6280711e-03
-2.3707984e-03
-2.8762177e-03
-3.1333330e-03
-3.1556005e-03
-2.9723248e-03
-2.6204107e-03
-2.1383953e-03
-1.5637263e-03
-9.3304346e-04
-2.8420486e-04
3.4272145e-04
9.0734371e-04
1.3716376e-03
1.7015726e-03
1.8686550e-03
1.8527933e-03
1.6469805e-03
1.2630218e-03
7.3630127e-04
1.2699500e-04
-4.8434283e-04
-1.0072906e-03
-1.3565329e-03
-1.4679691e-03
-1.3120442e-03
-9.0109925e-04
-2.8914447e-04
4.3575720e-04
1.1649738e-03
1.7864146e-03
2.2026459e-03
2.3470841e-03
2.1951758e-03
1.7676312e-03
1.1240098e-03
3.4920314e-04
-4.6174277e-04
-1.2173139e-03
-1.8402759e-03
-2.2743833e-03
-2.4873184e-03
-2.4709509e-03
-2.2397853e-03
-1.8278079e-03
-1.2836277e-03
-6.6407861e-04
-2.7052429e-05
5.7515055e-04
1.1005444e-03
1.5193089e-03
1.8128124e-03
1.9709666e-03
1.9896982e-03
1.8700434e-03
1.6192891e-03
1.2533227e-03
7.9862810e-04
2.9231364e-04
-2.2152688e-04
-6.9879588e-04
-1.1023468e-03
-1.4064133e-03
-1.5980275e-03
-1.6757472e-03
-1.6467889e-03
-1.5238894e-03
-1.3228677e-03
-1.0612824e-03
-7.5805270e-04
-4.3353816e-04
-1.0944712e-04
1.9192302e-04
4.4934622e-04
6.4521040e-04
7.6863502e-04
8.1842123e-04
8.0465653e-04
7.4780048e-04
6.7486243e-04
6.1360576e-04
5.8681424e-04
6.0852365e-04
6.8173797e-04
7.9629825e-04
9.2855027e-04
1.0448594e-03
1.1080832e-03
1.0847521e-03
9.5117989e-04
6.9759940e-04
3.3005830e-04
-1.2989007e-04
-6.4744158e-04
-1.1782176e-03
-1.6726611e-03
-2.0805175e-03
-2.3550613e-03
-2.4570589e-03
-2.3586196e-03
-2.0469684e-03
-1.5278901e-03
-8.2830458e-04
2.7416453e-06
8.9545417e-04
1.7637452e-03
2.5132391e-03
3.0528729e-03
3.3080184e-03
3.2319155e-03
2.8144370e-03
2.0877167e-03
1.1267835e-03
4.3316999e-05
-1.0281477e-03
-1.9502784e-03
-2.6060131e-03
-2.9200742e-03
-2.8740998e-03
-2.5113952e-03
-1.9290871e-03
-1.2580164e-03
-6.3381882e-04
-1.6565531e-04
8.9153099e-05
1.3686891e-04
4.1152667e-05
-9.9714191e-05
-1.8485546e-04
-1.4086638e-04
6.0345038e-05
3.9879722e-04
8.1475913e-04
1.2249249e-03
1.5440612e-03
1.7066371e-03
1.6820196e-03
1.4795467e-03
1.1434882e-03
7.4075771e-04
3.4545553e-04
2.3928159e-05
-1.7723989e-04
-2.3906722e-04
-1.7314203e-04
-1.9115407e-05
1.6350290e-04
3.0840134e-04
3.5796617e-04
2.7747068e-04
6.3936972e-05
-2.5304191e-04
-6.1867720e-04
-9.6599065e-04
-1.2306747e-03
-1.3646750e-03
-1.3455187e-03
-1.1787341e-03
-8.9344625e-04
-5.3371488e-04
-1.4863256e-04
2.1622497e-04
5.2436206e-04
7.5059952e-04
8.8073175e-04
9.0981648e-04
8.4019043e-04
6.7995413e-04
4.4232636e-04
1.4591600e-04
-1.8448473e-04
-5.1746385e-04
-8.1604989e-04
-1.0411334e-03
-1.1572567e-03
-1.1397122e-03
-9.8112697e-04
-6.9557502e-04
-3.1852871e-04
9.8485819e-05
4.9722787e-04
8.2258813e-04
1.0310021e-03
1.0969628e-03
1.0168038e-03
8.0906839e-04
5.1138624e-04
1.7433034e-04
-1.4688552e-04
-4.0165631e-04
-5.5259592e-04
-5.8175511e-04
-4.9308308e-04
-3.1068491e-04
-7.3416736e-05
1.7300992e-04
3.8501628e-04
5.2975470e-04
5.9168628e-04
5.7544234e-04
5.0373001e-04
4.1028342e-04
3.2932257e-04
2.8385989e-04
2.7598567e-04
2.8302876e-04
2.6253338e-04
1.6587918e-04
-4.3195288e-05
-3.7120780e-04
-7.8497504e-04
-1.2134017e-03
-1.5617193e-03
-1.7349013e-03
-1.6639378e-03
-1.3274016e-03
-7.6166695e-04
-5.6104051e-05
6.6619102e-04
1.2772698e-03
1.6748792e-03
1.8059807e-03
1.6765246e-03
1.3451021e-03
9.0340374e-04
4.5062295e-04
7.0051395e-05
-1.8700578e-04
-3.0831340e-04
-3.1767992e-04
-2.6256947e-04
-1.9669732e-04
-1.6349945e-04
-1.8535661e-04
-2.6093844e-04
-3.7016066e-04
-4.8399988e-04
-5.7533613e-04
-6.2716670e-04
-6.3576266e-04
-6.0829451e-04
-5.5655513e-04
-4.8982580e-04
-4.1001538e-04
-3.1097414e-04
-1.8199591e-04
-1.3829645e-05
1.9531139e-04
4.3600072e-04
6.8737566e-04
9.2055149e-04
1.1040743e-03
1.2082709e-03
1.2076518e-03
1.0840138e-03
8.3161604e-04
4.6274235e-04
1.0855798e-05
-4.7108363e-04
-9.1804409e-04
-1.2648536e-03
-1.4596177e-03
-1.4749697e-03
-1.3141119e-03
-1.0100098e-03
-6.1783368e-04
-2.0248320e-04
1.7556887e-04
4.7228911e-04
6.6675497e-04
7.6104101e-04
7.7409961e-04
7.3228489e-04
6.6008279e-04
5.7407224e-04
4.8075133e-04
3.7716924e-04
2.5436239e-04
1.0373133e-04
-7.5572531e-05
-2.7135798e-04
-4.5769997e-04
-5.9968766e-04
-6.6249746e-04
-6.2214755e-04
-4.7463449e-04
-2.4042092e-04
3.7650267e-05
3.0314725e-04
4.9959224e-04
5.8510697e-04
5.4389471e-04
3.9104830e-04
1.6903293e-04
-6.3458686e-05
-2.4734784e-04
-3.3919019e-04
-3.2246663e-04
-2.1063272e-04
-4.1655786e-05
1.3326059e-04
2.6309283e-04
3.0896785e-04
2.5188620e-04
9.5021124e-05
-1.3877818e-04
-4.1251575e-04
-6.8182218e-04
-9.0186077e-04
-1.0338839e-03
-1.0510298e-03
-9.4257337e-04
-7.1559454e-04
-3.9337282e-04
-1.0726090e-05
3.9245684e-04
7.7760234e-04
1.1119949e-03
1.3706172e-03
1.5357241e-03
1.5956807e-03
1.5449388e-03
1.3860923e-03
1.1323073e-03
8.0713678e-04
4.4126354e-04
6.7650078e-05
-2.8380701e-04
-5.9095542e-04
-8.4184094e-04
-1.0338933e-03
-1.1702059e-03
-1.2547192e-03
-1.2886563e-03
-1.2698765e-03
-1.1953158e-03
-1.0651280e-03
-8.8624946e-04
-6.7333584e-04
-4.4629105e-04
-2.2527129e-04
-2.5269186e-05
1.4741838e-04
2.9542077e-04
4.2731656e-04
5.5293040e-04
6.7898329e-04
8.0625630e-04
9.2804964e-04
1.0301097e-03
1.0927585e-03
1.0949737e-03
1.0193569e-03
8.5689897e-04
6.1056639e-04
2.9690464e-04
-5.4925977e-05
-4.0690247e-04
-7.1827477e-04
-9.5289278e-04
-1.0859505e-03
-1.1083236e-03
-1.0272414e-03
-8.6312169e-04
-6.4371284e-04
-3.9765091e-04
-1.4957436e-04
8.2049937e-05
2.8467629e-04
4.5032904e-04
5.7429998e-04
6.5401967e-04
6.8801651e-04
6.7530762e-04
6.1546639e-04
5.0933149e-04
3.6014505e-04
1.7481555e-04
-3.5051206e-05
-2.5280025e-04
-4.5744644e-04
-6.2561452e-04
-7.3454183e-04
-7.6571537e-04
-7.0855047e-04
-5.6348071e-04
-3.4380657e-04
-7.5547241e-05
2.0540971e-04
4.5899732e-04
6.4861189e-04
7.4889159e-04
7.5146754e-04
6.6689908e-04
5.2194491e-04
3.5263684e-04
1.9493607e-04
7.5635205e-05
6.2629443e-06
-1.8295259e-05
-1.6428730e-05
-1.3104503e-05
-3.2073572e-05
-8.9229752e-05
-1.8873423e-04
-3.2256627e-04
-4.7318990e-04
-6.1824097e-04
-7.3571399e-04
-8.0817108e-04
-8.2496656e-04
-7.8226003e-04
-6.8149541e-04
-5.2765923e-04
-3.2852711e-04
-9.5198699e-05
1.5691501e-04
4.0807102e-04
6.3617435e-04
8.2044333e-04
9.4512670e-04
1.0019095e-03
9.9070284e-04
9.1879071e-04
7.9848078e-04
6.4394009e-04
4.6825444e-04
2.8167031e-04
9.1467595e-05
-9.6794279e-05
-2.7747507e-04
-4.4345663e-04
-5.8577956e-04
-6.9436855e-04
-7.5943117e-04
-7.7298743e-04
-7.3019686e-04
-6.3045642e-04
-4.7834332e-04
-2.8427973e-04
-6.4554472e-05
1.5959039e-04
3.6379585e-04
5.2377876e-04
6.2012141e-04
6.4270705e-04
5.9233506e-04
4.7912720e-04
3.1887158e-04
1.2879403e-04
-7.5902311e-05
-2.8379985e-04
-4.8699320e-04
-6.7907311e-04
-8.5219509e-04
-9.9439715e-04
-1.0883792e-03
-1.1126490e-03
-1.0453023e-03
-8.6985849e-04
-5.8173033e-04
-1.9338072e-04
2.6371426e-04
7.4145106e-04
1.1818199e-03
1.5267028e-03
1.7286147e-03
1.7601867e-03
1.6203608e-03
1.3353194e-03
9.5322340e-04
5.3365785e-04
1.3435538e-04
-2.0104051e-04
-4.5039593e-04
-6.1346548e-04
-7.0558154e-04
-7.4749197e-04
-7.5548504e-04
-7.3551886e-04
-6.8321981e-04
-5.8923385e-04
-4.4746143e-04
-2.6277002e-04
-5.5014141e-05
1.4258060e-04
2.9076049e-04
3.5538783e-04
3.1887892e-04
1.8791802e-04
-5.7298895e-06
-2.1211920e-04
-3.7506049e-04
-4.4518350e-04
-3.9176404e-04
-2.1124288e-04
6.9958980e-05
3.9951547e-04
7.0946602e-04
9.3035274e-04
1.0060116e-03
9.0580417e-04
6.3182833e-04
2.1981482e-04
-2.6641904e-04
-7.4614361e-04
-1.1368530e-03
-1.3707323e-03
-1.4089136e-03
-1.2497516e-03
-9.2846174e-04
-5.0786700e-04
-6.2819847e-05
3.3703226e-04
6.4105494e-04
8.2486907e-04
8.9046961e-04
8.5995358e-04
7.6501729e-04
6.3583741e-04
4.9267302e-04
3.4209624e-04
1.7822061e-04
-1.1947214e-05
-2.4064497e-04
-5.1090111e-04
-8.0951028e-04
-1.1034657e-03
-1.3416067e-03
-1.4623792e-03
-1.4070919e-03
-1.1361661e-03
-6.4422852e-04
3.0750047e-05
8.0808393e-04
1.5760241e-03
2.2124154e-03
2.6095265e-03
2.6968603e-03
2.4565836e-03
1.9279090e-03
1.1985809e-03
3.8512165e-04
-3.9284376e-04
-1.0373064e-03
-1.4892264e-03
-1.7343530e-03
-1.7969174e-03
-1.7244648e-03
-1.5697196e-03
-1.3756244e-03
-1.1675836e-03
-9.5368583e-04
-7.3079743e-04
-4.9291335e-04
-2.3824890e-04
2.7163058e-05
2.8985804e-04
5.3230014e-04
7.3741279e-04
8.9246478e-04
9.9103127e-04
1.0326398e-03
1.0208502e-03
9.6116047e-04
8.5957670e-04
7.2190079e-04
5.5376746e-04
3.6148123e-04
1.5328361e-04
-5.9678350e-05
-2.6335276e-04
-4.4197726e-04
-5.8016887e-04
-6.6535756e-04
-6.9005074e-04
-6.5348736e-04
-5.6223880e-04
-4.2942321e-04
-2.7255645e-04
-1.1051347e-04
3.9624257e-05
1.6503652e-04
2.5842120e-04
3.1798626e-04
3.4654738e-04
3.5014459e-04
3.3639531e-04
3.1261284e-04
2.8382223e-04
2.5124444e-04
2.1178425e-04
1.5870408e-04
8.3548082e-05
-2.0796953e-05
-1.5643463e-04
-3.1725308e-04
-4.8760305e-04
-6.4408548e-04
-7.6069165e-04
-8.1602097e-04
-8.0002863e-04
-7.1751093e-04
-5.8653129e-04
-4.3186587e-04
-2.7565816e-04
-1.2897856e-04
1.1944260e-05
1.6273132e-04
3.4189928e-04
5.5963915e-04
8.0906719e-04
1.0621795e-03
1.2715180e-03
1.3800085e-03
1.3381059e-03
1.1221350e-03
7.4677104e-04
2.6684286e-04
-2.3268388e-04
-6.5600152e-04
-9.1982246e-04
-9.7444900e-04
-8.1673284e-04
-4.9119539e-04
-7.8711291e-05
3.2441771e-04
6.3132249e-04
7.8628917e-04
7.7695822e-04
6.3341064e-04
4.1471019e-04
1.8761965e-04
4.8765243e-06
-1.0983038e-04
-1.6695784e-04
-2.0678040e-04
-2.8627753e-04
-4.5893869e-04
-7.5311939e-04
-1.1567526e-03
-1.6143359e-03
-2.0375514e-03
-2.3260761e-03
-2.3921789e-03
-2.1823523e-03
-1.6909711e-03
-9.6362961e-04
-9.0240764e-05
8.1041832e-04
1.6120461e-03
2.2044078e-03
2.5144577e-03
2.5198578e-03
2.2510774e-03
1.7814389e-03
1.2083218e-03
6.3161724e-04
1.3574527e-04
-2.2279106e-04
-4.2275370e-04
-4.7782201e-04
-4.2737355e-04
-3.2208649e-04
-2.0948356e-04
-1.2349610e-04
-8.0020570e-05
-7.8146540e-05
-1.0504918e-04
-1.4198334e-04
-1.6942231e-04
-1.7062331e-04
-1.3400758e-04
-5.5188358e-05
6.0861454e-05
1.9793976e-04
3.2849732e-04
4.1709493e-04
4.2836836e-04
3.3826323e-04
1.4477086e-04
-1.2685663e-04
-4.2801609e-04
-6.9906839e-04
-8.8532244e-04
-9.5126436e-04
-8.8864171e-04
-7.1610002e-04
-4.7137986e-04
-1.9974090e-04
5.7056451e-05
2.6814874e-04
4.1644576e-04
4.9785507e-04
5.1839897e-04
4.9055212e-04
4.2966870e-04
3.5105809e-04
2.6803767e-04
1.9098376e-04
1.2709838e-04
8.0514286e-05
5.2503835e-05
4.1765049e-05
4.4867325e-05
5.6922195e-05
