3.1963378e-02
7.6083053e-02
1.1257818e-01
1.3445044e-01
1.3761173e-01
1.2551065e-01
1.0513976e-01
8.0273492e-02
5.3601724e-02
2.7538465e-02
3.4865106e-03
-1.5309733e-02
-2.6617346e-02
-2.9142880e-02
-1.7994067e-02
1.1077051e-02
5.9050986e-02
1.2464863e-01
2.0070773e-01
2.7177903e-01
3.2101044e-01
3.3830314e-01
3.1509704e-01
2.3939807e-01
9.5902379e-02
-8.3274386e-02
-2.1389148e-01
-2.6773147e-01
-2.7706362e-01
-2.6872248e-01
-2.5770408e-01
-2.5198140e-01
-2.5036844e-01
-2.4513538e-01
-2.3245794e-01
-2.1243251e-01
-1.8546741e-01
-1.5318403e-01
-1.1978564e-01
-8.9478379e-02
-6.1572872e-02
-3.4749001e-02
-7.8283426e-03
2.2229710e-02
5.7268373e-02
9.7340788e-02
1.3993964e-01
1.7798698e-01
2.0302973e-01
2.1278669e-01
2.0875576e-01
1.9504128e-01
1.8230864e-01
1.8006078e-01
1.9064143e-01
2.1249274e-01
2.4336630e-01
2.7917248e-01
3.1477721e-01
3.4983751e-01
3.8642712e-01
4.2764088e-01
4.7814307e-01
5.3798095e-01
6.0132463e-01
6.6060521e-01
7.0763257e-01
7.3273665e-01
7.3097516e-01
7.0249278e-01
6.4663959e-01
5.6471527e-01
4.6012460e-01
3.3213668e-01
1.7880500e-01
1.4386135e-02
-1.4093183e-01
-2.8318353e-01
-4.0963583e-01
-5.1379992e-01
-5.9142628e-01
-6.3481236e-01
-6.3996348e-01
-6.1055359e-01
-5.5137590e-01
-4.6982622e-01
-3.7594581e-01
-2.7472522e-01
-1.6854877e-01
-6.3104145e-02
3.8198074e-02
1.3571060e-01
2.2589621e-01
3.0305495e-01
3.6560741e-01
4.1257854e-01
4.4530957e-01
4.7031298e-01
4.8969380e-01
5.0052199e-01
5.0055502e-01
4.8111890e-01
4.2813134e-01
3.3427609e-01
2.0061122e-01
3.7239071e-02
-1.3850790e-01
-3.1279868e-01
-4.7375608e-01
-5.9870542e-01
-6.6326166e-01
-6.6534500e-01
-6.2433431e-01
-5.6218033e-01
-4.9684453e-01
-4.4084072e-01
-3.9573636e-01
-3.5939725e-01
-3.3787957e-01
-3.4694570e-01
-4.0538967e-01
-5.1806808e-01
-6.6232619e-01
-7.9515540e-01
-8.5900272e-01
-8.2752399e-01
-7.2702326e-01
-5.7268943e-01
-3.7484040e-01
-1.7224948e-01
-1.5009926e-02
5.7991274e-02
3.6785697e-02
-6.1532768e-02
-1.9971422e-01
-3.3238428e-01
-4.2384968e-01
-4.5317250e-01
-4.1667075e-01
-3.3393949e-01
-2.3504112e-01
-1.4295544e-01
-7.2034396e-02
-3.0167917e-02
-1.4568233e-02
-1.0413683e-02
-1.2598555e-03
2.5110576e-02
7.7060363e-02
1.6149286e-01
2.5351396e-01
2.9856630e-01
2.8345548e-01
2.3343840e-01
1.7120079e-01
1.0995071e-01
5.5270936e-02
1.0161356e-02
-2.6243250e-02
-5.7175998e-02
-8.2854767e-02
-1.0183733e-01
-1.1668368e-01
-1.2545757e-01
-1.1800572e-01
-9.1530222e-02
-5.3007936e-02
-1.0735236e-02
2.6057797e-02
5.2288055e-02
7.3371314e-02
9.7730013e-02
1.2667148e-01
1.5593793e-01
1.8122057e-01
2.0117219e-01
2.1715023e-01
2.3049243e-01
2.4131592e-01
2.4998790e-01
2.5754204e-01
2.6181920e-01
2.6038522e-01
2.5344719e-01
2.3581095e-01
2.0120450e-01
1.5397362e-01
1.0324104e-01
5.6374196e-02
2.1901887e-02
3.3724072e-03
-3.7121290e-03
-2.8511028e-03
3.0621859e-03
9.3057242e-03
1.6008337e-02
2.6749351e-02
3.9401240e-02
4.7140700e-02
4.2550045e-02
2.8645922e-02
2.1119765e-02
2.7554860e-02
4.2417197e-02
5.8514747e-02
7.2438142e-02
8.0304053e-02
7.7596121e-02
6.2645010e-02
3.4225208e-02
-4.1564584e-03
-4.1873680e-02
-7.0033721e-02
-8.6121730e-02
-9.1770999e-02
-9.0938033e-02
-8.8840051e-02
-8.6367315e-02
-7.9386037e-02
-6.7940258e-02
-5.6052497e-02
-4.5502892e-02
-3.6171997e-02
-2.8706284e-02
-2.3875852e-02
-2.2132990e-02
-2.4016977e-02
-2.7134051e-02
-2.8513689e-02
-2.9556511e-02
-3.3938439e-02
-4.3568355e-02
-5.8867780e-02
-7.7659706e-02
-9.4104220e-02
-1.0308063e-01
-9.8526452e-02
-7.4609650e-02
-3.4384958e-02
1.2400141e-02
6.0288142e-02
1.0725142e-01
1.5234355e-01
1.9929286e-01
2.4627717e-01
2.8424130e-01
3.0525711e-01
2.9791079e-01
2.4282885e-01
1.1290251e-01
-5.9236020e-02
-1.8183253e-01
-2.2767189e-01
-2.2340397e-01
-1.9197187e-01
-1.5449848e-01
-1.2184403e-01
-9.8040031e-02
-8.3925767e-02
-7.6734550e-02
-7.2236962e-02
-6.4541790e-02
-4.9726021e-02
-3.0796803e-02
-1.4397579e-02
-4.6306042e-03
-2.4048715e-03
-8.0616562e-03
-1.8020786e-02
-2.5047642e-02
-2.6112344e-02
-2.2206899e-02
-1.5913549e-02
-1.2086938e-02
-1.2000757e-02
-1.1398775e-02
-7.3964125e-03
5.2601249e-04
1.3780543e-02
3.0530170e-02
4.6533736e-02
6.0091571e-02
6.7734071e-02
6.3995483e-02
4.6596852e-02
1.6932255e-02
-2.4659438e-02
-7.7495983e-02
-1.3370911e-01
-1.8466400e-01
-2.2581095e-01
-2.5361987e-01
-2.7181145e-01
-2.8919193e-01
-3.0692013e-01
-3.2162063e-01
-3.2698771e-01
-3.0702344e-01
-2.4218655e-01
-1.0850519e-01
6.9357356e-02
2.1043049e-01
2.8727183e-01
3.2537307e-01
3.4398042e-01
3.5042637e-01
3.4611011e-01
3.3659242e-01
3.2472904e-01
3.0915462e-01
2.9006653e-01
2.6418267e-01
2.2507729e-01
1.7321311e-01
1.1237426e-01
4.5848226e-02
-1.7639739e-02
-6.9225115e-02
-1.0486660e-01
-1.2332399e-01
-1.2705780e-01
-1.2118693e-01
-1.1086791e-01
-9.8656468e-02
-8.4955231e-02
-6.8775158e-02
-4.7306243e-02
-2.1468656e-02
6.0896848e-03
3.5874508e-02
6.6257608e-02
9.3949353e-02
1.1927973e-01
1.4285343e-01
1.6229087e-01
1.7729984e-01
1.9013354e-01
1.9913461e-01
2.0219323e-01
2.0256024e-01
2.0265120e-01
2.0154983e-01
1.9952310e-01
1.9766845e-01
1.9671930e-01
1.9523309e-01
1.8552271e-01
1.5479445e-01
8.4092688e-02
-6.3400943e-02
-2.6328178e-01
-4.1362226e-01
-4.8371434e-01
-5.0892971e-01
-5.0857558e-01
-4.9178230e-01
-4.6525907e-01
-4.3404406e-01
-4.0003626e-01
-3.6698839e-01
-3.4021118e-01
-3.2138510e-01
-3.1210771e-01
-3.1472632e-01
-3.2662267e-01
-3.4419504e-01
-3.6689054e-01
-3.9407716e-01
-4.2703269e-01
-4.6463154e-01
-4.9681877e-01
-5.1017328e-01
-4.9059736e-01
-4.1626798e-01
-2.5330480e-01
-4.2551305e-02
1.0031853e-01
1.4702784e-01
1.3911815e-01
1.0365406e-01
6.3315367e-02
3.2424295e-02
1.5176826e-02
1.1301609e-02
1.7494498e-02
3.0891642e-02
5.5947394e-02
9.9054471e-02
1.6448800e-01
2.6045708e-01
3.9580338e-01
5.7318799e-01
7.9159786e-01
1.0460170e+00
1.3183629e+00
1.5745902e+00
1.7675231e+00
1.8316916e+00
1.6869223e+00
1.2456127e+00
6.1365460e-01
9.8687892e-02
-1.8802650e-01
-3.2588882e-01
-3.7332743e-01
-3.7246218e-01
-3.5865678e-01
-3.5806185e-01
-3.8157491e-01
-4.2499481e-01
-4.7740177e-01
-5.2833265e-01
-5.6811256e-01
-5.9347581e-01
-6.0752412e-01
-6.1457581e-01
-6.2396737e-01
-6.4357300e-01
-6.7011395e-01
-6.9691674e-01
-7.1449018e-01
-7.0370605e-01
-6.4053037e-01
-4.9572779e-01
-2.2226057e-01
1.2625271e-01
3.8345965e-01
5.0043731e-01
5.3388343e-01
5.2034179e-01
4.8448880e-01
4.4314656e-01
4.0234883e-01
3.6161594e-01
3.2024874e-01
2.7570628e-01
2.2452900e-01
1.6759128e-01
1.1046232e-01
5.9997445e-02
2.1974333e-02
-1.0004263e-03
-1.3118878e-02
-2.0859010e-02
-2.8183221e-02
-4.0883015e-02
-6.1662414e-02
-8.5043635e-02
-1.0496027e-01
-1.1185795e-01
-1.0452499e-01
-9.7893861e-02
-9.1381723e-02
-6.8134499e-02
-2.2875587e-02
3.4534013e-02
8.6653465e-02
1.1364507e-01
1.0517817e-01
6.7901926e-02
1.8876325e-02
-2.5914572e-02
-5.3765345e-02
-5.0220564e-02
-9.7648831e-03
5.5136581e-02
1.2525353e-01
1.8019641e-01
2.0037815e-01
1.7586108e-01
1.0758961e-01
8.7270517e-03
-9.8089813e-02
-1.9222662e-01
-2.5690390e-01
-2.8891131e-01
-3.0204334e-01
-3.0320820e-01
-2.8916859e-01
-2.5926547e-01
-2.1810865e-01
-1.7141302e-01
-1.2208863e-01
-7.5241193e-02
-3.4225780e-02
2.6673399e-03
2.8752014e-02
3.0250599e-02
-7.6572111e-04
-7.1709295e-02
-1.8670353e-01
-3.3800160e-01
-5.1255190e-01
-6.9101051e-01
-8.4680337e-01
-9.5512648e-01
-9.9688488e-01
-9.6290078e-01
-8.5961157e-01
-7.0606166e-01
-5.4038305e-01
-4.0003338e-01
-2.8738572e-01
-1.9343428e-01
-1.1519614e-01
-4.7813946e-02
1.5518268e-02
8.1111565e-02
1.4415886e-01
1.9718221e-01
2.4372456e-01
2.8910862e-01
3.3535122e-01
3.8359915e-01
4.3002138e-01
4.6001223e-01
4.5437462e-01
4.0604239e-01
3.2024194e-01
2.0874509e-01
9.0195427e-02
-1.7032454e-02
-9.6216622e-02
-1.2872268e-01
-9.1891276e-02
-9.6143428e-03
4.4852147e-02
5.0331589e-02
3.3033324e-02
1.1863231e-02
-2.0806530e-03
-4.5917560e-03
7.0363712e-03
3.7155960e-02
8.6399343e-02
1.4971765e-01
2.2136914e-01
2.9345895e-01
3.5735577e-01
4.0687902e-01
4.3079983e-01
4.1741932e-01
3.6730443e-01
2.9090632e-01
2.0363712e-01
1.2063556e-01
4.8289299e-02
-1.9162586e-02
-9.8739039e-02
-2.1797277e-01
-3.5481998e-01
-4.3128213e-01
-4.2461179e-01
-3.6635254e-01
-2.7652428e-01
-1.6370038e-01
-4.0368299e-02
7.8556452e-02
1.8548567e-01
2.7715140e-01
3.5395179e-01
4.1802605e-01
4.6624948e-01
4.9347550e-01
4.9717766e-01
4.7600870e-01
4.3461850e-01
3.8363719e-01
3.3463703e-01
2.9740447e-01
2.7634925e-01
2.6967505e-01
2.6590200e-01
2.4482907e-01
1.8565674e-01
1.0065436e-01
3.2820520e-02
-3.5189995e-03
-1.8125625e-02
-1.8007090e-02
-1.0654369e-02
-1.4430007e-03
8.7407751e-03
2.2430204e-02
3.9781504e-02
5.9088036e-02
7.9676157e-02
9.8563233e-02
1.0986472e-01
1.1256406e-01
1.1169602e-01
1.0994039e-01
1.0685452e-01
1.0355854e-01
1.0230021e-01
1.0220053e-01
9.7776633e-02
8.1520795e-02
4.8580000e-02
-5.0757843e-03
-6.8957646e-02
-1.1494154e-01
-1.3258659e-01
-1.3402494e-01
-1.3505889e-01
-1.4463342e-01
-1.6244749e-01
-1.8835077e-01
-2.2033244e-01
-2.5110179e-01
-2.7651295e-01
-2.9446776e-01
-3.0342334e-01
-3.1318878e-01
-3.3890254e-01
-3.8389824e-01
-4.4225567e-01
-5.0479294e-01
-5.5870018e-01
-5.9196096e-01
-5.9681286e-01
-5.6751561e-01
-4.9555145e-01
-3.6518252e-01
-1.4464195e-01
1.2939998e-01
3.4206185e-01
4.5974482e-01
5.1984388e-01
5.4492278e-01
5.4709486e-01
5.3359353e-01
5.0732763e-01
4.6921453e-01
4.2462982e-01
3.7893153e-01
3.3593583e-01
3.0153902e-01
2.7791718e-01
2.5719502e-01
2.2718649e-01
1.7866693e-01
1.1326105e-01
5.6004521e-02
3.7386781e-02
6.1448859e-02
1.1154130e-01
1.6441491e-01
1.8980782e-01
1.5486085e-01
7.9244844e-02
2.7508391e-02
9.3052860e-03
-1.6119284e-03
-1.8645627e-02
-5.3731147e-02
-1.1206204e-01
-1.8814665e-01
-2.7330871e-01
-3.5927611e-01
-4.2872827e-01
-4.5739279e-01
-4.2929149e-01
-3.4440079e-01
-2.1883494e-01
-8.1372881e-02
3.5057900e-02
1.0523021e-01
1.2305643e-01
1.0794036e-01
9.3247032e-02
9.9878174e-02
1.2318458e-01
1.4080746e-01
1.1611925e-01
4.5715440e-02
-2.5197811e-02
-8.3176139e-02
-1.4204359e-01
-1.9795983e-01
-2.4092153e-01
-2.6168826e-01
-2.5232075e-01
-2.1416119e-01
-1.6019364e-01
-1.0379350e-01
-5.5629283e-02
-2.4006454e-02
-1.1561215e-02
-1.6241797e-02
-3.1144606e-02
-4.6874638e-02
-5.7738148e-02
-6.4788967e-02
-7.0211797e-02
-7.2932604e-02
-7.3771805e-02
-7.1189620e-02
-5.0268874e-02
1.6320291e-02
1.1604268e-01
1.9182753e-01
2.2427167e-01
2.2819483e-01
2.1476849e-01
1.9112794e-01
1.6020852e-01
1.2690432e-01
9.6221365e-02
7.1914576e-02
5.5968015e-02
4.5398978e-02
3.1925527e-02
6.8124683e-03
-3.4462032e-02
-9.3939757e-02
-1.6823448e-01
-2.4511654e-01
-3.1319885e-01
-3.6746299e-01
-4.0198109e-01
-4.0944336e-01
-3.8023928e-01
-2.9256516e-01
-1.0698699e-01
1.3874641e-01
3.2160456e-01
4.0737514e-01
4.4007908e-01
4.4470483e-01
4.3406289e-01
4.1621895e-01
3.9514468e-01
3.7409182e-01
3.5557818e-01
3.4030192e-01
3.2895164e-01
3.1838609e-01
3.0407979e-01
2.8857878e-01
2.7764153e-01
2.7638366e-01
2.9025015e-01
3.2046749e-01
3.5985397e-01
3.9286751e-01
3.9821738e-01
3.4687766e-01
2.0006759e-01
-9.4720949e-02
-4.7863072e-01
-7.7062558e-01
-9.1053306e-01
-9.5375149e-01
-9.4019636e-01
-8.9204992e-01
-8.2231685e-01
-7.3888473e-01
-6.4236063e-01
-5.3612250e-01
-4.3133050e-01
-3.3830500e-01
-2.5970218e-01
-1.9341314e-01
-1.3389906e-01
-7.0188126e-02
9.4188389e-03
1.0994231e-01
2.2901509e-01
3.5500120e-01
4.6541184e-01
5.3746289e-01
5.4526999e-01
4.4523489e-01
1.7145107e-01
-2.0128249e-01
-4.4730706e-01
-4.9614649e-01
-4.1938263e-01
-2.6866661e-01
-8.1853005e-02
1.0946699e-01
2.7615390e-01
3.9983577e-01
4.7809405e-01
5.1540461e-01
5.2035233e-01
5.0779312e-01
4.8773973e-01
4.6279571e-01
4.3548762e-01
4.0513419e-01
3.7039700e-01
3.3823326e-01
3.1762390e-01
3.1059312e-01
3.1055239e-01
3.0015686e-01
2.5027634e-01
1.1793206e-01
-6.9917914e-02
-2.0744371e-01
-2.6095118e-01
-2.6323939e-01
-2.3534417e-01
-1.8847958e-01
-1.3145217e-01
-7.6376127e-02
-3.0811132e-02
5.1538822e-03
2.9603364e-02
3.6727987e-02
2.4275532e-02
-6.8334434e-03
-5.7537497e-02
-1.2555284e-01
-2.0105276e-01
-2.7629510e-01
-3.4738855e-01
-4.0647516e-01
-4.4614528e-01
-4.6085117e-01
-4.4136289e-01
-3.7487471e-01
-2.4084752e-01
-6.4049847e-02
7.6147849e-02
1.5440428e-01
1.9957989e-01
2.2946757e-01
2.4934381e-01
2.6012297e-01
2.6131725e-01
2.5069917e-01
2.2900474e-01
2.0491920e-01
1.8908447e-01
1.8635388e-01
1.9322198e-01
1.9682506e-01
1.8802842e-01
1.6957539e-01
1.4463968e-01
1.1577928e-01
8.9261692e-02
6.9154019e-02
5.1558775e-02
2.5685839e-02
-2.4810641e-02
-1.2502529e-01
-2.5609168e-01
-3.4950665e-01
-3.8333274e-01
-3.7712618e-01
-3.4245422e-01
-2.9055927e-01
-2.3309668e-01
-1.7485854e-01
-1.1759547e-01
-6.5197688e-02
-1.7985796e-02
2.4881296e-02
5.9209751e-02
7.9363191e-02
8.1835536e-02
6.6811254e-02
3.9670014e-02
9.6573025e-03
-1.5625016e-02
-3.2648223e-02
-3.8809499e-02
-3.6489487e-02
-3.3701457e-02
-3.4205031e-02
-3.7192580e-02
-3.9330750e-02
-3.4809450e-02
-2.4530490e-02
-1.5112565e-02
-8.4736657e-03
-3.2255186e-03
2.8454355e-04
7.5603828e-04
-2.2952794e-03
-7.6652074e-03
-9.5920724e-03
1.4666962e-03
2.8555269e-02
6.6915163e-02
1.1085034e-01
1.5138712e-01
1.7877093e-01
1.9200365e-01
1.9558894e-01
1.9229481e-01
1.8780428e-01
1.8606673e-01
1.7925161e-01
1.5183291e-01
8.0630740e-02
-2.4522561e-02
-1.1380787e-01
-1.7567212e-01
-2.3343399e-01
-2.9954446e-01
-3.7332548e-01
-4.5088363e-01
-5.3078437e-01
-6.0435049e-01
-6.5283391e-01
-6.4456726e-01
-5.4471955e-01
-3.4936470e-01
-9.5661520e-02
1.6303684e-01
3.8271916e-01
5.4185176e-01
6.4205233e-01
6.9610791e-01
7.1630404e-01
7.1282419e-01
6.9102178e-01
6.4696468e-01
5.7783405e-01
4.9606954e-01
3.9881639e-01
2.5937715e-01
7.9668301e-02
-1.1086278e-01
-2.8390755e-01
-4.1658567e-01
-4.9904064e-01
-5.3107741e-01
-5.1525091e-01
-4.6401025e-01
-3.9379973e-01
-3.0951159e-01
-2.1398320e-01
-1.1791278e-01
-3.1616099e-02
4.1429411e-02
1.0259515e-01
1.5220306e-01
1.8171321e-01
1.6948983e-01
1.0119181e-01
-7.6148366e-03
-1.2928848e-01
-2.4339188e-01
-3.2826236e-01
-3.7217108e-01
-3.7679960e-01
-3.3137333e-01
-2.3634179e-01
-1.3505541e-01
-8.1595286e-02
-9.1953875e-02
-1.3314025e-01
-1.5440601e-01
-1.3376713e-01
-9.2783972e-02
-5.3142582e-02
-4.4042366e-03
6.6044185e-02
1.4769896e-01
2.2698972e-01
2.9793067e-01
3.5263880e-01
3.8725762e-01
4.1503875e-01
4.6112940e-01
5.3158389e-01
5.9745536e-01
6.3083844e-01
6.3873323e-01
6.4049445e-01
6.3966133e-01
6.3229829e-01
6.0938918e-01
5.5060790e-01
4.4245270e-01
2.9479006e-01
1.3068902e-01
-3.1780292e-02
-1.8365126e-01
-3.1889563e-01
-4.2938027e-01
-5.0756469e-01
-5.5612908e-01
-5.8567463e-01
-6.0241880e-01
-6.0531542e-01
-5.8964015e-01
-5.5220157e-01
-4.9735362e-01
-4.3596311e-01
-3.7336190e-01
-3.0300113e-01
-2.1757762e-01
-1.0835669e-01
1.0961333e-02
9.6048654e-02
1.3315408e-01
1.4270410e-01
1.4280074e-01
1.4491396e-01
1.5391668e-01
1.6552379e-01
1.6423716e-01
1.3523752e-01
7.8621461e-02
6.9282219e-03
-6.3078768e-02
-1.1576939e-01
-1.4145251e-01
-1.3573801e-01
-9.9453960e-02
-4.3517121e-02
1.4035107e-02
5.8221908e-02
7.9994142e-02
8.0297832e-02
7.6188429e-02
7.9792318e-02
7.2689498e-02
3.9217058e-02
-2.1067287e-03
-2.9638707e-02
-3.4025273e-02
-8.6632036e-03
3.6948338e-02
7.8527482e-02
1.0376871e-01
1.0970536e-01
9.8150496e-02
7.9360044e-02
5.9648503e-02
4.9965473e-02
7.3674243e-02
1.3847028e-01
2.1805397e-01
2.7196959e-01
2.7661916e-01
2.3962192e-01
1.8794981e-01
1.4558550e-01
1.1828621e-01
9.6733334e-02
6.8773405e-02
1.8629537e-02
-5.3679022e-02
-1.2459499e-01
-1.8651985e-01
-2.4626555e-01
-2.9977131e-01
-3.4396858e-01
-3.8188427e-01
-4.1146408e-01
-4.3209025e-01
-4.4678060e-01
-4.5491074e-01
-4.5334848e-01
-4.4001450e-01
-4.1845678e-01
-3.9467473e-01
-3.7382046e-01
-3.5728624e-01
-3.4202513e-01
-3.2908584e-01
-3.1882329e-01
-3.0402956e-01
-2.7720630e-01
-2.2781275e-01
-1.3684264e-01
2.5940208e-02
2.3165333e-01
3.8208731e-01
4.4436140e-01
4.4630844e-01
4.0772951e-01
3.4759907e-01
2.8222567e-01
2.2273888e-01
1.7528831e-01
1.3976791e-01
1.1415160e-01
1.0102280e-01
9.9248613e-02
1.0079958e-01
1.0185931e-01
9.9848570e-02
9.2608692e-02
8.4744758e-02
8.0261012e-02
7.5291538e-02
6.0804596e-02
3.1181837e-02
-1.0987523e-02
-5.4217002e-02
-7.8913307e-02
-7.9856040e-02
-7.0388791e-02
-5.6260723e-02
-3.8991438e-02
-2.2678011e-02
-7.1601661e-03
5.5548592e-03
1.3189753e-02
2.0958505e-02
3.1940550e-02
4.6113331e-02
6.6567296e-02
9.2812421e-02
1.1959212e-01
1.4197925e-01
1.5860443e-01
1.7099284e-01
1.8052352e-01
1.8619991e-01
1.8341590e-01
1.6823892e-01
1.4220368e-01
1.1210701e-01
8.8541174e-02
8.8790320e-02
1.0806971e-01
1.1425703e-01
1.0083515e-01
8.0575840e-02
5.6026557e-02
2.8061265e-02
-7.3341866e-04
-2.9081298e-02
-5.4892246e-02
-7.4261895e-02
-8.6310339e-02
-9.2257392e-02
-9.2029390e-02
-8.6187136e-02
-7.6862025e-02
-6.5156330e-02
-5.3052584e-02
-4.0855981e-02
-2.2905507e-02
1.6655632e-03
2.7237900e-02
4.7463977e-02
5.4079397e-02
4.1363103e-02
1.1888563e-02
-2.3591835e-02
-5.4697168e-02
-7.3972004e-02
-7.4673708e-02
-6.0255287e-02
-4.1585265e-02
-2.5176329e-02
-1.4984507e-02
-1.3225439e-02
-1.7916027e-02
-2.6400511e-02
-3.6267042e-02
-4.3323306e-02
-4.6664226e-02
-4.8914978e-02
-5.0757870e-02
-5.1157441e-02
-4.8443647e-02
-4.0424438e-02
-2.5234310e-02
-5.4688267e-03
1.1443819e-02
1.8351443e-02
1.2403399e-02
-3.5162945e-03
-2.3184509e-02
-4.1217900e-02
-5.4468393e-02
-6.0677299e-02
-5.9388784e-02
-5.1602965e-02
-3.9037308e-02
-2.4850204e-02
-1.2186134e-02
-1.1846274e-03
1.0193596e-02
2.1841103e-02
3.2062575e-02
4.0361532e-02
4.7035014e-02
5.5199070e-02
6.7863222e-02
8.1808150e-02
9.4879662e-02
1.0735938e-01
1.1501956e-01
1.1158279e-01
9.3122825e-02
6.0998031e-02
2.1767637e-02
-1.5455495e-02
-4.2033427e-02
-5.2861101e-02
-4.7662378e-02
-3.2698239e-02
-1.8832037e-02
-1.4811840e-02
-2.3142529e-02
-4.2284441e-02
-6.7575002e-02
-9.1776684e-02
-1.1040273e-01
-1.2244841e-01
-1.2902424e-01
-1.3222030e-01
-1.3162797e-01
-1.2568173e-01
-1.1314994e-01
-9.0711345e-02
-5.5166857e-02
-9.3841535e-03
3.7127239e-02
7.5599401e-02
1.0476659e-01
1.3548875e-01
1.6334695e-01
1.6184437e-01
1.3117583e-01
9.5269076e-02
7.0105380e-02
5.8505056e-02
5.4572077e-02
5.1296378e-02
4.2382179e-02
2.5440723e-02
4.0844764e-03
-1.4762081e-02
-2.4125266e-02
-2.0844833e-02
-5.9889796e-03
1.6210773e-02
4.1064747e-02
6.7641269e-02
9.6861315e-02
1.2904881e-01
1.6402173e-01
1.9610749e-01
2.1208393e-01
1.9347839e-01
1.1271399e-01
-1.7414638e-02
-1.3477840e-01
-2.1362912e-01
-2.6313650e-01
-2.8807564e-01
-2.9078636e-01
-2.7307665e-01
-2.4242039e-01
-2.1100034e-01
-1.9008519e-01
-1.8220843e-01
-1.7999558e-01
-1.7463117e-01
-1.5883218e-01
-1.2627591e-01
-7.6567173e-02
-1.6426091e-02
4.5768243e-02
1.0311531e-01
1.5335906e-01
2.0089976e-01
2.5082117e-01
2.9655240e-01
3.1064200e-01
2.4949596e-01
1.2544608e-01
1.5481775e-02
-4.8712844e-02
-7.8977604e-02
-7.7215164e-02
-3.7296420e-02
3.9122265e-02
1.2400600e-01
1.8735588e-01
2.2286030e-01
2.2688045e-01
1.9114212e-01
1.2781942e-01
6.2727241e-02
3.7361870e-03
-4.8896414e-02
-7.9177583e-02
-7.5208133e-02
-4.8782356e-02
-2.0380849e-02
5.7337738e-03
3.7414250e-02
7.1649136e-02
9.6448856e-02
1.0177107e-01
8.4626050e-02
5.4428888e-02
2.2667960e-02
-1.1592351e-02
-5.0648936e-02
-8.8435102e-02
-1.2265551e-01
-1.5994590e-01
-2.0155573e-01
-2.3627640e-01
-2.5167125e-01
-2.4116654e-01
-2.0639498e-01
-1.5453106e-01
-9.4315997e-02
-3.7677696e-02
5.1316223e-03
3.4687539e-02
5.9549230e-02
8.0772188e-02
9.2342125e-02
9.3294044e-02
8.8101927e-02
8.5498552e-02
1.0065468e-01
1.2480097e-01
1.1685765e-01
6.4974181e-02
1.9121776e-03
-3.6409780e-02
-3.5788659e-02
-1.0487538e-02
3.4182917e-03
-2.1614059e-02
-8.2475170e-02
-1.6256967e-01
-2.4723623e-01
-3.2059851e-01
-3.6991720e-01
-3.8811743e-01
-3.6702293e-01
-3.0312917e-01
-2.0165169e-01
-7.6066944e-02
4.5579992e-02
1.3314330e-01
1.8169697e-01
2.0543933e-01
2.1533097e-01
2.2819179e-01
2.5627955e-01
2.8724080e-01
3.0862859e-01
3.2059006e-01
3.2302985e-01
3.1376529e-01
2.8410383e-01
2.2611360e-01
1.6136287e-01
1.2284323e-01
1.0568075e-01
7.9415680e-02
3.6161405e-02
-4.4171261e-03
-2.4203457e-02
-1.6835681e-02
1.5693902e-02
4.9787218e-02
4.9360163e-02
9.5354646e-03
-4.1754683e-02
-8.5284003e-02
-1.2251476e-01
-1.6306878e-01
-2.1553125e-01
-2.6435091e-01
-2.8089127e-01
-2.6504863e-01
-2.2883885e-01
-1.7466661e-01
-1.0978582e-01
-4.9653854e-02
-4.5507664e-03
2.6764329e-02
4.8134619e-02
5.9084288e-02
5.8054877e-02
5.0538100e-02
4.8340291e-02
5.7222739e-02
7.2167636e-02
8.5065231e-02
8.7717725e-02
7.0256750e-02
2.5242146e-02
-4.3249426e-02
-1.1525236e-01
-1.6482141e-01
-1.6975288e-01
-1.1091445e-01
-1.2240762e-02
6.1912149e-02
8.8094192e-02
8.2360202e-02
6.2579586e-02
4.2298498e-02
2.7503723e-02
2.1384006e-02
2.4162488e-02
3.3579318e-02
4.5840891e-02
5.7791114e-02
6.9080310e-02
7.7769213e-02
8.0444142e-02
7.4727645e-02
5.8607587e-02
3.4223108e-02
5.8530309e-03
-2.4175618e-02
-5.2401017e-02
-7.4091187e-02
-8.7151755e-02
-9.2764820e-02
-9.6604876e-02
-1.0268943e-01
-1.0828801e-01
-1.1324343e-01
-1.1868694e-01
-1.2148532e-01
-1.1641987e-01
-9.9409625e-02
-6.8084201e-02
-2.1442583e-02
3.6745982e-02
9.7467900e-02
1.4365837e-01
1.5567119e-01
1.3118020e-01
8.7443385e-02
4.2823520e-02
7.1320625e-03
-1.4436995e-02
-2.0837980e-02
-1.6157214e-02
-8.0692018e-03
-5.4337121e-03
-1.0563231e-02
-1.8832779e-02
-2.5561478e-02
-2.7432968e-02
-2.2052147e-02
-9.9992480e-03
5.8224014e-03
2.4037664e-02
4.4476810e-02
6.6033655e-02
8.5940274e-02
9.8190258e-02
9.7188630e-02
8.6749773e-02
7.6648288e-02
7.2310550e-02
7.6261457e-02
8.9208551e-02
1.0654021e-01
1.2023434e-01
1.2500352e-01
1.2160792e-01
1.1122214e-01
9.3625208e-02
7.1269365e-02
4.6125940e-02
1.7306046e-02
-1.7136413e-02
-5.3594173e-02
-8.1695470e-02
-9.6898729e-02
-1.0038005e-01
-9.3258291e-02
-8.1971551e-02
-7.6781344e-02
-8.0490495e-02
-8.7751083e-02
-9.4071972e-02
-9.6659375e-02
-9.1365761e-02
-7.5870800e-02
-5.5294967e-02
-3.8446242e-02
-3.1181818e-02
-3.5871860e-02
-5.1823985e-02
-7.6223857e-02
-1.0533642e-01
-1.3291325e-01
-1.5050273e-01
-1.5281032e-01
-1.3583727e-01
-9.0025015e-02
-2.3141930e-02
3.6450922e-02
8.0439769e-02
1.1514101e-01
1.4115767e-01
1.5745504e-01
1.5912454e-01
1.3937160e-01
1.0010150e-01
5.5676825e-02
2.0139236e-02
-8.8572442e-04
-6.2308830e-03
-4.7574215e-05
8.1176467e-03
8.5144942e-03
-4.2057221e-03
-2.7822196e-02
-5.4091381e-02
-7.3911487e-02
-8.3291143e-02
-8.3297730e-02
-7.5309608e-02
-6.3267697e-02
-5.1588818e-02
-3.9924917e-02
-2.6954828e-02
-1.0306220e-02
1.2735395e-02
3.6703585e-02
5.1650369e-02
5.2098920e-02
3.5973355e-02
8.3920607e-03
-1.9039725e-02
-3.9208261e-02
-5.0321159e-02
-5.1721598e-02
-4.5634634e-02
-3.6335690e-02
-2.4389814e-02
-7.7373437e-03
1.0722436e-02
2.5361012e-02
3.6101492e-02
4.5897100e-02
5.5429703e-02
6.4834706e-02
7.3998948e-02
8.0379435e-02
8.2676325e-02
8.0710469e-02
7.4731952e-02
7.0726557e-02
7.4456170e-02
8.1655605e-02
8.1591777e-02
6.7747157e-02
4.0697847e-02
6.4834534e-03
-2.6104357e-02
-5.0267366e-02
-6.1436868e-02
-5.6035305e-02
-3.4915253e-02
-5.4217569e-03
2.5159330e-02
5.1219274e-02
6.9787169e-02
8.3306836e-02
9.3237225e-02
9.8823118e-02
9.7428724e-02
7.8656961e-02
2.3677966e-02
-5.3380100e-02
-1.0157757e-01
-1.0580616e-01
-8.6786620e-02
-6.1023201e-02
-3.5252009e-02
-9.8698528e-03
1.0852344e-02
1.6505949e-02
-1.8280485e-04
-3.7047125e-02
-8.6401970e-02
-1.3732923e-01
-1.7791215e-01
-2.0080208e-01
-2.0636671e-01
-2.0051290e-01
-1.8784915e-01
-1.6976892e-01
-1.4480414e-01
-1.0750943e-01
-5.7075592e-02
-7.7939503e-04
5.0106527e-02
7.9135585e-02
8.3953860e-02
7.9515896e-02
6.6483976e-02
4.3794953e-02
1.9771806e-02
-1.4124970e-02
-6.8405488e-02
-1.3170771e-01
-1.8064707e-01
-1.9148305e-01
-1.5609673e-01
-9.4310845e-02
-3.9723183e-02
-1.0877248e-02
2.2693712e-03
2.0207346e-02
4.6749274e-02
7.1286448e-02
8.8966384e-02
9.9259090e-02
9.7052523e-02
7.6932343e-02
4.2904058e-02
1.0333975e-02
-5.6260985e-04
1.4488659e-02
4.2404823e-02
7.9772620e-02
1.2351134e-01
1.6128117e-01
1.8480826e-01
1.9079646e-01
1.8057468e-01
1.5826896e-01
1.2446446e-01
7.6890546e-02
1.6803488e-02
-5.0901505e-02
-1.2003416e-01
-1.8292001e-01
-2.3210797e-01
-2.6222486e-01
-2.7222237e-01
-2.6904269e-01
-2.6300545e-01
-2.5459894e-01
-2.3490194e-01
-1.9885234e-01
-1.4024327e-01
-4.2497904e-02
7.9880006e-02
1.8036316e-01
2.4679443e-01
2.9019752e-01
3.1418295e-01
3.2495317e-01
3.2572862e-01
3.1496163e-01
2.9498595e-01
2.6801844e-01
2.3237920e-01
1.8906189e-01
1.4502346e-01
1.0755456e-01
8.1808368e-02
7.3234211e-02
8.1800287e-02
1.0021186e-01
1.2079317e-01
1.3898179e-01
1.5160552e-01
1.5624190e-01
1.5031253e-01
1.2685676e-01
7.1975572e-02
1.3641616e-03
-3.6591239e-02
-2.8072064e-02
7.6557474e-03
5.4840215e-02
1.0409935e-01
1.4880781e-01
1.7874760e-01
1.8556338e-01
1.7233413e-01
1.5012400e-01
1.3308090e-01
1.3281927e-01
1.5078565e-01
1.8347560e-01
2.2477724e-01
2.6501109e-01
2.9816285e-01
3.2327723e-01
3.3797779e-01
3.3536262e-01
3.0115788e-01
2.1083052e-01
3.7070254e-02
-2.2594676e-01
-5.2081456e-01
-7.5575077e-01
-8.8628263e-01
-9.1344313e-01
-8.5886141e-01
-7.5743681e-01
-6.4003919e-01
-5.3045085e-01
-4.4380073e-01
-3.8416248e-01
-3.4419682e-01
-3.0741730e-01
-2.5985288e-01
-2.0112829e-01
-1.4356149e-01
-1.0362181e-01
-9.3732362e-02
-1.1694714e-01
-1.6554353e-01
-2.2329382e-01
-2.6698848e-01
-2.7661644e-01
-2.4677773e-01
-1.7212128e-01
-3.0071812e-02
1.5338067e-01
2.9237923e-01
3.5555475e-01
3.6033335e-01
3.1409705e-01
2.2576818e-01
1.1653654e-01
2.1964230e-02
-2.7325699e-02
-2.5506828e-02
1.5904420e-02
7.6667209e-02
1.3446039e-01
1.7686444e-01
2.0393565e-01
2.2244592e-01
2.3748338e-01
2.4857977e-01
2.5682613e-01
2.6630235e-01
2.7462079e-01
2.7765495e-01
2.7456017e-01
2.5854815e-01
2.1490572e-01
1.5018981e-01
9.5013358e-02
5.6046474e-02
1.9827606e-02
-1.8585722e-02
-6.0156111e-02
-1.0058523e-01
-1.3116025e-01
-1.4813704e-01
-1.5176854e-01
-1.4312751e-01
-1.2821121e-01
-1.1657649e-01
-1.1172543e-01
-1.1368570e-01
-1.2537013e-01
-1.4670438e-01
-1.7302030e-01
-1.9988739e-01
-2.2392445e-01
-2.4194125e-01
-2.5033385e-01
-2.4198715e-01
-2.0367546e-01
-1.1710613e-01
-3.6659258e-03
7.1782508e-02
8.3986911e-02
5.2726141e-02
3.9893211e-03
-3.5552196e-02
-4.4923184e-02
-1.7723021e-02
2.9330828e-02
7.0134724e-02
8.8886671e-02
7.9278805e-02
4.1844402e-02
-1.4336575e-02
-7.2268794e-02
-1.0728080e-01
-1.0231786e-01
-6.3450317e-02
-1.1092016e-02
4.1234325e-02
9.5299378e-02
1.5238083e-01
2.0578614e-01
2.4379556e-01
2.4062422e-01
2.0485622e-01
1.9033057e-01
2.0359374e-01
2.1767186e-01
2.2753285e-01
2.3115925e-01
2.2286847e-01
2.0082124e-01
1.6629042e-01
1.2009006e-01
6.4116550e-02
3.5170080e-03
-5.8651024e-02
-1.1933256e-01
-1.6809416e-01
-1.9690346e-01
-2.0522093e-01
-1.9402191e-01
-1.6883046e-01
-1.3550096e-01
-9.4808821e-02
-4.9114521e-02
-5.4916801e-03
2.8386202e-02
4.7826810e-02
5.5643239e-02
5.8461415e-02
5.5099270e-02
4.0478788e-02
1.5612866e-02
-1.1540447e-02
-3.4856098e-02
-5.3982152e-02
-6.9490067e-02
-8.3272949e-02
-9.7303545e-02
-1.1160371e-01
-1.2629771e-01
-1.4119109e-01
-1.5180518e-01
-1.4784230e-01
-1.2548071e-01
-9.2447927e-02
-5.3846305e-02
-1.1960139e-02
2.8069066e-02
6.2014595e-02
8.9642361e-02
1.1612208e-01
1.4513791e-01
1.7057553e-01
1.8244031e-01
1.7497058e-01
1.4780236e-01
1.0838834e-01
6.9001577e-02
3.7771929e-02
1.5914196e-02
-2.8053820e-04
-1.7240021e-02
-4.1665668e-02
-7.5177617e-02
-1.1373090e-01
-1.5424843e-01
-1.9316469e-01
-2.2424398e-01
-2.4677494e-01
-2.6331290e-01
-2.7246543e-01
-2.7485445e-01
-2.7362684e-01
-2.6721453e-01
-2.4679436e-01
-2.0215875e-01
-1.2326755e-01
-2.5012828e-02
4.7735304e-02
7.5870031e-02
7.0255636e-02
4.1362740e-02
3.6057329e-03
-2.3538062e-02
-3.4767216e-02
-4.2328948e-02
-5.5947317e-02
-7.6761843e-02
-1.0048680e-01
-1.1486415e-01
-1.0732422e-01
-7.7526261e-02
-2.8062542e-02
4.1483030e-02
1.2379804e-01
2.1064176e-01
2.9773833e-01
3.7741480e-01
4.4033263e-01
4.7188786e-01
4.4363599e-01
3.0963783e-01
1.0869319e-01
-2.8707409e-02
-6.6790352e-02
-4.8766086e-02
-4.6314960e-03
3.9667218e-02
6.9188762e-02
7.8919743e-02
7.2162765e-02
6.0444756e-02
5.9050873e-02
7.9417856e-02
1.1749231e-01
1.5535359e-01
1.7524584e-01
1.6903458e-01
1.3949210e-01
9.5963391e-02
4.9926186e-02
1.2841247e-02
-8.4341498e-03
-1.6439494e-02
-2.0439326e-02
-3.2874591e-02
-6.7382167e-02
-1.0748595e-01
-1.0954924e-01
-6.4778528e-02
5.3578509e-03
8.3129034e-02
1.4971312e-01
1.8653206e-01
1.8732328e-01
1.6140320e-01
1.2289875e-01
7.5448457e-02
1.4556682e-02
-5.4790469e-02
-1.2053485e-01
-1.7161606e-01
-1.9301555e-01
-1.7353423e-01
-1.2527135e-01
-7.6806556e-02
-4.4264396e-02
-3.2439561e-02
-4.3918126e-02
-6.2702191e-02
-5.9062172e-02
-2.1688511e-02
3.5207282e-02
8.8447579e-02
1.2063484e-01
1.3405597e-01
1.4203938e-01
1.4560398e-01
1.3810441e-01
1.2096479e-01
1.0045386e-01
8.0377017e-02
6.3932523e-02
5.2647665e-02
4.1541217e-02
2.4198027e-02
2.5854265e-04
-2.8105348e-02
-6.1846589e-02
-1.0213904e-01
-1.4940487e-01
-2.0364801e-01
-2.5714958e-01
-2.9796790e-01
-3.1444711e-01
-2.8914323e-01
-2.0426895e-01
-8.7199434e-02
-2.1442779e-03
3.3626612e-02
4.2098267e-02
3.9952996e-02
3.7632709e-02
3.8217494e-02
4.1097441e-02
4.4830225e-02
4.6881272e-02
4.6650938e-02
4.7237136e-02
5.0680881e-02
5.6398102e-02
6.6062520e-02
8.2124995e-02
1.0650623e-01
1.4298298e-01
1.8924760e-01
2.3341670e-01
2.6067452e-01
2.5742963e-01
2.1478147e-01
1.3116711e-01
6.1050393e-03
-1.4485675e-01
-2.8289484e-01
-3.8593430e-01
-4.5488973e-01
-4.9281172e-01
-5.0322950e-01
-4.9186704e-01
-4.6314651e-01
-4.1629473e-01
-3.5162495e-01
-2.7186413e-01
-1.8311376e-01
-9.6745875e-02
-2.2749487e-02
3.5355013e-02
7.7539712e-02
1.0361842e-01
1.1783161e-01
1.2595124e-01
1.2992853e-01
1.3305685e-01
1.4131480e-01
1.5691786e-01
1.7831583e-01
2.0939037e-01
2.4042614e-01
2.4576868e-01
2.2526310e-01
1.9641011e-01
1.6856841e-01
1.4629996e-01
1.2846992e-01
1.0850568e-01
8.0884607e-02
4.7130677e-02
1.1978715e-02
-2.1765871e-02
-5.1437912e-02
-7.5801829e-02
-9.3140337e-02
-1.0040638e-01
-9.9724736e-02
-9.5217052e-02
-8.6403625e-02
-7.2834441e-02
-5.6166337e-02
-3.5217288e-02
-1.1041427e-02
1.2955640e-02
4.2768000e-02
7.5873003e-02
9.2512879e-02
8.8759881e-02
7.7072731e-02
6.4629172e-02
5.4665920e-02
5.0495763e-02
4.9416196e-02
4.3125125e-02
2.8954719e-02
9.6709851e-03
-1.2713205e-02
-3.5245889e-02
-5.5443548e-02
-7.1445579e-02
-7.9344998e-02
-7.9212893e-02
-7.6145983e-02
-7.3158658e-02
-6.7166858e-02
-5.5035372e-02
-3.7241453e-02
-1.3562886e-02
1.5954559e-02
5.4200436e-02
9.5516402e-02
1.2394996e-01
1.4058530e-01
1.5877648e-01
1.8546743e-01
2.1967499e-01
2.5710226e-01
2.9204392e-01
3.1515948e-01
3.1351093e-01
2.7120913e-01
1.7544671e-01
2.3188077e-02
-1.6504461e-01
-3.3895429e-01
-4.4986755e-01
-4.8188277e-01
-4.4811545e-01
-3.6841228e-01
-2.5809112e-01
-1.3753248e-01
-3.3087230e-02
3.7403058e-02
6.9939101e-02
7.3770284e-02
5.3761612e-02
4.1887990e-03
-6.6468063e-02
-1.4655949e-01
-2.4011906e-01
-3.5521810e-01
-4.8734598e-01
-6.1151541e-01
-6.9232986e-01
-6.9446435e-01
-6.0041223e-01
-4.3515869e-01
-2.4412117e-01
-4.9690638e-02
1.5065807e-01
3.6279802e-01
5.8140889e-01
7.9152946e-01
9.7972865e-01
1.1308402e+00
1.2207752e+00
1.2291092e+00
1.1461665e+00
9.5499987e-01
6.0002133e-01
1.3516010e-01
-2.4762265e-01
-4.8629568e-01
-6.1525905e-01
-6.3958116e-01
-5.8969483e-01
-5.0884484e-01
-4.2712775e-01
-3.6806306e-01
-3.3282241e-01
-2.9012894e-01
-2.1692316e-01
-1.2733851e-01
-5.2207564e-02
-1.3542951e-02
-8.6950271e-03
-1.1570867e-02
-3.0287340e-03
9.6493959e-03
1.8935957e-02
3.0319181e-02
3.3274593e-02
1.6732857e-02
2.1822320e-03
2.3426361e-02
7.6651923e-02
1.1189550e-01
9.0696529e-02
2.2215961e-02
-5.7134203e-02
-1.2585872e-01
-1.7664918e-01
-1.9141370e-01
-1.5968708e-01
-9.3955234e-02
-2.4699371e-02
1.0628336e-02
-7.7727820e-03
-6.5604891e-02
-1.2838296e-01
-1.7284505e-01
-1.8868601e-01
-1.6913341e-01
-1.2911572e-01
-1.0052329e-01
-9.5975259e-02
-9.8080999e-02
-8.0314900e-02
-2.9576047e-02
5.9067268e-02
1.6244493e-01
2.3038724e-01
2.5075424e-01
2.4123064e-01
2.1915608e-01
1.9945241e-01
1.8241843e-01
1.6348342e-01
1.4526678e-01
1.3482013e-01
1.3895565e-01
1.5939454e-01
1.9196579e-01
2.2971861e-01
2.6085665e-01
2.6780570e-01
2.3699088e-01
1.6952219e-01
8.0319729e-02
-1.0376676e-02
-8.6514248e-02
-1.3946596e-01
-1.6908391e-01
-1.8410848e-01
-1.9567553e-01
-2.0464596e-01
-2.0069670e-01
-1.7725724e-01
-1.3419823e-01
-7.2035008e-02
5.9418707e-03
8.7186860e-02
1.5466137e-01
1.9824943e-01
2.1571450e-01
2.1252047e-01
1.9842460e-01
1.8194181e-01
1.7051710e-01
1.6713419e-01
1.6620604e-01
1.5401187e-01
1.1586833e-01
5.0447928e-02
-3.5656805e-02
-1.4163474e-01
-2.5921725e-01
-3.6224699e-01
-4.1575729e-01
-3.8306487e-01
-2.9200694e-01
-2.3454989e-01
-2.3901972e-01
-2.7180676e-01
-3.0422382e-01
-3.1589377e-01
-2.9744562e-01
-2.5288027e-01
-1.9212517e-01
-1.2074345e-01
-4.3723116e-02
3.0244769e-02
9.5581021e-02
1.4737107e-01
1.7756079e-01
1.8478471e-01
1.7452582e-01
1.5206539e-01
1.2443840e-01
9.8516209e-02
7.5725637e-02
5.5525507e-02
3.8672880e-02
2.3475237e-02
9.3544319e-03
5.9172933e-04
-1.8162695e-03
7.4537786e-05
6.6130140e-03
1.7485814e-02
3.1286057e-02
4.8854839e-02
7.1550212e-02
9.8044002e-02
1.2780679e-01
1.6468309e-01
2.0402597e-01
2.2692514e-01
2.2090046e-01
1.8920270e-01
1.4209901e-01
9.1083703e-02
4.4342587e-02
5.7079352e-03
-2.3895489e-02
-4.6526184e-02
-6.6319316e-02
-8.5482554e-02
-1.0189929e-01
-1.0679717e-01
-1.0199125e-01
-1.0542416e-01
-1.1666883e-01
-1.1984718e-01
-1.0691050e-01
-7.7749265e-02
-3.5750066e-02
1.4437306e-02
6.4356068e-02
1.0683695e-01
1.3932846e-01
1.5684424e-01
1.5484760e-01
1.3908250e-01
1.1934158e-01
1.0322606e-01
9.8643159e-02
1.1056361e-01
1.3978013e-01
1.8333548e-01
2.3046406e-01
2.6506234e-01
2.7514215e-01
2.5534163e-01
2.0300096e-01
1.3691146e-01
9.6131219e-02
9.6375827e-02
1.2785797e-01
1.7695543e-01
2.2794625e-01
2.6529223e-01
2.7855311e-01
2.6169534e-01
2.1273922e-01
1.3223990e-01
2.0123400e-02
-1.1348147e-01
-2.4965125e-01
-3.7854198e-01
-4.9699457e-01
-5.9414390e-01
-6.5239388e-01
-6.6500119e-01
-6.4022741e-01
-5.9095924e-01
-5.3219941e-01
-4.7296787e-01
-4.0620507e-01
-3.1225780e-01
-1.9196462e-01
-7.3351588e-02
3.0403797e-02
1.1369897e-01
1.5202346e-01
1.2716307e-01
5.8925803e-02
-1.1090774e-02
-5.5567442e-02
-7.7913883e-02
-1.0352265e-01
-1.4264572e-01
-1.7655329e-01
-1.8745518e-01
-1.7161309e-01
-1.3299084e-01
-8.0599341e-02
-1.9772226e-02
5.1714143e-02
1.4135702e-01
2.4916634e-01
3.5128474e-01
4.1476444e-01
4.3201491e-01
4.1464330e-01
3.7584999e-01
3.3168082e-01
2.7744389e-01
1.8566607e-01
5.4416860e-02
-8.1413520e-02
-1.8272726e-01
-2.0848217e-01
-1.3675982e-01
1.4004155e-03
1.4274636e-01
2.3641545e-01
2.6982127e-01
2.5844308e-01
2.2586331e-01
1.8745783e-01
1.4774949e-01
1.1757037e-01
1.1820310e-01
1.6664287e-01
2.5559458e-01
3.3812242e-01
3.5207730e-01
2.5640623e-01
6.8742461e-03
-3.6083044e-01
-6.7161331e-01
-8.1150307e-01
-8.0598913e-01
-7.1685744e-01
-6.0284474e-01
-5.1282297e-01
-4.6546472e-01
-4.5202394e-01
-4.5338353e-01
-4.1592592e-01
-2.7568313e-01
-4.6251118e-02
1.8070167e-01
3.2154171e-01
3.5306923e-01
2.9702078e-01
1.8224362e-01
3.1754792e-02
-1.3542482e-01
-2.9570037e-01
-4.2412015e-01
-5.0710565e-01
-5.2273574e-01
-4.2863614e-01
-2.4989774e-01
-9.0930491e-02
5.0411577e-03
5.6341377e-02
6.5670221e-02
2.4476489e-02
-6.9450957e-02
-1.9201160e-01
-2.9125048e-01
-3.2710307e-01
-3.0577666e-01
-2.5325157e-01
-1.8153388e-01
-1.0289287e-01
-3.8671802e-02
-4.6743894e-03
1.1638655e-02
5.0637244e-02
1.3414221e-01
2.4503179e-01
3.4701726e-01
4.1044517e-01
4.2788683e-01
4.0774103e-01
3.6712667e-01
3.3782937e-01
3.5873950e-01
4.3685939e-01
5.3522764e-01
6.0644305e-01
6.2414951e-01
5.8710751e-01
5.0781763e-01
4.1070724e-01
3.2416214e-01
2.4984230e-01
1.6110037e-01
5.0449314e-02
-6.5244647e-02
-1.8391074e-01
-3.0295964e-01
-3.7515116e-01
-3.4613634e-01
-2.1911077e-01
-3.4123875e-02
1.7156235e-01
3.7017191e-01
5.3473928e-01
6.2958716e-01
6.2030521e-01
5.2676516e-01
4.2645058e-01
3.6372068e-01
3.4174518e-01
3.6074563e-01
4.0545476e-01
4.5230825e-01
4.8801404e-01
5.0177136e-01
4.8332144e-01
4.3435132e-01
3.6839657e-01
3.0456338e-01
2.4789711e-01
1.7822320e-01
8.2770569e-02
-2.4058055e-02
-1.2933623e-01
-2.3299721e-01
-3.3402625e-01
-4.2503736e-01
-4.9413257e-01
-5.2973660e-01
-5.2094576e-01
-4.5602433e-01
-3.5198828e-01
-2.5442601e-01
-1.8211105e-01
-1.3157281e-01
-1.0513372e-01
-1.0653910e-01
-1.3680814e-01
-1.9459592e-01
-2.7740494e-01
-3.6887970e-01
-4.3082112e-01
-4.3075915e-01
-3.7490822e-01
-2.9449693e-01
-2.2074086e-01
-1.8422645e-01
-1.9429876e-01
-2.2296212e-01
-2.3838929e-01
-2.2282165e-01
-1.6510978e-01
-7.3493075e-02
2.8134148e-02
1.1797717e-01
1.7680758e-01
1.9465369e-01
1.8124656e-01
1.5302544e-01
1.1934574e-01
8.6992135e-02
5.9859789e-02
4.1354649e-02
4.0007254e-02
6.1594570e-02
9.8764201e-02
1.3334846e-01
1.5137475e-01
1.4738112e-01
1.2387372e-01
9.3933710e-02
7.0835692e-02
6.4104184e-02
8.0634293e-02
1.1809717e-01
1.6668379e-01
2.1512136e-01
2.5094892e-01
2.5934081e-01
2.2697733e-01
1.4107962e-01
9.3388235e-03
-1.3033566e-01
-2.5183659e-01
-3.5249645e-01
-4.3345784e-01
-4.9075889e-01
-5.2088058e-01
-5.2716132e-01
-5.1432617e-01
-4.9167966e-01
-4.6684367e-01
-4.3617273e-01
-3.9526458e-01
-3.4375101e-01
-2.8268563e-01
-2.1248472e-01
-1.3142536e-01
-4.1582881e-02
4.7105284e-02
1.2078397e-01
1.7229163e-01
2.0443031e-01
2.2114183e-01
2.2938132e-01
2.4682540e-01
2.7214300e-01
2.7796149e-01
2.5294250e-01
2.0195089e-01
1.3593594e-01
7.4108687e-02
2.8579988e-02
3.4206694e-03
1.9534150e-03
2.2037943e-02
5.7237958e-02
1.0153150e-01
1.4541113e-01
1.7458556e-01
1.7492395e-01
1.3833636e-01
6.4731848e-02
-3.2935660e-02
-1.2697524e-01
-1.9548208e-01
-2.3394706e-01
-2.4427612e-01
-2.3193151e-01
-2.0384850e-01
-1.6356781e-01
-1.1887194e-01
-7.9386321e-02
-4.7410602e-02
-2.1825395e-02
-1.9221939e-03
9.7450865e-03
7.3106220e-03
-1.4818490e-02
-5.7497268e-02
-1.1068574e-01
-1.6624358e-01
-2.2383687e-01
-2.7617731e-01
-3.1656953e-01
-3.3543947e-01
-3.0429766e-01
-2.0581365e-01
-5.8378714e-02
1.0874221e-01
2.6870468e-01
3.9918188e-01
4.9134324e-01
5.4137385e-01
5.4889070e-01
5.2384429e-01
4.8889193e-01
4.6437666e-01
4.4846909e-01
4.2770899e-01
3.7833919e-01
2.7489387e-01
1.1834688e-01
-6.3115630e-02
-2.2936725e-01
-3.4948795e-01
-4.1425096e-01
-4.2481586e-01
-3.8193765e-01
-2.9687395e-01
-1.9365443e-01
-9.3143243e-02
-9.3638129e-03
4.9280354e-02
8.1496190e-02
9.4594984e-02
9.8347926e-02
9.8156873e-02
1.0013065e-01
1.0966696e-01
1.3129597e-01
1.6487630e-01
2.0003212e-01
2.3232745e-01
2.6426834e-01
2.9090120e-01
3.0542866e-01
3.0440499e-01
2.8181512e-01
2.3217346e-01
1.5644263e-01
6.1631003e-02
-4.1899881e-02
-1.4289206e-01
-2.3029702e-01
-2.9708989e-01
-3.3686636e-01
-3.4276999e-01
-3.2154516e-01
-2.9036488e-01
-2.5985624e-01
-2.3674538e-01
-2.2291473e-01
-2.0928056e-01
-1.8698135e-01
-1.5742900e-01
-1.2661229e-01
-1.0017581e-01
-9.0915263e-02
-1.0998934e-01
-1.5447879e-01
-2.1899959e-01
-2.9749041e-01
-3.7267038e-01
-4.2674246e-01
-4.5445308e-01
-4.6158328e-01
-4.6318116e-01
-4.7107571e-01
-4.7651684e-01
-4.6084440e-01
-4.1441832e-01
-3.2939104e-01
-2.0123821e-01
-4.5517456e-02
1.1176905e-01
2.4905356e-01
3.4818302e-01
4.0121128e-01
4.0390668e-01
3.4322885e-01
2.5041464e-01
2.0355696e-01
2.3184748e-01
3.0818296e-01
3.9556643e-01
4.5967318e-01
4.7658046e-01
4.4241308e-01
3.7378156e-01
2.8845440e-01
1.9184654e-01
8.2843292e-02
-2.7055041e-02
-1.0445331e-01
-1.1822776e-01
-7.9698308e-02
-4.1844157e-02
-5.4180475e-02
-1.3107203e-01
-2.4628471e-01
-3.5216296e-01
-4.1426896e-01
-4.1242528e-01
-3.1982468e-01
-1.1517166e-01
1.3541296e-01
3.0358774e-01
3.5331751e-01
3.2244766e-01
2.3730907e-01
1.1951695e-01
-1.9538752e-03
-9.0301396e-02
-1.2514964e-01
-1.2292128e-01
-1.1907262e-01
-1.3726619e-01
-1.7608695e-01
-2.2117486e-01
-2.5599801e-01
-2.6500697e-01
-2.3726194e-01
-1.7334815e-01
-9.6475044e-02
-3.6782724e-02
-4.1524186e-03
8.8744605e-03
1.2011944e-02
1.8215418e-02
3.9345125e-02
8.7124199e-02
1.7497614e-01
2.9430629e-01
4.1245651e-01
4.9282984e-01
5.1008456e-01
4.6179213e-01
3.7031810e-01
2.6990541e-01
1.8495202e-01
1.2632630e-01
1.0063347e-01
1.0405107e-01
1.2093657e-01
1.3823570e-01
1.4733605e-01
1.3979541e-01
1.1287970e-01
6.9895472e-02
1.3673816e-02
-4.9079748e-02
-1.0687527e-01
-1.5481095e-01
-1.9618893e-01
-2.3765027e-01
-2.8080752e-01
-3.1603706e-01
-3.3255067e-01
-3.2527237e-01
-2.9503467e-01
-2.4944486e-01
-1.9702608e-01
-1.4595419e-01
-1.0771775e-01
-8.8276549e-02
-8.2231613e-02
-7.7149889e-02
-5.3945276e-02
1.7080773e-02
1.9104259e-01
5.2556206e-01
9.7376703e-01
1.3606912e+00
1.5373268e+00
1.4742922e+00
1.2128640e+00
8.2919879e-01
4.2891739e-01
1.0274774e-01
-1.2792748e-01
-2.7306975e-01
-3.4533557e-01
-4.0753480e-01
-5.2829829e-01
-7.1274629e-01
-9.1812394e-01
-1.0948232e+00
-1.2072633e+00
-1.2222646e+00
-1.1164806e+00
-9.0454268e-01
-6.3118509e-01
-3.4551181e-01
-9.3414956e-02
7.8745634e-02
1.3919935e-01
1.0067537e-01
1.4627872e-02
-6.6898646e-02
-1.1660497e-01
-1.3017123e-01
-1.1202147e-01
-6.9776310e-02
-2.3870112e-02
1.0611003e-03
2.6703336e-02
9.9771827e-02
2.0971018e-01
3.0842579e-01
3.5437578e-01
3.2402049e-01
2.3943906e-01
1.5222142e-01
9.7554609e-02
8.3032915e-02
9.0812780e-02
9.3442382e-02
8.5030862e-02
8.0016330e-02
8.7955332e-02
1.0458805e-01
1.2069815e-01
1.2743255e-01
1.2224076e-01
1.1423917e-01
1.1210636e-01
1.1605149e-01
1.2393374e-01
1.4079418e-01
1.9005626e-01
2.5757473e-01
2.7210839e-01
2.0423703e-01
8.1727669e-02
-5.5467759e-02
-1.7216514e-01
-2.5018636e-01
-2.8445780e-01
-2.8419093e-01
-2.6625345e-01
-2.3847721e-01
-2.0306953e-01
-1.6186178e-01
-1.1261224e-01
-5.9618148e-02
-1.5157767e-02
1.4512667e-02
3.1664895e-02
4.1783432e-02
5.1161080e-02
6.4447049e-02
7.7698366e-02
8.0117980e-02
6.5938308e-02
3.2518117e-02
-1.4841548e-02
-5.9227378e-02
-9.3534167e-02
-1.2013767e-01
-1.3718155e-01
-1.4391024e-01
-1.4419543e-01
-1.4116405e-01
-1.3612612e-01
-1.2847431e-01
-1.1620739e-01
-1.0147781e-01
-8.9509159e-02
-8.1831409e-02
-7.2525908e-02
-5.1628470e-02
-1.0007707e-02
6.5915002e-02
1.8727888e-01
3.4301152e-01
5.0188099e-01
6.2197777e-01
6.6157040e-01
5.8991572e-01
3.8338231e-01
1.0385020e-01
-9.7318448e-02
-1.5456294e-01
-1.1487023e-01
-4.4740800e-02
7.4681983e-03
2.6350906e-02
2.0811294e-02
1.1346491e-03
-3.3976289e-02
-7.7365435e-02
-1.0743994e-01
-1.2180361e-01
-1.3791378e-01
-1.6617687e-01
-2.0629820e-01
-2.4457006e-01
-2.6183123e-01
-2.6374670e-01
-2.7397020e-01
-2.9858095e-01
-3.2279312e-01
-3.2497664e-01
-2.8139107e-01
-1.5866382e-01
2.4143688e-02
1.7771767e-01
2.6092442e-01
2.9227424e-01
2.9526085e-01
2.9008134e-01
2.8279879e-01
2.7448707e-01
2.6999942e-01
2.7030077e-01
2.7299519e-01
2.7476719e-01
2.6967516e-01
2.5801769e-01
2.4463321e-01
2.2878685e-01
2.0202278e-01
1.5611865e-01
9.2028208e-02
1.3737864e-02
-7.2725871e-02
-1.5486598e-01
-2.1857333e-01
-2.5010749e-01
-2.3397846e-01
-1.8597276e-01
-1.5148755e-01
-1.4253327e-01
-1.4543335e-01
-1.5234605e-01
-1.5493938e-01
-1.4642832e-01
-1.2560985e-01
-9.5249148e-02
-5.9559018e-02
-2.4238232e-02
5.4599504e-03
2.9373105e-02
5.0866516e-02
7.0407143e-02
8.4927000e-02
9.1421392e-02
8.9588833e-02
8.3109519e-02
7.4667628e-02
6.6033044e-02
6.1271937e-02
6.0117351e-02
5.5971757e-02
3.9988785e-02
1.4531549e-02
-8.0894541e-03
-2.6109842e-02
-4.3398029e-02
-6.2278504e-02
-8.2457756e-02
-9.9015029e-02
-1.0849783e-01
-1.0799710e-01
-9.3382660e-02
-6.2798195e-02
-1.7350266e-02
3.9253212e-02
9.6978690e-02
1.4328775e-01
1.7081236e-01
1.7705410e-01
1.6427983e-01
1.3769522e-01
1.0168274e-01
6.0940517e-02
2.0956050e-02
-1.2390735e-02
-3.4690420e-02
-5.1459906e-02
-6.6292073e-02
-7.2893867e-02
-7.1888460e-02
-6.4768913e-02
-4.9064697e-02
-2.6612009e-02
1.3317529e-04
2.9339624e-02
5.8059251e-02
8.4821039e-02
1.0873567e-01
1.2838090e-01
1.4337510e-01
1.5133243e-01
1.4564449e-01
1.2021137e-01
7.7793104e-02
2.8648790e-02
-1.9181386e-02
-6.2172133e-02
-9.9822520e-02
-1.3363030e-01
-1.6463076e-01
-1.9634743e-01
-2.3176528e-01
-2.7916521e-01
-3.5520982e-01
-4.6081771e-01
-5.7773815e-01
-6.8123533e-01
-7.5233924e-01
-7.7720880e-01
-7.3038592e-01
-5.9057195e-01
-3.6971607e-01
-1.0574430e-01
1.6308108e-01
4.0868384e-01
6.1192447e-01
7.5989770e-01
8.5001997e-01
8.9289641e-01
9.0259485e-01
8.8997551e-01
8.6271451e-01
8.2513974e-01
7.7938291e-01
7.2728355e-01
6.7119252e-01
6.1033211e-01
5.4451941e-01
4.7748341e-01
4.0750165e-01
3.3364830e-01
2.6352293e-01
2.0314011e-01
1.5177341e-01
1.0570769e-01
6.3381196e-02
2.9631478e-02
1.0699729e-02
3.6640992e-03
7.6717786e-04
-2.6717840e-03
-1.1435441e-02
-3.0558224e-02
-6.1012049e-02
-9.9890973e-02
-1.4438877e-01
-1.9508173e-01
-2.5637715e-01
-3.3194281e-01
-4.1246494e-01
-4.7228415e-01
-4.8835839e-01
-4.6048390e-01
-4.0562696e-01
-3.4385065e-01
-2.9362257e-01
-2.6350555e-01
-2.5407071e-01
-2.6154556e-01
-2.7620312e-01
-2.8879149e-01
-2.9584606e-01
-2.9724957e-01
-2.9117223e-01
-2.7770481e-01
-2.6018908e-01
-2.4346460e-01
-2.3417367e-01
-2.3419066e-01
-2.3750841e-01
-2.3953581e-01
-2.3927050e-01
-2.3144105e-01
-2.1113369e-01
-1.7938265e-01
-1.3201963e-01
-5.3169810e-02
4.3377234e-02
1.1376103e-01
1.5086641e-01
1.7029174e-01
1.7675305e-01
1.7596516e-01
1.7018188e-01
1.5676580e-01
1.3606242e-01
1.1451035e-01
1.0247917e-01
1.0275564e-01
1.0560487e-01
9.9972804e-02
8.2870415e-02
5.9057832e-02
3.5249875e-02
1.6589283e-02
8.6409366e-03
1.1804839e-02
1.8946969e-02
2.4168852e-02
2.0948275e-02
4.1891906e-04
-4.5389834e-02
-1.0455452e-01
-1.4496301e-01
-1.5477199e-01
-1.4361317e-01
-1.2024313e-01
-8.9282759e-02
-5.5339505e-02
-2.3546975e-02
5.3800489e-03
3.1404884e-02
5.0628788e-02
5.8848044e-02
5.4511407e-02
3.6261502e-02
2.7696796e-03
-4.2787674e-02
-8.8275253e-02
-1.2068040e-01
-1.3754556e-01
-1.4231238e-01
-1.3912438e-01
-1.3176922e-01
-1.2568642e-01
-1.2908999e-01
-1.4658193e-01
-1.7185548e-01
-1.9077928e-01
-1.9734186e-01
-1.9456954e-01
-1.8591349e-01
-1.7426016e-01
-1.6153257e-01
-1.4944721e-01
-1.3761273e-01
-1.2408091e-01
-1.1111702e-01
-1.0151565e-01
-9.2728404e-02
-8.3737660e-02
-7.6803340e-02
-7.0502484e-02
-6.2064311e-02
-5.1597958e-02
-4.2397750e-02
-3.9618330e-02
-4.6454745e-02
-5.8128869e-02
-6.0922530e-02
-3.8956627e-02
3.1833621e-02
1.4200735e-01
2.2971228e-01
2.6612200e-01
2.6864313e-01
2.5522985e-01
2.3850989e-01
2.2467987e-01
2.1368578e-01
2.0482716e-01
1.9743974e-01
1.8848966e-01
1.7358076e-01
1.4901777e-01
1.1571512e-01
7.6633095e-02
3.6034732e-02
6.5713301e-04
-2.7153540e-02
-4.7429688e-02
-5.8900055e-02
-6.6595292e-02
-7.8149478e-02
-9.1503503e-02
-9.5867694e-02
-7.5176362e-02
-3.4381722e-02
-5.3182261e-03
2.3904989e-03
1.9036078e-03
6.5555266e-04
-3.8165131e-04
-1.2005797e-03
1.2526911e-03
1.1878566e-02
3.5007245e-02
6.4716504e-02
8.2546703e-02
7.8587354e-02
6.2426694e-02
4.5607082e-02
3.3898939e-02
3.1372046e-02
3.5732194e-02
4.2084526e-02
4.6981484e-02
4.6661791e-02
3.9444077e-02
2.4937043e-02
3.7658654e-03
-2.2905317e-02
-4.9946720e-02
-6.9873837e-02
-8.4357643e-02
-9.6984435e-02
-1.0401436e-01
-1.0377184e-01
-9.8372552e-02
-8.7000956e-02
-6.9139083e-02
-4.5249139e-02
-9.3072086e-03
4.4845351e-02
1.0988593e-01
1.7279558e-01
2.2651345e-01
2.6984890e-01
3.0825322e-01
3.4506757e-01
3.7219385e-01
3.7990115e-01
3.6011629e-01
3.0921169e-01
2.3856477e-01
1.5173515e-01
2.5421608e-02
-1.1979182e-01
-2.1094082e-01
-2.3224310e-01
-2.1674997e-01
-1.8308168e-01
-1.4013886e-01
-9.5405546e-02
-5.5170637e-02
-2.4733329e-02
-9.5161843e-03
-8.6647737e-03
-1.2148279e-02
-1.3217865e-02
-1.1034820e-02
-3.6681971e-03
7.4235206e-03
1.8087563e-02
2.6913426e-02
3.2119656e-02
3.2375421e-02
3.0738098e-02
2.9460633e-02
2.7661214e-02
2.3793648e-02
1.2724472e-02
-7.6109070e-03
-2.6587651e-02
-3.2281696e-02
-2.5667223e-02
-1.4763387e-02
-7.1863597e-03
-1.0190352e-02
-2.6064733e-02
-5.0055508e-02
-7.7291464e-02
-1.0416095e-01
-1.2516957e-01
-1.3825573e-01
-1.4577868e-01
-1.4941391e-01
-1.5176891e-01
-1.5751987e-01
-1.6567569e-01
-1.7052878e-01
-1.7056081e-01
-1.6322684e-01
-1.4040203e-01
-1.0060673e-01
-5.0471613e-02
1.0954738e-02
7.5458060e-02
1.1835809e-01
1.3325113e-01
1.2648339e-01
9.6209018e-02
4.0962734e-02
-3.5678193e-02
-1.2280170e-01
-2.0393108e-01
-2.6760006e-01
-3.0804452e-01
-3.1912958e-01
-2.8922904e-01
-1.9907564e-01
-3.5250882e-02
1.9487351e-01
4.5780757e-01
6.9819413e-01
8.6414632e-01
9.2397825e-01
8.6598789e-01
7.0178058e-01
4.6204141e-01
1.8080629e-01
-1.2262378e-01
-4.0721437e-01
-6.0968916e-01
-7.2729763e-01
-7.9758290e-01
-8.3721281e-01
-8.3853621e-01
-7.7602889e-01
-6.2855574e-01
-3.9338149e-01
-8.8947124e-02
2.4021998e-01
5.3791880e-01
7.5892258e-01
8.8234948e-01
9.2330512e-01
9.1569199e-01
8.7177632e-01
7.8433163e-01
6.6126154e-01
5.2435588e-01
3.8590674e-01
2.4442454e-01
9.2410172e-02
-7.2382777e-02
-2.3625755e-01
-3.9241810e-01
-5.5110582e-01
-6.9595368e-01
-7.9377142e-01
-8.4409122e-01
-8.6723932e-01
-8.6229756e-01
-8.1124300e-01
-7.1054473e-01
-5.7318825e-01
-4.1673350e-01
-2.5293412e-01
-8.3135976e-02
9.3627595e-02
2.7399646e-01
4.4988724e-01
6.0954985e-01
7.3997556e-01
8.3304725e-01
8.8918692e-01
9.0800717e-01
8.8461528e-01
8.1369802e-01
6.8125034e-01
4.6278321e-01
1.8150203e-01
-9.0165008e-02
-3.2029533e-01
-5.1017196e-01
-6.5236332e-01
-7.3190107e-01
-7.3899512e-01
-6.8617945e-01
-5.9268170e-01
-4.7716654e-01
-3.6840561e-01
-2.9233475e-01
-2.5704464e-01
-2.5355224e-01
-2.6025546e-01
-2.4755399e-01
-1.8951673e-01
-8.3614570e-02
4.9296653e-02
1.8050943e-01
2.7641719e-01
3.1223541e-01
3.0459001e-01
3.0722348e-01
3.6300320e-01
4.5327767e-01
5.2733062e-01
5.7366895e-01
5.9509186e-01
5.8157569e-01
5.3244799e-01
4.6020917e-01
3.8373669e-01
3.1565592e-01
2.5789938e-01
2.0849685e-01
1.6232983e-01
1.1688297e-01
8.0272691e-02
5.9009905e-02
5.2590569e-02
6.0311732e-02
7.5939316e-02
8.8950399e-02
9.3314258e-02
8.8689411e-02
7.6094085e-02
5.6025185e-02
3.3206002e-02
1.2589415e-02
