3.3366868e-03
7.8767540e-03
1.1751129e-02
1.4471758e-02
1.6287255e-02
1.6709142e-02
1.5247475e-02
1.3158300e-02
1.1651834e-02
9.8767144e-03
7.1460728e-03
3.2972604e-03
-1.3079389e-03
-4.4559004e-03
-5.6534792e-03
-6.2891193e-03
-6.7044393e-03
-6.6504763e-03
-5.9256214e-03
-4.1696134e-03
-1.2007783e-03
1.9248651e-03
4.1346432e-03
4.8979574e-03
2.5785652e-03
-1.9297010e-03
-4.5980722e-03
-5.0795603e-03
-5.3913352e-03
-5.6523394e-03
-5.0770891e-03
-3.6163835e-03
-1.8254643e-03
-1.1458956e-05
1.4507534e-03
1.7515476e-03
8.5690474e-04
-5.8171857e-04
-2.1584984e-03
-3.4166736e-03
-4.3173594e-03
-4.9944589e-03
-5.9115444e-03
-6.6316186e-03
-6.6175748e-03
-6.3358571e-03
-5.4180546e-03
-3.5011275e-03
-1.3247501e-03
-7.1763216e-05
9.1862648e-04
2.8601282e-03
4.8657984e-03
6.8708253e-03
9.1134176e-03
1.0727829e-02
1.2447373e-02
1.4519828e-02
1.6167348e-02
1.7846872e-02
1.9149114e-02
1.9030768e-02
1.8364215e-02
1.8979019e-02
2.0623901e-02
2.1437453e-02
2.0788888e-02
1.9657226e-02
1.8986930e-02
1.8169965e-02
1.6806168e-02
1.4903760e-02
1.1588639e-02
6.7470166e-03
8.8800109e-04
-5.7390095e-03
-1.2113823e-02
-1.6408469e-02
-1.8296559e-02
-1.8858373e-02
-1.8073025e-02
-1.6310203e-02
-1.5180566e-02
-1.4450828e-02
-1.2820902e-02
-1.0517380e-02
-7.6967015e-03
-4.1245999e-03
1.4540209e-04
4.5449309e-03
8.1373033e-03
1.1252610e-02
1.4372005e-02
1.6591517e-02
1.7121070e-02
1.6563495e-02
1.5028398e-02
1.1968724e-02
8.6042854e-03
6.4960305e-03
5.2490615e-03
4.0857694e-03
3.0643516e-03
1.7136455e-03
-1.3123413e-03
-5.4802993e-03
-8.6625792e-03
-1.0097494e-02
-1.0503489e-02
-1.0878609e-02
-1.1118251e-02
-1.1068455e-02
-1.1053343e-02
-1.0713298e-02
-9.5562127e-03
-7.9993284e-03
-6.9183884e-03
-6.8570507e-03
-8.3982794e-03
-1.2343626e-02
-1.9156036e-02
-2.8583172e-02
-3.9118938e-02
-4.6593255e-02
-4.3467176e-02
-3.0699051e-02
-2.0428403e-02
-1.6949993e-02
-1.6744056e-02
-1.7905213e-02
-1.9503031e-02
-2.0754426e-02
-2.0797745e-02
-1.9762262e-02
-1.8363237e-02
-1.6447593e-02
-1.3357814e-02
-8.9503063e-03
-3.4491790e-03
2.8255772e-03
9.7550009e-03
1.6472831e-02
2.1680644e-02
2.5710407e-02
2.9356558e-02
3.2931299e-02
3.5388379e-02
3.4825436e-02
3.1623348e-02
2.5811839e-02
1.7275209e-02
8.6300643e-03
1.2384899e-03
-5.4563156e-03
-1.1512347e-02
-1.6023034e-02
-1.8311563e-02
-1.8784833e-02
-1.7947711e-02
-1.5859895e-02
-1.2981743e-02
-9.4900125e-03
-5.0515990e-03
-1.4446595e-03
1.5253362e-04
1.6303017e-03
3.9723875e-03
6.3406441e-03
7.8433091e-03
7.8216536e-03
6.6847787e-03
5.2675517e-03
3.6691775e-03
2.7608618e-03
4.3357934e-03
7.3415459e-03
9.2041611e-03
9.4358367e-03
7.9823586e-03
4.9974349e-03
1.7250892e-03
-5.5081387e-04
-1.2015174e-03
-4.1342716e-04
5.6276006e-04
1.0954306e-03
2.0035373e-03
3.2223770e-03
4.4954718e-03
5.7846327e-03
6.5838382e-03
6.9472180e-03
6.5868063e-03
5.3633162e-03
4.2183209e-03
3.6800523e-03
2.8659251e-03
1.8922367e-03
2.4835096e-03
4.2534719e-03
5.0453455e-03
3.9005561e-03
1.1568885e-03
-1.9642006e-03
-4.4228630e-03
-5.9383692e-03
-6.0155144e-03
-5.2476158e-03
-4.8453738e-03
-4.1560928e-03
-2.2823019e-03
-3.0614767e-04
2.8399734e-04
-2.8737820e-04
-1.0897748e-03
-1.2168511e-03
3.0009609e-04
2.5797933e-03
3.7679869e-03
3.7081613e-03
3.4308852e-03
3.2894652e-03
2.4928739e-03
8.8230405e-04
-1.2658195e-03
-3.8785441e-03
-6.3490323e-03
-8.2597925e-03
-9.7685276e-03
-1.1101937e-02
-1.1138122e-02
-9.1583981e-03
-6.8961898e-03
-5.7135537e-03
-4.7970101e-03
-3.1413770e-03
-1.6268918e-03
-8.5969432e-04
3.5422981e-04
3.2976498e-03
7.7190680e-03
1.2133192e-02
1.5514428e-02
1.7201717e-02
1.7223932e-02
1.6487353e-02
1.6251136e-02
1.5921845e-02
1.2484857e-02
4.1349572e-03
-6.7713729e-03
-1.4459013e-02
-1.6869525e-02
-1.7044645e-02
-1.6873234e-02
-1.5354138e-02
-1.2180014e-02
-8.9687788e-03
-6.6582470e-03
-4.8186267e-03
-2.5622251e-03
-1.4483591e-04
1.9630221e-03
4.0841761e-03
5.7310612e-03
6.4051099e-03
6.4096673e-03
6.0352476e-03
5.6607094e-03
5.5384198e-03
5.2489052e-03
4.3530794e-03
3.6745357e-03
3.6627727e-03
3.1028690e-03
1.2146398e-03
-1.6613786e-03
-5.0434653e-03
-8.4547214e-03
-1.0607787e-02
-1.0871646e-02
-1.0787625e-02
-1.1183908e-02
-1.0857523e-02
-9.2601080e-03
-7.2827974e-03
-5.8754008e-03
-4.4789670e-03
-2.1901370e-03
1.0620397e-04
1.3729738e-03
1.6176775e-03
1.9430956e-03
3.3034578e-03
4.5765397e-03
5.2086762e-03
6.0445520e-03
6.6907066e-03
7.1050729e-03
7.9055885e-03
8.1554818e-03
7.0328053e-03
5.4605968e-03
4.0105770e-03
2.2494980e-03
4.3277752e-04
-4.4987430e-04
-6.5922928e-04
-1.7264178e-03
-3.9269417e-03
-6.0152929e-03
-6.5003247e-03
-4.8574154e-03
-2.3797085e-03
-4.7021517e-04
9.7669613e-04
2.3273440e-03
3.4258882e-03
3.9090742e-03
3.9888317e-03
4.2015698e-03
4.2161748e-03
4.3642125e-03
5.1584483e-03
5.3842440e-03
4.6412070e-03
3.8234458e-03
3.1018868e-03
2.4184045e-03
1.8628456e-03
1.4289598e-03
9.5051457e-04
6.4931867e-04
6.3114387e-04
3.1049284e-04
5.1105055e-05
-1.4003808e-04
-1.2236806e-03
-2.5014212e-03
-3.3051012e-03
-3.9184959e-03
-3.3301670e-03
-9.7864852e-04
2.0601551e-03
5.2652290e-03
8.4857818e-03
1.0874395e-02
1.1441230e-02
9.4539053e-03
4.1038883e-03
-2.9413244e-03
-7.3995238e-03
-8.5491296e-03
-9.1636407e-03
-1.0309494e-02
-1.1095323e-02
-1.0693619e-02
-9.0727469e-03
-7.5847921e-03
-7.3946200e-03
-8.2455108e-03
-9.2867060e-03
-9.9620088e-03
-1.0360392e-02
-1.0199079e-02
-9.4308607e-03
-9.6329726e-03
-1.1593790e-02
-1.3032063e-02
-1.2442441e-02
-1.1632435e-02
-1.2158170e-02
-1.3520867e-02
-1.4999999e-02
-1.5483618e-02
-1.3834138e-02
-1.1098828e-02
-9.0425910e-03
-7.3292433e-03
-5.3265887e-03
-3.6312016e-03
-1.9269909e-03
3.0545049e-04
2.8145611e-03
5.6783371e-03
8.7569008e-03
1.1364726e-02
1.3898808e-02
1.7572855e-02
2.2694650e-02
2.9096263e-02
3.6011511e-02
4.2486598e-02
4.8834036e-02
5.5387611e-02
6.1160818e-02
6.4256564e-02
6.2446816e-02
5.2543536e-02
3.0580130e-02
1.6014208e-03
-2.1260968e-02
-3.3292582e-02
-3.7617288e-02
-3.7940163e-02
-3.6563392e-02
-3.3482886e-02
-2.9210688e-02
-2.4914521e-02
-2.0991999e-02
-1.7666872e-02
-1.5460765e-02
-1.4544357e-02
-1.4612449e-02
-1.4759449e-02
-1.3981903e-02
-1.2585969e-02
-1.1506073e-02
-1.1358808e-02
-1.1391690e-02
-1.0498516e-02
-9.2741203e-03
-8.2081500e-03
-6.0070941e-03
-5.4911173e-04
6.6902484e-03
1.1432194e-02
1.2303651e-02
1.0029974e-02
5.8165205e-03
8.6770119e-04
-4.2821713e-03
-8.9741950e-03
-1.2005958e-02
-1.3112547e-02
-1.3991830e-02
-1.5483828e-02
-1.5780224e-02
-1.4192177e-02
-1.1916728e-02
-8.7571404e-03
-4.6016056e-03
2.5194277e-04
6.0418565e-03
1.1856425e-02
1.6753936e-02
2.0092252e-02
2.0722854e-02
1.7627709e-02
7.3700405e-03
-7.2465774e-03
-1.4623939e-02
-1.1392318e-02
-2.2948022e-03
8.7686397e-03
1.8382105e-02
2.4604356e-02
2.7218896e-02
2.6207140e-02
2.2800918e-02
1.8707758e-02
1.5466164e-02
1.4276693e-02
1.4671742e-02
1.5251271e-02
1.5279947e-02
1.5042974e-02
1.5197026e-02
1.5789964e-02
1.6148204e-02
1.5939177e-02
1.4930924e-02
1.3089354e-02
9.9034766e-03
3.8338977e-03
-4.4176964e-03
-1.1693675e-02
-1.6402039e-02
-1.8750536e-02
-1.9528698e-02
-1.9264680e-02
-1.7851219e-02
-1.5843088e-02
-1.4612337e-02
-1.5527338e-02
-1.8741669e-02
-2.2762454e-02
-2.6200484e-02
-2.9047247e-02
-3.1177867e-02
-3.2454049e-02
-3.3974304e-02
-3.6684968e-02
-4.0873574e-02
-4.5907036e-02
-5.0359594e-02
-5.2903567e-02
-5.1634473e-02
-4.3810321e-02
-2.6274795e-02
-3.0450381e-03
1.4804231e-02
2.3818867e-02
2.7031599e-02
2.6215741e-02
2.3583617e-02
2.1321374e-02
1.9464599e-02
1.6964524e-02
1.3842914e-02
1.0826545e-02
7.9447415e-03
5.4405159e-03
4.1226935e-03
3.3719356e-03
2.3522885e-03
1.4531387e-03
6.0929339e-04
-2.3028584e-04
-6.0905661e-04
-6.1269071e-04
-5.6096301e-04
-9.1831258e-04
-9.0645410e-04
2.3948185e-03
9.0948085e-03
1.4951172e-02
1.7715508e-02
1.7540605e-02
1.5409196e-02
1.2807218e-02
9.6897803e-03
6.8811797e-03
5.0940679e-03
3.6857513e-03
2.9027467e-03
2.7197548e-03
1.9484489e-03
-1.8941990e-04
-3.1647359e-03
-5.5855759e-03
-6.8355328e-03
-7.1112501e-03
-6.6210911e-03
-6.6402869e-03
-7.5664173e-03
-8.5731737e-03
-9.3258429e-03
-8.3517886e-03
-5.0313697e-03
-1.2002717e-03
1.9036582e-03
4.5534532e-03
7.1981047e-03
8.8087378e-03
8.6916865e-03
9.1077072e-03
1.1155373e-02
1.2647237e-02
1.1988208e-02
9.7727798e-03
7.3480769e-03
5.1776286e-03
3.2556597e-03
2.2232550e-03
2.3945723e-03
2.7450386e-03
2.4469045e-03
2.3597250e-03
3.3342548e-03
4.8745748e-03
6.4145446e-03
7.4059034e-03
8.1914059e-03
1.0022536e-02
1.2284511e-02
1.3458357e-02
1.3737283e-02
1.3287824e-02
1.1277939e-02
8.5237665e-03
6.0671292e-03
3.5937051e-03
1.5793214e-03
2.1684148e-04
-1.3116517e-03
-3.1700863e-03
-4.5549058e-03
-4.9055622e-03
-4.2203134e-03
-2.1551190e-03
3.1485606e-04
1.7678265e-03
2.8402342e-03
4.6362427e-03
7.1642739e-03
9.9114310e-03
1.1758025e-02
1.1934240e-02
1.1258594e-02
1.0404045e-02
9.2415410e-03
7.2500792e-03
4.8630592e-03
2.6253644e-03
-5.8397266e-04
-5.2571741e-03
-1.0778235e-02
-1.6639127e-02
-2.1853867e-02
-2.4858539e-02
-2.5581237e-02
-2.5354405e-02
-2.4322693e-02
-2.2131036e-02
-2.0168037e-02
-1.9960044e-02
-2.0815925e-02
-2.1259295e-02
-2.1017154e-02
-2.0678561e-02
-2.0263579e-02
-1.8167158e-02
-1.2065183e-02
-1.8166846e-04
1.4934680e-02
2.5861277e-02
3.0346539e-02
3.1480290e-02
2.9762136e-02
2.5402043e-02
2.0392095e-02
1.5448845e-02
1.0316377e-02
5.1249366e-03
-3.5204897e-04
-6.1394829e-03
-1.1176384e-02
-1.3024204e-02
-9.9131941e-03
-3.6904047e-03
2.4536684e-03
7.3562739e-03
1.2354381e-02
1.8941603e-02
2.5803863e-02
3.1077030e-02
3.4484325e-02
3.4557571e-02
2.9602881e-02
2.1838845e-02
1.4261290e-02
7.9192994e-03
3.5249069e-03
3.3809289e-04
-3.2314925e-03
-8.2755832e-03
-1.4173724e-02
-1.8534153e-02
-2.0694283e-02
-2.1666098e-02
-2.1979090e-02
-2.1833122e-02
-2.0762868e-02
-1.7659613e-02
-1.2267126e-02
-5.9009009e-03
-7.8044171e-04
1.9904822e-03
3.4361277e-03
4.2019480e-03
3.7254887e-03
2.9733752e-03
3.2110525e-03
4.0357456e-03
5.0103335e-03
6.3569194e-03
7.3125547e-03
6.6554986e-03
4.6480778e-03
1.7637821e-03
-1.4069397e-03
-4.6286389e-03
-7.9390714e-03
-1.0804862e-02
-1.2932307e-02
-1.4430818e-02
-1.5682131e-02
-1.6036003e-02
-1.4676455e-02
-1.2436084e-02
-1.0474606e-02
-8.3288288e-03
-5.6189155e-03
-3.5618189e-03
-2.5915819e-03
-1.9964018e-03
-3.4410058e-04
4.2231278e-03
1.1849014e-02
1.9569945e-02
2.3945247e-02
2.4831144e-02
2.3799736e-02
2.1432669e-02
1.7733939e-02
1.3463220e-02
9.3312699e-03
5.4123032e-03
1.2654098e-03
-3.6687638e-03
-8.0729193e-03
-1.0572485e-02
-1.1549045e-02
-1.1757816e-02
-1.1886767e-02
-1.2022091e-02
-1.2524406e-02
-1.4001241e-02
-1.5758392e-02
-1.7194565e-02
-1.8221095e-02
-1.7823972e-02
-1.3653905e-02
-2.8564153e-03
1.2069713e-02
2.3524843e-02
2.8808252e-02
2.9660854e-02
2.7997495e-02
2.5582601e-02
2.2332001e-02
1.8351462e-02
1.4936588e-02
1.2022592e-02
9.2098616e-03
7.1815501e-03
6.2175563e-03
6.2529065e-03
7.2848829e-03
8.8675976e-03
1.0022274e-02
1.0018843e-02
9.0557824e-03
6.9367573e-03
3.3348048e-03
-4.9968684e-04
-2.7391451e-03
-2.8342852e-03
-9.6472554e-04
1.7112799e-03
3.3650142e-03
3.6679244e-03
2.5293736e-03
-3.8907180e-04
-4.3291590e-03
-7.8876325e-03
-1.0453400e-02
-1.2357904e-02
-1.3684936e-02
-1.4268259e-02
-1.4627653e-02
-1.5164238e-02
-1.5530765e-02
-1.6100048e-02
-1.6890982e-02
-1.7622588e-02
-1.8786118e-02
-2.0558689e-02
-2.2988902e-02
-2.5136458e-02
-2.6090514e-02
-2.5575940e-02
-2.1632478e-02
-1.1412013e-02
2.3154516e-03
1.2127731e-02
1.5895362e-02
1.5527186e-02
1.3001817e-02
9.1107045e-03
3.7236584e-03
-1.2713330e-03
-4.7960742e-03
-7.6539757e-03
-9.3567005e-03
-8.9157290e-03
-6.6135935e-03
-2.6108211e-03
3.0066606e-03
9.5831310e-03
1.6406363e-02
2.2624868e-02
2.7358616e-02
3.0271957e-02
3.1758518e-02
3.1928618e-02
3.0505628e-02
2.6553859e-02
1.8857343e-02
9.5891157e-03
2.5760996e-03
-1.7691937e-03
-4.6076664e-03
-6.7713575e-03
-9.3245112e-03
-1.2205217e-02
-1.4024273e-02
-1.4905177e-02
-1.6344185e-02
-1.8663258e-02
-2.1160797e-02
-2.2745418e-02
-2.2366989e-02
-1.9796415e-02
-1.5967883e-02
-1.2561616e-02
-1.0658913e-02
-9.7620879e-03
-9.3919194e-03
-9.8486092e-03
-1.0922286e-02
-1.1001361e-02
-8.2143819e-03
-1.5304982e-03
6.9099894e-03
1.2621672e-02
1.5417481e-02
1.6997444e-02
1.7077665e-02
1.5942474e-02
1.4369531e-02
1.2392674e-02
9.1577876e-03
5.1223355e-03
2.1433968e-03
-1.6205379e-05
-2.5510205e-03
-4.7602433e-03
-5.0894773e-03
-3.1833850e-03
3.6316281e-04
3.8851531e-03
6.2045590e-03
8.9021484e-03
1.2442277e-02
1.5173992e-02
1.6166433e-02
1.4964399e-02
1.0305748e-02
2.9914763e-03
-2.5057576e-03
-4.7684062e-03
-5.9246267e-03
-6.5737831e-03
-7.0483631e-03
-7.8847871e-03
-8.3095666e-03
-8.4891259e-03
-9.5634620e-03
-1.0884252e-02
-1.1816145e-02
-1.2575565e-02
-1.2153056e-02
-1.0576931e-02
-8.2919855e-03
-5.0952973e-03
-2.7007572e-03
-1.7745468e-03
-8.6909217e-04
7.7554968e-04
2.5581771e-03
4.4066247e-03
7.2051804e-03
1.0751638e-02
1.3550060e-02
1.3810918e-02
1.1829241e-02
9.2311312e-03
6.3572940e-03
3.3141446e-03
5.6345046e-04
-2.2777013e-03
-5.6927575e-03
-9.2723963e-03
-1.2919190e-02
-1.6089843e-02
-1.6884550e-02
-1.4164430e-02
-8.9962111e-03
-2.8166180e-03
4.0161181e-03
9.9323328e-03
1.3792911e-02
1.7065061e-02
2.0325899e-02
2.2615085e-02
2.3080740e-02
2.1382802e-02
1.7180043e-02
1.1765715e-02
7.8626743e-03
5.1573239e-03
2.4710571e-03
2.0142724e-04
-1.9032285e-03
-3.6640952e-03
-4.7025001e-03
-6.4047692e-03
-1.0080114e-02
-1.4999889e-02
-1.9158058e-02
-2.1569796e-02
-2.2537741e-02
-2.1955079e-02
-2.0503150e-02
-1.9451014e-02
-1.8216007e-02
-1.6743415e-02
-1.6874689e-02
-1.8498287e-02
-1.9592856e-02
-1.9160594e-02
-1.6502261e-02
-1.0432899e-02
-2.3909756e-03
3.9856525e-03
7.6846347e-03
9.9115429e-03
1.1668967e-02
1.2935817e-02
1.3848024e-02
1.4851815e-02
1.5036310e-02
1.4277342e-02
1.3446456e-02
1.2905800e-02
1.3298409e-02
1.4394336e-02
1.5866937e-02
1.7995523e-02
1.9241367e-02
1.8983791e-02
1.7610015e-02
1.3492113e-02
5.8994869e-03
-3.6327763e-03
-1.2977812e-02
-2.0765486e-02
-2.6446292e-02
-2.9446569e-02
-2.8965226e-02
-2.4319979e-02
-1.6133203e-02
-7.7702765e-03
-2.7053860e-03
-7.3908631e-04
2.9935999e-04
2.3102903e-03
5.2155008e-03
5.6607921e-03
2.4134591e-03
-4.7052234e-04
-4.4913193e-04
1.1270521e-03
2.9260599e-03
5.0794802e-03
9.4174031e-03
1.5963961e-02
2.2134999e-02
2.6427144e-02
2.8530199e-02
2.8589295e-02
2.6167415e-02
2.1003808e-02
1.5043056e-02
1.0832032e-02
8.8065319e-03
7.6633335e-03
6.1038583e-03
2.9947585e-03
-2.3503394e-03
-9.3292467e-03
-1.5729920e-02
-1.9098828e-02
-1.9292744e-02
-1.7708186e-02
-1.4699723e-02
-9.9338547e-03
-4.3117453e-03
3.9675809e-04
3.3097200e-03
5.0137129e-03
6.5011599e-03
7.8623309e-03
9.2029376e-03
1.1122153e-02
1.2693029e-02
1.1684270e-02
7.3961638e-03
1.4907026e-03
-3.7560170e-03
-7.0928195e-03
-8.8446138e-03
-1.0644076e-02
-1.2769137e-02
-1.4119084e-02
-1.4082340e-02
-1.2135824e-02
-8.7655473e-03
-5.4818451e-03
-2.9293962e-03
-8.4475356e-04
7.2767653e-04
1.3540013e-03
1.2848496e-03
1.9012393e-03
3.2937846e-03
3.9527721e-03
3.7168768e-03
3.3193009e-03
2.9115746e-03
2.1148278e-03
4.3813042e-04
-1.9174504e-03
-5.1185181e-03
-9.7114567e-03
-1.3985461e-02
-1.4939420e-02
-1.2176359e-02
-7.6987398e-03
-1.7626014e-03
5.9053120e-03
1.3013726e-02
1.6944885e-02
1.6573755e-02
1.3087011e-02
9.9507417e-03
9.1894318e-03
1.0828081e-02
1.4684058e-02
1.7768360e-02
1.7026998e-02
1.3341019e-02
7.4130609e-03
-1.3604570e-03
-1.1453358e-02
-2.0724401e-02
-2.8216098e-02
-3.2392789e-02
-3.2652216e-02
-3.0008172e-02
-2.5511209e-02
-1.9925044e-02
-1.4097049e-02
-8.9953725e-03
-4.9217134e-03
-1.9765520e-03
-1.3838845e-04
4.5298568e-04
3.7670944e-04
7.1570931e-04
9.8035553e-04
7.7143658e-04
4.9422748e-04
5.2682606e-04
6.4720026e-04
-6.2525563e-05
-1.6523282e-03
-4.1359629e-03
-7.8005330e-03
-1.1442210e-02
-1.3697188e-02
-1.3512322e-02
-9.1026553e-03
-1.6112870e-03
4.9475281e-03
8.9975766e-03
1.0754526e-02
1.0684685e-02
1.0393332e-02
1.1282892e-02
1.2837641e-02
1.3855434e-02
1.4364897e-02
1.5055139e-02
1.4941622e-02
1.3167987e-02
1.1437296e-02
9.5129694e-03
6.1153063e-03
2.7888846e-03
1.4887213e-04
-3.0015628e-03
-6.5375572e-03
-9.0002550e-03
-9.5854869e-03
-8.6722683e-03
-6.3188450e-03
-2.5372128e-03
3.2665682e-04
6.8908909e-04
6.0135718e-04
7.3544893e-04
1.0427922e-03
2.1811505e-03
3.3864700e-03
4.5667229e-03
5.4839495e-03
5.8014147e-03
5.5015385e-03
4.5331435e-03
3.8981409e-03
2.9847796e-03
8.3650316e-04
-1.6471408e-03
-4.0309886e-03
-6.4444783e-03
-7.8419165e-03
-7.2653012e-03
-5.2436391e-03
-1.9562405e-03
2.0921343e-03
6.2049158e-03
9.6768731e-03
1.0379933e-02
8.6207127e-03
7.1995639e-03
6.3832319e-03
6.0025854e-03
6.5724570e-03
6.9793285e-03
6.5821089e-03
6.3228546e-03
7.2991598e-03
8.5716658e-03
8.1788520e-03
6.5990641e-03
4.6079027e-03
1.8186882e-03
-1.8582144e-03
-5.2598216e-03
-7.6311574e-03
-1.0198101e-02
-1.2297147e-02
-1.2755100e-02
-1.2131494e-02
-1.0322031e-02
-7.3495043e-03
-3.3611698e-03
9.7347959e-04
4.3117606e-03
6.4086559e-03
7.1493937e-03
6.4543769e-03
5.1457005e-03
4.4372832e-03
4.0678472e-03
2.7676880e-03
5.3204592e-04
-1.7551390e-03
-3.2267203e-03
-3.6857754e-03
-3.1816242e-03
-2.7284684e-03
-3.4419047e-03
-4.6524654e-03
-6.0885558e-03
-7.9819471e-03
-9.7389161e-03
-1.0868333e-02
-1.1467880e-02
-1.1494502e-02
-1.0582221e-02
-8.1581704e-03
-4.4544550e-03
-8.3386638e-04
1.7129321e-03
2.5202025e-03
1.7655943e-03
1.0917507e-03
1.6687055e-03
3.5270068e-03
6.5455543e-03
9.7649128e-03
1.1550609e-02
1.0833964e-02
8.0888759e-03
5.0217216e-03
2.4809642e-03
2.4766083e-04
-1.5748373e-03
-2.6419933e-03
-3.7357835e-03
-5.0335970e-03
-5.8902860e-03
-6.3291953e-03
-5.3691008e-03
-2.8343575e-03
-1.2220859e-04
1.9080898e-03
3.1456368e-03
3.6858526e-03
3.1703115e-03
2.4049416e-03
2.4046198e-03
2.6780671e-03
2.8136800e-03
2.6920120e-03
2.8417335e-03
4.1407137e-03
5.4925215e-03
5.1852267e-03
4.3842269e-03
4.1841470e-03
2.7953587e-03
-9.5389659e-04
-6.7686966e-03
-1.3034677e-02
-1.7113440e-02
-1.8722944e-02
-1.9440484e-02
-1.9356545e-02
-1.7103533e-02
-1.2173762e-02
-6.0638147e-03
-8.4894914e-04
2.9399492e-03
5.7609825e-03
8.1064124e-03
9.8559179e-03
1.0944582e-02
1.2071126e-02
1.3172574e-02
1.4047609e-02
1.4752013e-02
1.4873014e-02
1.3735123e-02
1.1649692e-02
9.2404171e-03
6.5955020e-03
3.6845671e-03
6.2827602e-04
-1.9382507e-03
-3.7635860e-03
-5.1381363e-03
-6.2254143e-03
-7.2558131e-03
-9.2331693e-03
-1.2558336e-02
-1.6004299e-02
-1.7681827e-02
-1.7451393e-02
-1.7221147e-02
-1.7092292e-02
-1.5703244e-02
-1.3244329e-02
-1.0202681e-02
-6.2591548e-03
-8.6118897e-04
5.5114097e-03
1.1430250e-02
1.6077444e-02
1.9307031e-02
2.1418761e-02
2.2523690e-02
2.2115807e-02
2.0339750e-02
1.8631951e-02
1.7358946e-02
1.4721291e-02
9.6066741e-03
2.4087166e-03
-5.6380778e-03
-1.3357452e-02
-1.8500687e-02
-1.7973160e-02
-1.3880508e-02
-1.0661179e-02
-8.8337139e-03
-6.2369151e-03
-2.2517328e-03
1.8385637e-03
6.1364391e-03
1.0763506e-02
1.3585280e-02
1.3003851e-02
1.0508615e-02
7.9171846e-03
5.5188548e-03
3.2757190e-03
1.3582458e-03
-5.1178661e-06
-8.4861666e-04
-1.7576727e-03
-2.9757926e-03
-3.5382659e-03
-1.6300790e-03
2.5457760e-03
4.9089932e-03
3.8902584e-03
2.7373636e-03
3.2943276e-03
3.9251295e-03
2.6520740e-03
1.6185279e-04
-2.2535888e-03
-4.5087130e-03
-6.7001649e-03
-8.9168568e-03
-1.0897586e-02
-1.2079138e-02
-1.1677739e-02
-1.0166582e-02
-9.8065485e-03
-1.2333313e-02
-1.7772572e-02
-2.4453341e-02
-3.0474178e-02
-3.4731548e-02
-3.6255359e-02
-3.4041907e-02
-2.7646651e-02
-1.7594005e-02
-4.0143984e-03
1.0176813e-02
1.9174222e-02
2.2196395e-02
2.2515713e-02
2.3227300e-02
2.5654411e-02
2.7629419e-02
2.7397192e-02
2.5252600e-02
2.1069192e-02
1.4514685e-02
6.3586882e-03
-1.2795432e-03
-6.5221551e-03
-8.6493263e-03
-8.2345348e-03
-6.5726032e-03
-5.2138550e-03
-5.0122224e-03
-5.1126695e-03
-4.3906772e-03
-2.1037454e-03
2.2236474e-03
7.1656838e-03
9.6714658e-03
8.5813189e-03
6.4070690e-03
6.7162148e-03
1.0300255e-02
1.5292339e-02
1.8857657e-02
1.8332144e-02
1.3739555e-02
8.9052885e-03
7.7694812e-03
8.9578880e-03
8.1786082e-03
4.2301152e-03
-1.6617799e-03
-7.3587680e-03
-1.0480040e-02
-1.0213276e-02
-7.8146600e-03
-5.5346745e-03
-4.4782916e-03
-3.9789778e-03
-3.1833595e-03
-3.1339424e-03
-5.5166483e-03
-9.0263075e-03
-1.0127473e-02
-6.8700210e-03
-1.1866471e-03
3.6920588e-03
6.0733042e-03
6.1924991e-03
5.8109459e-03
5.4140503e-03
4.9748879e-03
4.9484613e-03
4.7273695e-03
4.2392573e-03
4.3830503e-03
4.6490310e-03
3.4840043e-03
1.5467398e-03
6.4819578e-04
6.3871619e-04
1.1465825e-03
2.2735463e-03
4.0886559e-03
6.1192767e-03
6.8465837e-03
6.7413350e-03
7.2467647e-03
7.4723987e-03
6.8005167e-03
6.5472300e-03
6.9561948e-03
6.5102430e-03
4.3267797e-03
1.2029426e-03
-1.5043163e-03
-3.8006701e-03
-6.3284214e-03
-8.3431726e-03
-9.8220700e-03
-1.2125543e-02
-1.4291475e-02
-1.5116272e-02
-1.5869591e-02
-1.6704531e-02
-1.6424898e-02
-1.5460528e-02
-1.5010434e-02
-1.4859589e-02
-1.4353578e-02
-1.2935398e-02
-9.5544182e-03
-3.5298936e-03
3.3929541e-03
8.0037749e-03
9.7440748e-03
9.6818241e-03
8.8134462e-03
7.8090307e-03
6.8607659e-03
5.9905841e-03
4.0039932e-03
8.5208552e-04
-2.1623322e-03
-4.2597135e-03
-4.6841741e-03
-4.4032539e-03
-5.0033664e-03
-5.9089102e-03
-5.4473745e-03
-2.7965157e-03
5.8062446e-04
2.3380638e-03
2.5953295e-03
3.1977517e-03
4.6956958e-03
5.9148136e-03
6.1166903e-03
5.6469415e-03
4.1617803e-03
1.3504085e-03
-2.1464438e-03
-4.9095034e-03
-6.0578230e-03
-6.7872834e-03
-8.2227742e-03
-9.1062978e-03
-7.5820919e-03
-4.2924143e-03
-3.3664881e-04
3.5550215e-03
6.1990610e-03
7.7909428e-03
8.8732298e-03
9.6594311e-03
1.0451344e-02
1.1332298e-02
1.2031360e-02
1.2308470e-02
1.1454509e-02
8.8296762e-03
4.8615656e-03
-7.6229488e-04
-7.0326501e-03
-1.1254426e-02
-1.2882368e-02
-1.2710497e-02
-1.1876764e-02
-1.1286313e-02
-1.0037816e-02
-7.3451700e-03
-3.5323520e-03
1.0806096e-03
4.9778646e-03
7.2896005e-03
8.6397548e-03
8.5544082e-03
7.0436569e-03
5.2034335e-03
2.8647802e-03
-8.8496391e-04
-5.4782312e-03
-9.3771180e-03
-1.2050583e-02
-1.3780378e-02
-1.4308291e-02
-1.3107385e-02
-9.2483666e-03
-3.4508701e-03
8.9250576e-04
2.7087760e-03
3.6127901e-03
3.4650353e-03
1.4089230e-03
-1.0804748e-03
-1.7494868e-03
-1.3267077e-04
1.6184821e-03
1.7663675e-03
1.2826801e-03
1.0823677e-03
1.0951968e-03
1.3465993e-03
2.1678282e-03
3.6405430e-03
5.4906544e-03
7.1878385e-03
7.4574195e-03
6.2203105e-03
4.9848988e-03
3.6849179e-03
1.3919038e-03
-1.4081499e-03
-3.6315517e-03
-4.7697260e-03
-5.4911319e-03
-6.6610402e-03
-8.0427220e-03
-8.9200815e-03
-8.7518385e-03
-7.4467571e-03
-5.9514403e-03
-5.3831452e-03
-4.5606385e-03
-1.7850981e-03
1.7249699e-03
4.5501299e-03
7.2137358e-03
9.8953077e-03
1.1229172e-02
1.0570260e-02
9.6846195e-03
1.0075410e-02
1.1244990e-02
1.2359886e-02
1.2590682e-02
1.0997101e-02
7.4811571e-03
2.4710858e-03
-2.8912427e-03
-7.6375139e-03
-1.1757202e-02
-1.4534896e-02
-1.5508049e-02
-1.4546520e-02
-1.1804506e-02
-8.0313184e-03
-3.7205476e-03
-1.4873373e-04
2.0520137e-03
3.8062027e-03
6.0627878e-03
9.0194387e-03
1.2139202e-02
1.4732473e-02
1.6479897e-02
1.7852889e-02
1.9446549e-02
2.0585856e-02
1.9728556e-02
1.6671807e-02
1.2700072e-02
7.3663287e-03
7.6563626e-06
-7.1170275e-03
-1.2085374e-02
-1.4493029e-02
-1.5029283e-02
-1.5110699e-02
-1.4799162e-02
-1.3552217e-02
-1.1855372e-02
-1.0692662e-02
-9.2988274e-03
-7.0060402e-03
-5.6024278e-03
-5.6473539e-03
-6.2510698e-03
-7.4804455e-03
-8.4715976e-03
-8.5547064e-03
-8.7018252e-03
-9.6404920e-03
-1.1202898e-02
-1.1890631e-02
-1.1089943e-02
-9.8366281e-03
-8.8653150e-03
-8.1226358e-03
-7.7775982e-03
-7.8350605e-03
-6.3798155e-03
-2.7241972e-03
5.9060849e-04
9.3345031e-04
-1.6385189e-03
-3.7293575e-03
-1.5541691e-03
5.0106645e-03
1.3081496e-02
1.9641887e-02
2.3223514e-02
2.3966672e-02
2.1795700e-02
1.8024713e-02
1.5222108e-02
1.3542605e-02
1.2491451e-02
1.2145265e-02
1.1623479e-02
9.7258690e-03
5.8591343e-03
1.0883888e-03
-2.7355922e-03
-4.9717777e-03
-6.3522171e-03
-7.5051206e-03
-8.3574598e-03
-9.5998872e-03
-1.1646170e-02
-1.4020894e-02
-1.5431044e-02
-1.4724672e-02
-1.2140325e-02
-8.1656740e-03
-4.2252347e-03
-1.2978959e-03
1.0025084e-03
2.4189808e-03
2.9680055e-03
3.7380759e-03
5.5011277e-03
7.6096269e-03
8.8779278e-03
9.1842252e-03
9.1198381e-03
8.8369476e-03
8.1544786e-03
7.4014332e-03
6.5787557e-03
4.6117737e-03
1.4744797e-03
-1.0912723e-03
-2.3103296e-03
-3.1942498e-03
-4.5579714e-03
-6.1442728e-03
-6.6434823e-03
-5.2743323e-03
-3.5913076e-03
-3.2869619e-03
-3.2034576e-03
-1.3810269e-03
1.6671999e-03
4.5724296e-03
7.2971256e-03
9.7748117e-03
1.0899160e-02
1.0685870e-02
1.0611364e-02
1.1148471e-02
1.1231116e-02
9.2938432e-03
5.5943179e-03
2.3991184e-03
-3.0722437e-04
-3.8720377e-03
-6.9742190e-03
-7.8636562e-03
-6.7610472e-03
-5.2205642e-03
-4.1510087e-03
-2.5474949e-03
-1.7917879e-04
1.2993602e-03
1.9412526e-03
2.7917765e-03
2.7823725e-03
2.2342135e-03
2.3889660e-03
2.3807149e-03
2.3711203e-03
2.3197184e-03
1.7108233e-03
2.2265004e-03
3.8529259e-03
4.4897288e-03
3.4767710e-03
8.8229712e-04
-2.6182968e-03
-6.1318620e-03
-9.5013609e-03
-1.1967632e-02
-1.2220062e-02
-1.0104192e-02
-7.3661607e-03
-5.9452197e-03
-5.4075486e-03
-5.0994101e-03
-5.6520446e-03
-6.8281689e-03
-7.9814067e-03
-8.4247880e-03
-7.5481947e-03
-5.9799284e-03
-5.8441775e-03
-8.7464567e-03
-1.3702809e-02
-1.9338513e-02
-2.4814057e-02
-2.7927077e-02
-2.6212573e-02
-1.8311166e-02
-6.6931771e-03
2.0744939e-03
5.6959488e-03
6.8574155e-03
6.8937106e-03
6.4053154e-03
6.2433252e-03
6.4247028e-03
7.5292909e-03
1.0921514e-02
1.6024363e-02
2.0625989e-02
2.3412517e-02
2.3773027e-02
2.1108989e-02
1.7079310e-02
1.4581751e-02
1.3556548e-02
1.1946920e-02
8.8309622e-03
5.2516503e-03
1.8561404e-03
-2.0764656e-03
-5.8915962e-03
-7.9883508e-03
-9.1187560e-03
-9.6389682e-03
-7.9543817e-03
-4.7865481e-03
-1.1084918e-03
2.9745491e-03
5.6361826e-03
6.0207445e-03
5.4117026e-03
4.5420874e-03
3.3461722e-03
2.2657351e-03
1.7649284e-03
1.1173116e-03
-4.8996310e-04
-2.2688143e-03
-3.1990746e-03
-3.2725070e-03
-3.7685027e-03
-5.6698804e-03
-7.2289426e-03
-7.9949524e-03
-9.5447564e-03
-1.0973780e-02
-1.0864941e-02
-1.0094491e-02
-9.5900273e-03
-9.0679267e-03
-8.2005151e-03
-6.6910974e-03
-5.7995106e-03
-5.5095118e-03
-3.4114983e-03
2.7613434e-05
3.0300985e-03
5.2398805e-03
6.8977797e-03
8.6604197e-03
1.0871333e-02
1.2122200e-02
1.0646594e-02
8.0996767e-03
7.2053571e-03
7.1081412e-03
6.3913254e-03
5.2260480e-03
3.4567970e-03
1.2730219e-03
-1.0136260e-03
-3.5117498e-03
-5.3088664e-03
-5.3317790e-03
-3.4036935e-03
2.5812605e-04
4.8575973e-03
9.3511123e-03
1.2465906e-02
1.3602586e-02
1.3253872e-02
1.2109032e-02
1.0675560e-02
8.8441798e-03
7.1384365e-03
6.4790219e-03
5.8094133e-03
4.6912737e-03
4.2798168e-03
3.8098197e-03
2.9349764e-03
2.5744345e-03
2.1215190e-03
7.1140100e-04
-8.3918004e-04
-2.4258392e-03
-6.3309946e-03
-1.2270099e-02
-1.6068407e-02
-1.5958076e-02
-1.2877133e-02
-7.5991382e-03
-2.2639092e-03
6.5091678e-04
1.4536164e-03
2.6156745e-03
4.6690311e-03
6.0822359e-03
6.6358254e-03
7.1468240e-03
7.2293620e-03
5.6002768e-03
2.1339465e-03
-1.2956225e-03
-3.0089435e-03
-3.4125282e-03
-3.7518710e-03
-5.1016083e-03
-7.3765083e-03
-9.9170912e-03
-1.2619712e-02
-1.4830795e-02
-1.5217379e-02
-1.3827906e-02
-1.1720441e-02
-8.4064233e-03
-3.8757101e-03
-3.5394365e-04
1.4015793e-03
2.7564990e-03
3.6261094e-03
4.0450750e-03
4.9131876e-03
5.7445644e-03
5.8427699e-03
4.8287892e-03
2.7927556e-03
-1.6804908e-05
-3.0332756e-03
-5.6290998e-03
-8.2170176e-03
-1.0772928e-02
-1.3030292e-02
-1.5002881e-02
-1.6875173e-02
-1.7996498e-02
-1.6008221e-02
-1.0789060e-02
-5.4333749e-03
-1.7590731e-03
4.7645791e-04
1.0499458e-03
2.7310230e-05
-1.1315900e-03
-1.4110426e-03
-3.8315675e-04
1.6099132e-03
3.2001448e-03
3.8158136e-03
4.7269893e-03
7.8598145e-03
1.4328784e-02
2.2399155e-02
2.8289124e-02
3.1080667e-02
3.1062487e-02
2.8131128e-02
2.3755558e-02
1.8949582e-02
1.3581338e-02
7.0134842e-03
-1.6381823e-03
-9.5718496e-03
-1.2479363e-02
-1.1609437e-02
-9.4121187e-03
-6.4070607e-03
-3.8425382e-03
-1.5064333e-03
1.5418098e-03
3.7489054e-03
3.5775947e-03
2.4260797e-03
1.9544476e-03
1.8888073e-03
2.0047112e-03
2.2351110e-03
2.1517792e-03
2.2706120e-03
2.5235158e-03
2.1501444e-03
1.1213560e-03
-7.0020403e-04
-3.7271933e-03
-8.1244260e-03
-1.3301026e-02
-1.8942774e-02
-2.4166995e-02
-2.6863824e-02
-2.7273711e-02
-2.6530091e-02
-2.3700262e-02
-1.8956156e-02
-1.4046102e-02
-9.4575440e-03
-3.8068282e-03
4.1240484e-03
1.3590720e-02
2.3127244e-02
2.9875673e-02
3.2054918e-02
3.0646813e-02
2.6292814e-02
1.9668096e-02
1.1420212e-02
2.5885216e-03
-4.6431893e-03
-9.3996947e-03
-1.3425540e-02
-1.7506871e-02
-1.9727771e-02
-1.8278016e-02
-1.3115755e-02
-6.1682756e-03
2.8250163e-04
5.1268245e-03
9.0435917e-03
1.3482228e-02
1.8205985e-02
2.1531825e-02
2.2290127e-02
2.0856099e-02
1.7662970e-02
1.3036733e-02
8.1927876e-03
4.3253246e-03
1.6346709e-03
-1.3008241e-03
-5.4270894e-03
-9.9738787e-03
-1.4700740e-02
-1.8711478e-02
-2.1316574e-02
-2.3296787e-02
-2.3856844e-02
-2.2628562e-02
-1.9855829e-02
-1.5386891e-02
-1.1120951e-02
-8.7436034e-03
-7.1648845e-03
-5.0002346e-03
-2.3537069e-03
2.3092891e-05
1.3335466e-03
1.9995396e-03
3.3337514e-03
5.4802820e-03
7.4732832e-03
8.8072156e-03
1.0220192e-02
1.2220185e-02
1.4380382e-02
1.6405842e-02
1.8296534e-02
2.0328149e-02
2.1709196e-02
2.1124200e-02
1.8898614e-02
1.5685769e-02
1.0777136e-02
2.7345662e-03
-6.1502030e-03
-1.1508264e-02
-1.3346230e-02
-1.3799924e-02
-1.3826332e-02
-1.3817068e-02
-1.3383390e-02
-1.1910993e-02
-9.8671216e-03
-7.3954816e-03
-4.2157945e-03
-7.2847026e-04
1.9394714e-03
2.9722575e-03
2.5401709e-03
1.5209656e-03
8.6147938e-04
-7.8154763e-05
-1.2618660e-03
-1.4618247e-03
-7.0411419e-04
-2.2118732e-04
-1.1776606e-03
-3.1181535e-03
-4.2016416e-03
-3.6162526e-03
-2.2248022e-03
-5.5477209e-04
1.0413547e-03
1.8210095e-03
1.9226184e-03
1.9367021e-03
2.0656820e-03
2.6904926e-03
3.7050035e-03
4.1488656e-03
3.4502658e-03
2.2217326e-03
1.0639491e-03
-1.4536367e-04
-1.2123982e-03
-1.5775379e-03
-1.0536218e-03
-4.3397776e-04
-5.9269132e-04
-1.4544070e-03
-2.8172754e-03
-3.8579626e-03
-3.3800045e-03
-1.8367433e-03
4.9503702e-05
2.7151923e-03
5.2919815e-03
6.2310051e-03
6.0782492e-03
5.7778400e-03
5.3471617e-03
4.3494388e-03
2.7491468e-03
1.3770940e-03
4.1322955e-04
-2.5174220e-04
-4.6479300e-04
-5.5537948e-04
-1.6882607e-03
-4.5879951e-03
-8.3368959e-03
-1.2364836e-02
-1.6061366e-02
-1.8635498e-02
-2.0463845e-02
-2.1275570e-02
-1.9851983e-02
-1.5960184e-02
-8.8681489e-03
7.7622242e-04
8.6263301e-03
1.2997955e-02
1.5787174e-02
1.8179019e-02
2.0299574e-02
2.1699529e-02
2.1592789e-02
1.9917077e-02
1.7202466e-02
1.3157819e-02
7.0670223e-03
-1.2595082e-03
-1.0667192e-02
-1.8179887e-02
-2.1663012e-02
-2.1702354e-02
-1.9371778e-02
-1.5564791e-02
-1.1081620e-02
-6.1700008e-03
-1.5800025e-03
2.5492602e-03
6.6893801e-03
9.7718360e-03
1.0714021e-02
9.1592719e-03
5.3811416e-03
-1.0065570e-05
-6.8417651e-03
-1.4284648e-02
-2.0731768e-02
-2.4149989e-02
-2.3059292e-02
-1.7268890e-02
-7.4539707e-03
4.8722935e-03
1.6854504e-02
2.5587439e-02
2.9731232e-02
2.9648851e-02
2.6362122e-02
2.1298279e-02
1.7023473e-02
1.5776052e-02
1.7764961e-02
2.0715691e-02
2.1814097e-02
1.8607364e-02
8.4599802e-03
-6.4106787e-03
-1.8375952e-02
-2.3233388e-02
-2.2624372e-02
-1.9013170e-02
-1.3224030e-02
-6.5983795e-03
-1.2908453e-03
8.4309721e-04
-8.5981871e-04
-5.2655262e-03
-9.7613112e-03
-1.1317265e-02
-1.0116927e-02
-8.1375310e-03
-7.9044529e-03
-1.2241864e-02
-1.9927551e-02
-2.6147737e-02
-2.6085721e-02
-1.8457815e-02
-6.6532442e-03
4.7743990e-03
1.2452920e-02
1.4520112e-02
1.1709988e-02
5.5680243e-03
-2.2094563e-03
-6.5912559e-03
-2.7453274e-03
6.4233378e-03
1.3268467e-02
1.3476456e-02
7.7748190e-03
7.4151162e-04
-3.4017522e-03
-5.3087126e-03
-7.8244289e-03
-1.2100697e-02
-1.7238083e-02
-2.0264550e-02
-1.8995421e-02
-1.4259009e-02
-8.6178194e-03
-4.8776181e-03
-2.9723228e-03
-5.2634532e-05
4.4692753e-03
9.7445072e-03
1.7040733e-02
2.4630408e-02
2.8607055e-02
2.9338969e-02
2.7941801e-02
2.4634494e-02
2.0561792e-02
1.6604914e-02
1.2479075e-02
8.3353577e-03
4.8202722e-03
1.6394542e-03
-2.3636143e-04
5.4270627e-05
1.0537396e-03
1.8908326e-03
3.2749794e-03
4.9014425e-03
5.9419243e-03
6.8559635e-03
7.6675033e-03
8.3436011e-03
9.5672552e-03
1.0549499e-02
9.5613977e-03
5.8654675e-03
4.8813886e-04
-4.2998359e-03
-7.0682144e-03
-8.0166188e-03
-8.2100105e-03
-7.9343243e-03
-6.5606892e-03
-4.8322274e-03
-3.9426873e-03
-3.7287626e-03
-4.7918176e-03
-6.7984439e-03
-7.0725063e-03
-5.6156889e-03
-4.2976567e-03
-2.8324205e-03
-1.6006559e-03
-1.6031928e-03
-2.3550380e-03
-3.4869196e-03
-5.5168622e-03
-8.3287671e-03
-9.9114213e-03
-9.8674098e-03
-9.4003461e-03
-8.7324318e-03
-8.0560705e-03
-7.2709028e-03
-6.1831351e-03
-4.1461819e-03
-1.6655627e-03
-4.4393070e-04
-5.4665793e-04
-1.1850775e-03
-1.6571396e-03
-1.9975285e-03
-1.8731639e-03
-1.3747076e-03
-1.7981249e-03
-2.7407668e-03
-2.9555295e-03
-2.0446942e-03
-9.6422347e-05
1.9933357e-03
3.5145054e-03
5.0671550e-03
6.4511547e-03
6.1370252e-03
4.7145378e-03
3.8539847e-03
4.0830507e-03
5.2769607e-03
6.2240391e-03
6.3436361e-03
5.6500820e-03
3.6317282e-03
1.1003969e-03
-1.2393865e-03
-3.9033430e-03
-6.8368553e-03
-9.4946112e-03
-1.0821345e-02
-1.0154245e-02
-8.3699123e-03
-6.1192100e-03
-3.0396089e-03
2.1913701e-04
2.2679155e-03
2.9482389e-03
3.5622380e-03
5.1595500e-03
7.8352869e-03
1.0996262e-02
1.2964365e-02
1.2721026e-02
1.0864315e-02
8.1027302e-03
4.5532600e-03
9.8557217e-04
-1.6389092e-03
-3.0324070e-03
-2.8851303e-03
-1.6870505e-03
-7.3260058e-04
-5.6885541e-04
-9.6328006e-04
-1.3403137e-03
-5.4322406e-04
1.1933279e-03
2.6858068e-03
3.9498319e-03
5.2765024e-03
6.9156467e-03
8.9140317e-03
1.0923636e-02
1.2636323e-02
1.3517881e-02
1.3227617e-02
1.2537341e-02
1.1991745e-02
1.0668606e-02
8.8808088e-03
7.7499373e-03
6.7656422e-03
6.2719572e-03
6.9381629e-03
7.4601430e-03
7.0932616e-03
6.3090971e-03
4.6465746e-03
1.8672729e-03
-2.0548125e-03
-7.0870624e-03
-1.1535651e-02
-1.4160243e-02
-1.5509117e-02
-1.6342779e-02
-1.7220727e-02
-1.7737819e-02
-1.7222071e-02
-1.6334521e-02
-1.5438163e-02
-1.4731183e-02
-1.4188930e-02
-1.3347869e-02
-1.3342996e-02
-1.5215167e-02
-1.7725966e-02
-2.0008750e-02
-2.3062242e-02
-2.7213225e-02
-3.1418235e-02
-3.3450446e-02
-3.0942919e-02
-2.2936524e-02
-1.0593848e-02
2.7235690e-03
1.3151468e-02
1.9187345e-02
2.2712958e-02
2.4844557e-02
2.5508525e-02
2.6086111e-02
2.7799388e-02
2.9392810e-02
2.8799477e-02
2.5255625e-02
1.9291887e-02
1.4261106e-02
1.1648290e-02
7.8148886e-03
1.2930726e-03
-6.5752940e-03
-1.3651049e-02
-1.5385714e-02
-1.0099927e-02
-1.7686909e-03
4.7066972e-03
7.8315819e-03
8.7687961e-03
8.4148392e-03
7.1527659e-03
5.0144516e-03
2.2971402e-03
2.6592674e-04
-2.2681401e-04
-3.5364482e-05
1.5200269e-04
8.8155697e-04
1.7494885e-03
1.1961973e-03
-1.1740758e-03
-4.0583491e-03
-5.3030105e-03
-5.1377166e-03
-6.9291415e-03
-1.2240122e-02
-1.9783580e-02
-2.7386568e-02
-3.2487558e-02
-3.3112129e-02
-2.9503057e-02
-2.3684958e-02
-1.7076480e-02
-9.9397233e-03
-2.4292747e-03
4.4391150e-03
9.8465190e-03
1.3859664e-02
1.5778140e-02
1.5015190e-02
1.2408152e-02
9.4388012e-03
7.9768464e-03
8.5919994e-03
8.4248304e-03
3.6870315e-03
-5.7931159e-03
-1.5899882e-02
-2.1362292e-02
-2.1649427e-02
-2.1398518e-02
-2.2160489e-02
-2.1531757e-02
-1.8263476e-02
-1.3536803e-02
-9.6708575e-03
-7.3597785e-03
-5.2767492e-03
-1.5144834e-03
5.1961334e-03
1.3762771e-02
2.0181419e-02
2.1438015e-02
1.8070436e-02
1.2599087e-02
8.1402634e-03
6.1612821e-03
5.1587879e-03
3.3277618e-03
1.6645285e-03
1.7905762e-03
2.5384814e-03
2.0746723e-03
1.0147161e-03
2.1693639e-03
6.7187227e-03
1.1610388e-02
1.4301177e-02
1.5244133e-02
1.5950214e-02
1.7607532e-02
1.9632614e-02
2.1205192e-02
2.1375034e-02
1.7937703e-02
1.0434751e-02
2.5697511e-03
-1.1781859e-03
-6.6187055e-04
1.9067491e-03
6.0782292e-03
1.1856705e-02
1.7298310e-02
1.8826552e-02
1.4883561e-02
7.7367875e-03
1.3402283e-03
-1.7753215e-03
-9.9233042e-04
3.1603578e-03
7.4294213e-03
9.5564468e-03
1.1217518e-02
1.3328571e-02
1.4043626e-02
1.2362691e-02
1.0243963e-02
9.3784269e-03
8.6962337e-03
8.1617351e-03
9.7428597e-03
1.3070418e-02
1.6535175e-02
1.8393236e-02
1.7354907e-02
1.4719490e-02
1.1248990e-02
6.4593742e-03
1.1931102e-03
-3.7789038e-03
-8.7017561e-03
-1.2992872e-02
-1.5555545e-02
-1.6820209e-02
-1.7938612e-02
-1.9305153e-02
-2.0910399e-02
-2.2536993e-02
-2.3732605e-02
-2.4487551e-02
-2.4752779e-02
-2.3560126e-02
-1.9718458e-02
-1.2640214e-02
-3.2096092e-03
5.1537238e-03
8.2859745e-03
5.1146406e-03
-2.0464793e-03
-9.3702976e-03
-1.3152469e-02
-1.1672521e-02
-6.3702474e-03
-1.0317774e-03
1.9850276e-03
2.8825280e-03
2.4927952e-03
2.2392663e-03
3.3881648e-03
5.6918277e-03
8.0296364e-03
1.0017770e-02
1.1463273e-02
1.1869841e-02
1.2073216e-02
1.2024735e-02
1.0691778e-02
9.2732148e-03
8.1870196e-03
6.4802489e-03
3.5836745e-03
-9.8434831e-04
-5.5180814e-03
-7.8521487e-03
-7.7923981e-03
-6.5097503e-03
-4.6859494e-03
-2.2351368e-03
-1.7539584e-04
8.4604679e-04
7.0467512e-04
-3.1329889e-04
-1.1575350e-03
-2.4632179e-03
-4.8164536e-03
-6.7096466e-03
-7.9824221e-03
-9.2194109e-03
-1.0432205e-02
-1.2850574e-02
-1.6120797e-02
-1.8265488e-02
-1.9078147e-02
-1.8773274e-02
-1.7674881e-02
-1.6110868e-02
-1.3837397e-02
-1.1786220e-02
-1.0317393e-02
-9.0165640e-03
-8.1396726e-03
-8.1785667e-03
-9.5880846e-03
-1.1803163e-02
-1.3667150e-02
-1.4441347e-02
-1.3659506e-02
-1.0746141e-02
-5.1144896e-03
1.9033519e-03
7.1202213e-03
1.0154902e-02
1.2230541e-02
1.2814412e-02
1.2348245e-02
1.2374862e-02
1.2789750e-02
1.2846630e-02
1.2914765e-02
1.3412220e-02
1.3781155e-02
1.2853507e-02
1.0212161e-02
6.8663730e-03
4.0407655e-03
1.8890991e-03
-6.2204510e-04
-3.3095783e-03
-4.8673805e-03
-5.5392873e-03
-5.8913716e-03
-5.4917731e-03
-3.9925960e-03
-2.0690475e-03
-4.7544662e-04
5.3934668e-04
1.2838799e-03
1.5246175e-03
-3.6182665e-04
-3.8271892e-03
-7.1245353e-03
-1.1433962e-02
-1.6993870e-02
-2.0034733e-02
-1.7883116e-02
-1.2453660e-02
-7.9624219e-03
-6.4939084e-03
-7.0956005e-03
-8.1936188e-03
-8.1798502e-03
-6.2002114e-03
-2.2941629e-03
3.2526210e-03
9.2146880e-03
1.3792024e-02
1.6157945e-02
1.6841210e-02
1.5856998e-02
1.2412107e-02
8.6314688e-03
8.0221092e-03
1.0620439e-02
1.4571863e-02
1.7913446e-02
1.8589238e-02
1.5643372e-02
1.0571430e-02
5.2790779e-03
-2.2160251e-06
-4.4636708e-03
-7.3109866e-03
-8.4792219e-03
-7.6701266e-03
-5.4871352e-03
-3.4773297e-03
-2.3222443e-03
-1.4192829e-03
-5.4392958e-04
-4.3521543e-04
-1.5378703e-03
-3.4313688e-03
-5.0532217e-03
-5.5359611e-03
-5.4719399e-03
-5.5410295e-03
-5.3538154e-03
-4.1862551e-03
-2.0592752e-03
-3.3447499e-05
1.4146303e-03
2.8053429e-03
4.0587980e-03
5.0484667e-03
6.2805540e-03
7.1898818e-03
7.3054060e-03
6.7962486e-03
6.2908729e-03
7.1941765e-03
8.5117522e-03
9.2684311e-03
1.0832523e-02
1.2935916e-02
1.4776751e-02
1.5992473e-02
1.5720240e-02
1.3314713e-02
7.5689355e-03
-3.3677863e-04
-6.2156281e-03
-8.1885232e-03
-8.1118129e-03
-9.2498971e-03
-1.3172467e-02
-1.9174506e-02
-2.5642402e-02
-3.0627968e-02
-3.3066195e-02
-3.2999776e-02
-3.1215078e-02
-2.8659977e-02
-2.5638180e-02
-2.2454670e-02
-1.8890700e-02
-1.3193613e-02
-3.5383397e-03
9.8817612e-03
2.5330621e-02
3.9273490e-02
4.6398342e-02
4.4619320e-02
3.7267890e-02
2.8412668e-02
2.0845927e-02
1.6277040e-02
1.3720908e-02
1.1149571e-02
7.4023974e-03
2.0680529e-03
-3.8376734e-03
-9.3926912e-03
-1.4765021e-02
-1.9614903e-02
-2.3407139e-02
-2.4473902e-02
-2.1441387e-02
-1.5555870e-02
-9.5496951e-03
-6.0863269e-03
-5.7166028e-03
-7.5034633e-03
-1.0699136e-02
-1.3944313e-02
-1.5076302e-02
-1.3711725e-02
-1.0969764e-02
-6.6751416e-03
3.4988826e-04
7.9173793e-03
1.1776007e-02
1.2527118e-02
1.2979139e-02
1.3404452e-02
1.3130945e-02
1.2779276e-02
1.3583473e-02
1.5292299e-02
1.6129490e-02
1.4416846e-02
9.9021061e-03
2.8509328e-03
-5.1681661e-03
-1.1108629e-02
-1.3383395e-02
-1.1990136e-02
-8.7407888e-03
-7.4652189e-03
-9.0667345e-03
-1.0912698e-02
-1.1591018e-02
-1.0633731e-02
-8.0310967e-03
-4.4733680e-03
1.2792033e-04
5.5903213e-03
1.0732297e-02
1.5117093e-02
1.8980973e-02
2.2086139e-02
2.4163204e-02
2.4387336e-02
2.1724135e-02
1.6842345e-02
1.1765225e-02
7.4495085e-03
3.4149970e-03
6.4142318e-05
-1.6767887e-03
-2.3510216e-03
-3.0594363e-03
-4.3052516e-03
-5.6314849e-03
-5.8357131e-03
-5.0823605e-03
-3.8940290e-03
-2.0514363e-03
-2.3416606e-04
-1.2352631e-04
-1.6452394e-03
-2.4847434e-03
-1.4659258e-03
1.2308658e-03
4.0444051e-03
4.5412211e-03
3.3514974e-03
2.5103871e-03
1.2467670e-03
-5.8149532e-04
-1.2966629e-03
-1.1561901e-03
-7.5930677e-04
7.6035952e-04
3.1073999e-03
5.6523200e-03
8.8619845e-03
1.1644004e-02
1.1258614e-02
7.0549127e-03
9.7187104e-04
-5.0651897e-03
-9.4117659e-03
-1.1523846e-02
-1.2281311e-02
-1.2643080e-02
-1.3152242e-02
-1.3551001e-02
-1.2743125e-02
-1.0191594e-02
-6.8327729e-03
-2.8238142e-03
2.1017101e-03
6.7467253e-03
1.0642605e-02
1.3196657e-02
1.3489925e-02
1.2672303e-02
1.0532380e-02
5.4169140e-03
-1.6490570e-03
-8.7889030e-03
-1.5866232e-02
-2.2083089e-02
-2.5884381e-02
-2.8207892e-02
-2.9687655e-02
-2.7972906e-02
-2.2094577e-02
-1.3748127e-02
-4.8236985e-03
2.9871183e-03
7.8599969e-03
8.5987593e-03
5.8052875e-03
1.0768364e-03
-2.9395873e-03
-2.7525113e-03
2.1844967e-03
8.7208620e-03
1.3424276e-02
1.5448735e-02
1.5239999e-02
1.2802685e-02
9.5741857e-03
7.0846919e-03
5.5455914e-03
4.9626967e-03
5.0372166e-03
4.5581371e-03
2.6302429e-03
3.6963324e-04
-6.1116493e-04
3.5574629e-04
3.4686772e-03
7.4075647e-03
9.8435179e-03
9.6607157e-03
6.7474167e-03
2.2459583e-03
-2.1570342e-03
-5.2910966e-03
-6.5635978e-03
-6.6562970e-03
-6.6524965e-03
-6.7281315e-03
-5.8919345e-03
-3.9690869e-03
-2.6873020e-03
-2.4255517e-03
-1.6966193e-03
7.2753843e-05
1.7465997e-03
2.0669450e-03
1.4319555e-03
4.9786059e-04
-3.8015766e-04
-2.6536462e-04
6.8776050e-05
-1.4724978e-03
-4.5631573e-03
-7.1994959e-03
-8.7443008e-03
-8.6324685e-03
-6.4581500e-03
-3.4822026e-03
-4.8920583e-04
2.4268713e-03
5.2245188e-03
8.0648983e-03
1.0512066e-02
1.1799674e-02
1.1687572e-02
1.1066544e-02
1.0530616e-02
8.8028470e-03
5.6953517e-03
3.2967811e-03
3.2340605e-03
5.0057194e-03
6.6733475e-03
7.2428454e-03
6.8921351e-03
6.6144637e-03
7.4775333e-03
8.7809304e-03
8.6598738e-03
5.8296361e-03
1.0616468e-03
-3.8508661e-03
-7.6971949e-03
-9.6755742e-03
-1.0637527e-02
-1.1433125e-02
-1.0522695e-02
-7.9108222e-03
-6.6278256e-03
-8.4601226e-03
-1.2504914e-02
-1.7393752e-02
-2.2798384e-02
-2.7952495e-02
-3.0529120e-02
-2.9233993e-02
-2.5118820e-02
-1.9875891e-02
-1.4537209e-02
-8.9304475e-03
-2.3111269e-03
6.6610415e-03
1.6328986e-02
2.1441684e-02
2.1530112e-02
2.0107540e-02
1.8489523e-02
1.6697034e-02
1.5822346e-02
1.6053291e-02
1.5516487e-02
1.3701090e-02
1.0848562e-02
7.1936146e-03
3.9843824e-03
1.1489430e-03
-1.8659839e-03
-4.6616915e-03
-6.0097536e-03
-5.3467409e-03
-4.4002480e-03
-4.3594567e-03
-4.7318078e-03
-5.1002826e-03
-5.2733490e-03
-4.1708008e-03
-1.3379327e-03
1.3966970e-03
2.5098801e-03
2.4622453e-03
2.4105290e-03
3.2641675e-03
4.6090408e-03
5.0723258e-03
4.1782832e-03
2.7106908e-03
7.9095714e-04
-3.0050236e-03
-8.0488547e-03
-1.1245866e-02
-1.2113066e-02
-1.1990036e-02
-1.0994471e-02
-9.4072401e-03
-6.5996361e-03
-1.8926998e-03
3.0803956e-03
6.5925578e-03
8.5639786e-03
9.8348416e-03
1.0322329e-02
9.1734949e-03
7.0272014e-03
5.3302351e-03
4.1584217e-03
3.3405611e-03
3.5098785e-03
4.2963367e-03
4.4131031e-03
3.2574124e-03
8.6889205e-04
-1.7497179e-03
-3.2626479e-03
-4.0247916e-03
-4.3053360e-03
-2.7524358e-03
9.1989593e-04
5.7009418e-03
1.0567876e-02
1.4116183e-02
1.5281128e-02
1.4592273e-02
1.2504880e-02
8.9680415e-03
4.6716282e-03
6.9211231e-04
-2.0300329e-03
-3.1952972e-03
-2.8036842e-03
-1.4077021e-03
2.0810920e-05
2.0406791e-04
-1.1594765e-03
-2.8082293e-03
-3.8953900e-03
-3.9399551e-03
-3.4110088e-03
-3.3598618e-03
-4.5377602e-03
-6.8824460e-03
-8.4965450e-03
-8.4879048e-03
-7.1131787e-03
-4.0160374e-03
-2.5813101e-04
2.9101981e-03
5.3098107e-03
6.3480903e-03
6.0022502e-03
4.7383857e-03
3.0291685e-03
1.7448778e-03
1.0940976e-03
5.2217641e-04
-1.0037934e-03
-5.0268097e-03
-1.1694772e-02
-1.8387153e-02
-2.2106723e-02
-2.1879875e-02
-1.8673515e-02
-1.4007387e-02
-8.9266429e-03
-4.3283410e-03
-1.0219598e-03
1.1545280e-03
3.5857894e-03
6.7110284e-03
1.0010309e-02
1.3388617e-02
1.6147525e-02
1.7574027e-02
1.7790462e-02
1.7448966e-02
1.7481017e-02
1.8424054e-02
2.0404238e-02
2.2504956e-02
2.3316710e-02
2.2812102e-02
2.1295694e-02
1.9200645e-02
1.6748873e-02
1.3825240e-02
1.1221583e-02
8.6598152e-03
4.9383163e-03
5.5407086e-04
-3.2088598e-03
-6.1329476e-03
-8.0792741e-03
-7.8201572e-03
-5.4841669e-03
-2.5348653e-03
1.0028442e-04
1.1488623e-03
7.5610542e-04
-6.6304787e-05
-1.5895636e-03
-3.5356101e-03
-5.0741611e-03
-6.0836107e-03
-6.4935701e-03
-6.8222201e-03
-7.5057512e-03
-7.8874004e-03
-7.8830835e-03
-8.3342175e-03
-1.0298473e-02
-1.3052381e-02
-1.5268760e-02
-1.7444915e-02
-1.8968784e-02
-1.8541493e-02
-1.7306601e-02
-1.6542512e-02
-1.5272855e-02
-1.2407891e-02
-8.8910724e-03
-6.2095507e-03
-4.4009132e-03
-3.1735540e-03
-2.7262011e-03
-2.9481577e-03
-3.0094996e-03
-1.4771421e-03
1.8054660e-03
5.4226382e-03
8.1797906e-03
9.2011942e-03
8.5084903e-03
7.2641613e-03
5.9592787e-03
4.9214739e-03
3.9929040e-03
2.2034132e-03
2.8083711e-04
-1.3558356e-03
-3.0730488e-03
-3.8200087e-03
-2.8979350e-03
-6.8679608e-04
1.2394542e-03
1.6514463e-03
1.6012563e-03
1.8470506e-03
2.3152840e-03
3.6257173e-03
5.9354330e-03
8.1700285e-03
9.1095992e-03
8.1133969e-03
5.5020924e-03
2.5301140e-03
3.5313950e-04
-6.4761391e-04
-8.6742438e-04
-8.0939851e-04
-1.1572990e-03
-2.6440786e-03
-5.1767151e-03
-7.9652278e-03
-1.0114903e-02
-1.1122091e-02
-1.0806810e-02
-9.6781635e-03
-8.9301512e-03
-9.0233599e-03
-9.1322911e-03
-8.0813374e-03
-5.4499651e-03
-2.5381831e-03
-7.4589104e-04
-6.2149419e-04
-1.8908982e-03
-2.7603657e-03
-3.0162930e-03
-3.8214911e-03
-4.7370180e-03
-5.3458586e-03
-5.8192108e-03
-6.2654698e-03
-6.7148401e-03
-6.8009298e-03
-6.7906722e-03
-6.9329387e-03
-6.8097092e-03
-6.7270651e-03
-6.8402963e-03
-6.0034472e-03
-3.8671848e-03
-9.2285808e-04
2.8108508e-03
6.5578406e-03
9.2490735e-03
1.0776417e-02
1.1513577e-02
1.2228255e-02
1.3040619e-02
1.2784846e-02
1.0892393e-02
7.9024922e-03
4.8257124e-03
2.2062978e-03
4.9023919e-04
1.9447938e-04
4.0084569e-04
-3.7086737e-04
-1.8339299e-03
-3.0495658e-03
-4.1978893e-03
-4.7097041e-03
-4.2043619e-03
-3.3762897e-03
-1.8282719e-03
9.2833585e-04
4.0137218e-03
5.7850027e-03
5.9055549e-03
5.2775250e-03
3.6524922e-03
1.1218078e-03
-1.3739731e-03
-3.2614861e-03
-3.3372245e-03
-1.6389211e-03
2.2788269e-04
2.3210858e-03
5.0608442e-03
7.0495952e-03
6.5905803e-03
3.8227219e-03
4.0066947e-04
-2.7321559e-03
-5.3153954e-03
-7.2592067e-03
-8.8205113e-03
-9.2530596e-03
-7.6807208e-03
-4.9486938e-03
-1.9086417e-03
1.3498965e-03
4.1623392e-03
5.5204440e-03
5.4601124e-03
4.7885749e-03
4.5068398e-03
4.8179111e-03
5.0332380e-03
5.2559590e-03
4.8566596e-03
3.4326701e-03
1.7814185e-03
5.0515799e-05
-1.1401172e-03
-1.3401301e-03
-1.5542546e-03
-2.4019848e-03
-3.4586760e-03
-4.9444782e-03
-6.9916221e-03
-7.7019410e-03
-5.6127590e-03
-1.4005002e-03
3.6180197e-03
7.7073874e-03
1.0373001e-02
1.2349572e-02
1.3406141e-02
1.3570813e-02
1.3330065e-02
1.2241891e-02
1.0136723e-02
7.3165751e-03
3.5984219e-03
6.3652190e-05
-2.4739882e-03
-4.8616767e-03
-6.8292568e-03
-8.3898231e-03
-9.9187226e-03
-1.0872476e-02
-1.1329671e-02
-1.1138096e-02
-9.7418193e-03
-7.5399042e-03
-5.0464607e-03
-2.5163601e-03
-7.0690967e-04
5.4189079e-04
2.1311695e-03
3.7181753e-03
4.0750707e-03
2.8922205e-03
1.5881184e-03
1.1266140e-03
1.3187653e-03
1.7392274e-03
2.0218138e-03
1.5710098e-03
-3.3862060e-04
-2.4839692e-03
-3.1333301e-03
-3.3306494e-03
-4.6425779e-03
-6.2916285e-03
-6.9600549e-03
-6.4758687e-03
-5.5006369e-03
-3.9333697e-03
-1.9204522e-03
-6.7927718e-04
-3.7909838e-04
-1.8526144e-04
6.6286983e-04
1.8030951e-03
2.5837455e-03
3.1070787e-03
4.1511360e-03
5.5772594e-03
5.9811793e-03
5.3179060e-03
4.0577185e-03
2.4746116e-03
9.1403145e-04
-6.6712486e-04
-2.5194247e-03
-5.5876908e-03
-9.0973745e-03
-1.0945389e-02
-1.1084766e-02
-1.0522025e-02
-9.2626367e-03
-6.4871279e-03
-3.2980762e-03
-1.4335866e-03
-6.4246697e-04
-4.1756900e-04
-5.4714460e-04
-1.5901239e-04
2.0726158e-03
7.4765726e-03
1.5886373e-02
2.4839805e-02
3.1677402e-02
3.4090386e-02
3.1342868e-02
2.5403909e-02
1.8222634e-02
9.9345027e-03
1.2957793e-03
-6.1132672e-03
-1.1848705e-02
-1.4793841e-02
-1.4262671e-02
-1.1543357e-02
-7.9120483e-03
-4.8011391e-03
-3.7089144e-03
-4.4356781e-03
-6.0503132e-03
-7.7584584e-03
-8.6025751e-03
-8.4189810e-03
-7.7667158e-03
-6.4555951e-03
-3.5265274e-03
2.5812242e-04
1.5037627e-03
-2.6497229e-03
-1.0826089e-02
-1.8769925e-02
-2.3867811e-02
-2.5527865e-02
-2.3280279e-02
-1.8254722e-02
-1.2838837e-02
-8.1970604e-03
-3.7686453e-03
3.1872411e-03
1.3612263e-02
2.3484646e-02
2.8502399e-02
2.8458568e-02
2.4981918e-02
1.8539616e-02
1.1274097e-02
6.0492740e-03
2.8604754e-03
9.8179952e-04
5.3648525e-05
-3.4899614e-04
-7.7110518e-04
-1.5144806e-03
-2.3653155e-03
-3.7887856e-03
-5.7263246e-03
-6.7717776e-03
-6.1369191e-03
-4.5744106e-03
-2.7976585e-03
-4.1188185e-04
1.5689363e-03
1.1888289e-03
-1.2288527e-03
-4.3280078e-03
-6.3243805e-03
-5.0127534e-03
-4.9083800e-04
3.3528446e-03
2.2326772e-03
-3.1767351e-03
-8.9955121e-03
-1.2808820e-02
-1.3811929e-02
-1.1390032e-02
-6.1994698e-03
-3.3193578e-04
4.6175487e-03
7.2181985e-03
7.5622099e-03
8.1105865e-03
1.0401637e-02
1.3928200e-02
1.6678762e-02
1.6917152e-02
1.5486738e-02
1.4164060e-02
1.3620677e-02
1.3151902e-02
1.1466381e-02
8.9922044e-03
6.8646823e-03
4.8887919e-03
3.3756293e-03
2.9577398e-03
2.8196536e-03
1.4731110e-03
-1.3100552e-03
-4.5920333e-03
-8.7056148e-03
-1.3970751e-02
-1.7812416e-02
-1.7985236e-02
-1.5192924e-02
-1.1264699e-02
-7.3958961e-03
-3.8845250e-03
-1.5728068e-03
-1.2543881e-03
-2.6454684e-03
-5.3112425e-03
