3.2927111e-02
1.8865301e-01
3.2800629e-01
4.3534235e-01
4.9818102e-01
5.0890736e-01
4.6570496e-01
3.7282414e-01
2.4033872e-01
8.3481783e-02
-7.8490233e-02
-2.2406611e-01
-3.3199151e-01
-3.8439111e-01
-3.7003884e-01
-2.8707275e-01
-1.4442526e-01
3.8569534e-02
2.3459621e-01
4.1260161e-01
5.4322266e-01
6.0437692e-01
5.8578143e-01
4.9124165e-01
3.3798155e-01
1.5301616e-01
-3.2588434e-02
-1.9008086e-01
-2.9840355e-01
-3.4742386e-01
-3.3859817e-01
-2.8331355e-01
-1.9956650e-01
-1.0782408e-01
-2.6929467e-02
2.9194550e-02
5.3496281e-02
4.6149772e-02
1.3424322e-02
-3.4492653e-02
-8.6106022e-02
-1.3106348e-01
-1.6201076e-01
-1.7561596e-01
-1.7270306e-01
-1.5756771e-01
-1.3664978e-01
-1.1682493e-01
-1.0366058e-01
-1.0003807e-01
-1.0550873e-01
-1.1657754e-01
-1.2783083e-01
-1.3355641e-01
-1.2934874e-01
-1.1320116e-01
-8.5761446e-02
-4.9698124e-02
-8.3985293e-03
3.5573440e-02
8.1733096e-02
1.3216329e-01
1.9096792e-01
2.6277198e-01
3.5069817e-01
4.5441948e-01
5.6881697e-01
6.8358102e-01
7.8391770e-01
8.5236773e-01
8.7154515e-01
8.2735470e-01
7.1203875e-01
5.2634074e-01
2.8020838e-01
-8.2078406e-03
-3.1506370e-01
-6.1424386e-01
-8.8090404e-01
-1.0944039e+00
-1.2401839e+00
-1.3104962e+00
-1.3041909e+00
-1.2259032e+00
-1.0849721e+00
-8.9429881e-01
-6.6921193e-01
-4.2631831e-01
-1.8229076e-01
4.7443829e-02
2.5008064e-01
4.1673364e-01
5.4341151e-01
6.3138183e-01
6.8664815e-01
7.1838586e-01
7.3643824e-01
7.4831555e-01
7.5644973e-01
7.5659489e-01
7.3811772e-01
6.8646111e-01
5.8740455e-01
4.3212010e-01
2.2166882e-01
-3.0368039e-02
-2.9799224e-01
-5.4582731e-01
-7.3463356e-01
-8.2836292e-01
-8.0155055e-01
-6.4572778e-01
-3.7356646e-01
-1.9663275e-02
3.6272151e-01
7.0903257e-01
9.5414554e-01
1.0448173e+00
9.5148145e-01
6.7665928e-01
2.5752086e-01
-2.3886191e-01
-7.2738494e-01
-1.1217862e+00
-1.3527637e+00
-1.3828672e+00
-1.2143433e+00
-8.8800832e-01
-4.7361586e-01
-5.4242871e-02
2.9155788e-01
5.0578192e-01
5.6170132e-01
4.6718494e-01
2.6032775e-01
-1.0614205e-03
-2.5320458e-01
-4.3988674e-01
-5.2273815e-01
-4.8640199e-01
-3.3824355e-01
-1.0363901e-01
1.8124755e-01
4.7708953e-01
7.4772525e-01
9.6427142e-01
1.1069416e+00
1.1650941e+00
1.1362856e+00
1.0250388e+00
8.4174299e-01
6.0173121e-01
3.2429567e-01
3.1350165e-02
-2.5437061e-01
-5.1140952e-01
-7.2161841e-01
-8.7174050e-01
-9.5432332e-01
-9.6796935e-01
-9.1707718e-01
-8.1122108e-01
-6.6421499e-01
-4.9282577e-01
-3.1511208e-01
-1.4845217e-01
-7.4313767e-03
9.8122123e-02
1.6454211e-01
1.9471383e-01
1.9714386e-01
1.8377394e-01
1.6704494e-01
1.5701320e-01
1.5932169e-01
1.7453241e-01
1.9885672e-01
2.2586664e-01
2.4851680e-01
2.6083758e-01
2.5892255e-01
2.4118639e-01
2.0814325e-01
1.6202650e-01
1.0644332e-01
4.6057657e-02
-1.3816792e-02
-6.7786691e-02
-1.1105490e-01
-1.4005053e-01
-1.5286640e-01
-1.4943827e-01
-1.3149734e-01
-1.0237310e-01
-6.6688944e-02
-2.9918852e-02
2.2580932e-03
2.4810836e-02
3.4307444e-02
2.9744309e-02
1.2970514e-02
-1.1547988e-02
-3.7712910e-02
-5.9336025e-02
-7.1790650e-02
-7.3229332e-02
-6.4944377e-02
-5.0735981e-02
-3.5504373e-02
-2.3555074e-02
-1.7179857e-02
-1.5941259e-02
-1.6847289e-02
-1.5355301e-02
-6.9204833e-03
1.1374199e-02
3.9633289e-02
7.4813789e-02
1.1135264e-01
1.4253315e-01
1.6214436e-01
1.6595670e-01
1.5265217e-01
1.2401422e-01
8.4348862e-02
3.9269705e-02
-5.8680890e-03
-4.7477442e-02
-8.4736522e-02
-1.1969046e-01
-1.5628746e-01
-1.9849393e-01
-2.4797075e-01
-3.0204382e-01
-3.5273386e-01
-3.8735636e-01
-3.9074812e-01
-3.4871170e-01
-2.5192510e-01
-9.9386793e-02
9.9508961e-02
3.2491439e-01
5.4869422e-01
7.3853636e-01
8.6333315e-01
8.9890826e-01
8.3304919e-01
6.6880701e-01
4.2515714e-01
1.3446242e-01
-1.6314509e-01
-4.2739688e-01
-6.2563049e-01
-7.3854711e-01
-7.6255721e-01
-7.0845573e-01
-5.9724067e-01
-4.5449848e-01
-3.0488683e-01
-1.6794800e-01
-5.5914373e-02
2.6480500e-02
8.0677914e-02
1.1218089e-01
1.2833582e-01
1.3647172e-01
1.4259114e-01
1.5060944e-01
1.6206353e-01
1.7622247e-01
1.9056294e-01
2.0156634e-01
2.0573823e-01
2.0067307e-01
1.8592240e-01
1.6339932e-01
1.3710892e-01
1.1216838e-01
9.3336584e-02
8.3495431e-02
8.2592547e-02
8.7411039e-02
9.2235031e-02
9.0179107e-02
7.4782003e-02
4.1455620e-02
-1.1525626e-02
-8.2658199e-02
-1.6744055e-01
-2.5901121e-01
-3.4895042e-01
-4.2808402e-01
-4.8726033e-01
-5.1815622e-01
-5.1418140e-01
-4.7149903e-01
-3.9006090e-01
-2.7438940e-01
-1.3372177e-01
1.8817977e-02
1.6808852e-01
2.9950309e-01
4.0161011e-01
4.6791817e-01
4.9748269e-01
4.9423067e-01
4.6538431e-01
4.1951529e-01
3.6471853e-01
3.0723172e-01
2.5067033e-01
1.9595757e-01
1.4195005e-01
8.6609510e-02
2.8371711e-02
-3.2751898e-02
-9.4724001e-02
-1.5381301e-01
-2.0554255e-01
-2.4589313e-01
-2.7233696e-01
-2.8437586e-01
-2.8344269e-01
-2.7225032e-01
-2.5385624e-01
-2.3080113e-01
-2.0463939e-01
-1.7601202e-01
-1.4518778e-01
-1.1281438e-01
-8.0536262e-02
-5.1165374e-02
-2.8228759e-02
-1.4926498e-02
-1.2759496e-02
-2.0263762e-02
-3.2350343e-02
-4.0657429e-02
-3.5078964e-02
-6.2896768e-03
5.1274880e-02
1.3678589e-01
2.4159360e-01
3.4965605e-01
4.4003444e-01
4.9109947e-01
4.8556864e-01
4.1515589e-01
2.8356049e-01
1.0681157e-01
-8.9369807e-02
-2.7463772e-01
-4.2015174e-01
-5.0410128e-01
-5.1532499e-01
-4.5448138e-01
-3.3292294e-01
-1.6985581e-01
1.1427393e-02
1.8741135e-01
3.3760631e-01
4.4673984e-01
5.0579235e-01
5.1206476e-01
4.6861088e-01
3.8335278e-01
2.6806267e-01
1.3721989e-01
6.6441694e-03
-1.0816722e-01
-1.9395347e-01
-2.4168630e-01
-2.4835585e-01
-2.1811430e-01
-1.6227530e-01
-9.7836816e-02
-4.4663737e-02
-2.2028728e-02
-4.5471577e-02
-1.2466979e-01
-2.6240241e-01
-4.5416309e-01
-6.8783633e-01
-9.4312890e-01
-1.1909932e+00
-1.3938374e+00
-1.5076004e+00
-1.4865659e+00
-1.2910686e+00
-8.9719139e-01
-3.0651949e-01
4.4663613e-01
1.2931702e+00
2.1342118e+00
2.8538415e+00
3.3382346e+00
3.4979552e+00
3.2884833e+00
2.7234522e+00
1.8760442e+00
8.6674941e-01
-1.6028828e-01
-1.0662724e+00
-1.7442229e+00
-2.1362175e+00
-2.2381469e+00
-2.0926418e+00
-1.7737418e+00
-1.3681886e+00
-9.5799957e-01
-6.0765942e-01
-3.5742973e-01
-2.2251583e-01
-1.9658044e-01
-2.5754614e-01
-3.7377686e-01
-5.0939430e-01
-6.2836134e-01
-6.9768456e-01
-6.9037085e-01
-5.8855099e-01
-3.8663038e-01
-9.3740025e-02
2.6558644e-01
6.5350282e-01
1.0240835e+00
1.3310014e+00
1.5358554e+00
1.6148913e+00
1.5623770e+00
1.3900874e+00
1.1235778e+00
7.9668253e-01
4.4581945e-01
1.0529923e-01
-1.9583077e-01
-4.3555274e-01
-5.9978207e-01
-6.8290550e-01
-6.8812791e-01
-6.2743429e-01
-5.2074439e-01
-3.9382550e-01
-2.7476404e-01
-1.8924038e-01
-1.5537663e-01
-1.7934321e-01
-2.5303614e-01
-3.5486421e-01
-4.5401758e-01
-5.1763738e-01
-5.1928434e-01
-4.4637738e-01
-3.0426764e-01
-1.1551033e-01
8.5609843e-02
2.6175882e-01
3.8195506e-01
4.2907010e-01
4.0345407e-01
3.2190423e-01
2.1253418e-01
1.0716706e-01
3.3375288e-02
8.1473114e-03
3.4521324e-02
1.0166081e-01
1.8803234e-01
2.6675111e-01
3.1183457e-01
3.0404049e-01
2.3514351e-01
1.0988699e-01
-5.4652775e-02
-2.3205556e-01
-3.9126478e-01
-5.0210965e-01
-5.4061598e-01
-4.9314383e-01
-3.5865787e-01
-1.4885158e-01
1.1370437e-01
3.9884845e-01
6.7279562e-01
9.0202770e-01
1.0565686e+00
1.1124835e+00
1.0538102e+00
8.7428955e-01
5.7910579e-01
1.8643672e-01
-2.7184935e-01
-7.5127791e-01
-1.1984360e+00
-1.5574521e+00
-1.7786290e+00
-1.8276545e+00
-1.6932146e+00
-1.3908081e+00
-9.6124008e-01
-4.6358377e-01
3.5973671e-02
4.7664301e-01
8.1370066e-01
1.0248004e+00
1.1108770e+00
1.0921590e+00
1.0009342e+00
8.7314696e-01
7.4071237e-01
6.2587966e-01
5.3835436e-01
4.7534880e-01
4.2428757e-01
3.6750378e-01
2.8790354e-01
1.7431673e-01
2.5235660e-02
-1.5002181e-01
-3.3304138e-01
-5.0048458e-01
-6.2961384e-01
-7.0374335e-01
-7.1620846e-01
-6.7178309e-01
-5.8508627e-01
-4.7635595e-01
-3.6583047e-01
-2.6848393e-01
-1.9071259e-01
-1.2982891e-01
-7.6261753e-02
-1.7569096e-02
5.7043630e-02
1.5299931e-01
2.6835261e-01
3.9387106e-01
5.1493934e-01
6.1458945e-01
6.7679421e-01
6.8927848e-01
6.4539278e-01
5.4490269e-01
3.9378766e-01
2.0329354e-01
-1.1451062e-02
-2.3296355e-01
-4.4288190e-01
-6.2332646e-01
-7.5822621e-01
-8.3473045e-01
-8.4471132e-01
-7.8612603e-01
-6.6382144e-01
-4.8940408e-01
-2.8005722e-01
-5.6478855e-02
1.5971653e-01
3.4872750e-01
4.9499220e-01
5.8889616e-01
6.2748873e-01
6.1418467e-01
5.5765405e-01
4.7020105e-01
3.6590844e-01
2.5875208e-01
1.6083194e-01
8.0866289e-02
2.3154880e-02
-1.2741465e-02
-3.1441378e-02
-4.0366149e-02
-4.7865281e-02
-6.1310455e-02
-8.5595002e-02
-1.2230968e-01
-1.6965624e-01
-2.2299726e-01
-2.7586662e-01
-3.2125406e-01
-3.5296172e-01
-3.6678621e-01
-3.6125763e-01
-3.3773230e-01
-2.9979806e-01
-2.5215659e-01
-1.9930759e-01
-1.4440727e-01
-8.8610030e-02
-3.1071835e-02
3.0368498e-02
9.7988126e-02
1.7277857e-01
2.5327570e-01
3.3505102e-01
4.1111288e-01
4.7313811e-01
5.1313387e-01
5.2499744e-01
5.0556963e-01
4.5507370e-01
3.7709909e-01
2.7836188e-01
1.6833174e-01
5.8582551e-02
-3.8417507e-02
-1.1127797e-01
-1.5229664e-01
-1.6014312e-01
-1.4170236e-01
-1.1211941e-01
-9.2446432e-02
-1.0499087e-01
-1.6726332e-01
-2.8603654e-01
-4.5323352e-01
-6.4506314e-01
-8.2506505e-01
-9.5072590e-01
-9.8239674e-01
-8.9262127e-01
-6.7376006e-01
-3.4196731e-01
6.3818005e-02
4.8810883e-01
8.6913405e-01
1.1506478e+00
1.2923343e+00
1.2764612e+00
1.1097197e+00
8.2051331e-01
4.5287967e-01
5.8641961e-02
-3.1066329e-01
-6.1086903e-01
-8.1047281e-01
-8.9370433e-01
-8.6119034e-01
-7.2827075e-01
-5.2130778e-01
-2.7269042e-01
-1.5519074e-02
2.2104520e-01
4.1510171e-01
5.5377564e-01
6.3350065e-01
6.5896458e-01
6.4084524e-01
5.9254012e-01
5.2636348e-01
4.5007504e-01
3.6484809e-01
2.6556626e-01
1.4360413e-01
-8.6831814e-03
-1.9321612e-01
-4.0278945e-01
-6.2019084e-01
-8.2023589e-01
-9.7428247e-01
-1.0561378e+00
-1.0479153e+00
-9.4437478e-01
-7.5461157e-01
-5.0062020e-01
-2.1308252e-01
7.4505521e-02
3.3182217e-01
5.3635237e-01
6.7575907e-01
7.4787552e-01
7.5885320e-01
7.2030591e-01
6.4626992e-01
5.5059370e-01
4.4513019e-01
3.3888296e-01
2.3802008e-01
1.4642391e-01
6.6319997e-02
-1.3705097e-03
-5.7043091e-02
-1.0260646e-01
-1.4154838e-01
-1.7859923e-01
-2.1890065e-01
-2.6680146e-01
-3.2454930e-01
-3.9117672e-01
-4.6183349e-01
-5.2776189e-01
-5.7705499e-01
-5.9623747e-01
-5.7255572e-01
-4.9669552e-01
-3.6547724e-01
-1.8391264e-01
3.4085922e-02
2.6692982e-01
4.8864464e-01
6.7365606e-01
8.0186718e-01
8.6261963e-01
8.5646620e-01
7.9434827e-01
6.9446363e-01
5.7763328e-01
4.6226021e-01
3.6001286e-01
2.7319245e-01
1.9441565e-01
1.0881335e-01
-1.5613815e-03
-1.5196963e-01
-3.4917913e-01
-5.8711317e-01
-8.4525466e-01
-1.0905410e+00
-1.2827006e+00
-1.3821507e+00
-1.3588604e+00
-1.2001569e+00
-9.1543617e-01
-5.3624233e-01
-1.1121420e-01
3.0314981e-01
6.5357537e-01
8.9997888e-01
1.0218545e+00
1.0199542e+00
9.1359282e-01
7.3492740e-01
5.2196363e-01
3.1191573e-01
1.3605458e-01
1.6521764e-02
-3.5007537e-02
-1.7281224e-02
6.1427018e-02
1.8470488e-01
3.2976384e-01
4.6966371e-01
5.7615390e-01
6.2318630e-01
5.9089663e-01
4.6950699e-01
2.6230679e-01
-1.3237219e-02
-3.2700932e-01
-6.4064069e-01
-9.1414179e-01
-1.1132555e+00
-1.2156087e+00
-1.2141113e+00
-1.1169739e+00
-9.4467518e-01
-7.2484408e-01
-4.8629677e-01
-2.5348072e-01
-4.2408200e-02
1.4115409e-01
3.0090634e-01
4.4683136e-01
5.9032609e-01
7.3882410e-01
8.9132058e-01
1.0361220e+00
1.1516903e+00
1.2107039e+00
1.1865850e+00
1.0609696e+00
8.3014287e-01
5.0849565e-01
1.2765849e-01
-2.6889670e-01
-6.3457726e-01
-9.2930119e-01
-1.1272478e+00
-1.2206221e+00
-1.2187269e+00
-1.1430937e+00
-1.0204158e+00
-8.7536783e-01
-7.2513124e-01
-5.7678086e-01
-4.2785375e-01
-2.6961297e-01
-9.1910145e-02
1.1173387e-01
3.4014427e-01
5.8255944e-01
8.1917549e-01
1.0240333e+00
1.1696480e+00
1.2324736e+00
1.1981445e+00
1.0653976e+00
8.4766806e-01
5.7165831e-01
2.7282787e-01
-1.1313263e-02
-2.4837781e-01
-4.1677833e-01
-5.0851894e-01
-5.2875185e-01
-4.9270937e-01
-4.2117596e-01
-3.3578072e-01
-2.5518428e-01
-1.9282715e-01
-1.5639101e-01
-1.4860371e-01
-1.6864744e-01
-2.1336434e-01
-2.7774368e-01
-3.5468406e-01
-4.3448814e-01
-5.0474231e-01
-5.5110391e-01
-5.5917380e-01
-5.1722360e-01
-4.1917779e-01
-2.6699770e-01
-7.1598554e-02
1.4822523e-01
3.6873709e-01
5.6527061e-01
7.1623921e-01
8.0625392e-01
8.2790574e-01
7.8217811e-01
6.7769935e-01
5.2914573e-01
3.5512583e-01
1.7585690e-01
1.0892445e-02
-1.2292844e-01
-2.1323259e-01
-2.5350817e-01
-2.4401772e-01
-1.9202633e-01
-1.1115015e-01
-1.9733523e-02
6.1692222e-02
1.1366397e-01
1.2136223e-01
7.7864725e-02
-1.3763975e-02
-1.4034453e-01
-2.8080087e-01
-4.1039172e-01
-5.0588631e-01
-5.5025612e-01
-5.3568490e-01
-4.6434826e-01
-3.4711014e-01
-2.0076680e-01
-4.4664831e-02
1.0253850e-01
2.2543294e-01
3.1348707e-01
3.6176735e-01
3.7089969e-01
3.4644783e-01
2.9783654e-01
2.3690138e-01
1.7614214e-01
1.2680385e-01
9.7003977e-02
9.0231718e-02
1.0458143e-01
1.3297929e-01
1.6444257e-01
1.8616290e-01
1.8600063e-01
1.5486408e-01
8.8476679e-02
-1.1779277e-02
-1.3898761e-01
-2.8162007e-01
-4.2498858e-01
-5.5297423e-01
-6.4984668e-01
-7.0205613e-01
-6.9990433e-01
-6.3895777e-01
-5.2098081e-01
-3.5410982e-01
-1.5205784e-01
6.7630554e-02
2.8595351e-01
4.8492866e-01
6.4964712e-01
7.6957785e-01
8.3907838e-01
8.5727106e-01
8.2746759e-01
7.5621858e-01
6.5199338e-01
5.2358590e-01
3.7857275e-01
2.2233784e-01
5.8114421e-02
-1.1185518e-01
-2.8440374e-01
-4.5347203e-01
-6.0889896e-01
-7.3662621e-01
-8.2060863e-01
-8.4619934e-01
-8.0420351e-01
-6.9437140e-01
-5.2708557e-01
-3.2249960e-01
-1.0721798e-01
9.0607065e-02
2.4646344e-01
3.4368885e-01
3.7581038e-01
3.4664427e-01
2.6834077e-01
1.5805588e-01
3.4229866e-02
-8.6563891e-02
-1.9154945e-01
-2.7228439e-01
-3.2407417e-01
-3.4477334e-01
-3.3345808e-01
-2.8929998e-01
-2.1085545e-01
-9.5959878e-02
5.7586854e-02
2.5043930e-01
4.7934878e-01
7.3449048e-01
9.9728052e-01
1.2396642e+00
1.4257306e+00
1.5160579e+00
1.4744975e+00
1.2763334e+00
9.1610218e-01
4.1304151e-01
-1.8768745e-01
-8.1913560e-01
-1.4019732e+00
-1.8576783e+00
-2.1228649e+00
-2.1616040e+00
-1.9728744e+00
-1.5912821e+00
-1.0806676e+00
-5.2188979e-01
2.4580248e-03
4.2287665e-01
6.9411876e-01
8.0071082e-01
7.5645882e-01
5.9882076e-01
3.7973515e-01
1.5482108e-01
-2.6991521e-02
-1.3147114e-01
-1.4338666e-01
-6.6698048e-02
7.8843968e-02
2.6355109e-01
4.5467816e-01
6.2287462e-01
7.4696356e-01
8.1625146e-01
8.3015236e-01
7.9551268e-01
7.2257702e-01
6.2092641e-01
4.9674425e-01
3.5228354e-01
1.8754357e-01
3.2726465e-03
-1.9610409e-01
-4.0094791e-01
-5.9693944e-01
-7.6748214e-01
-8.9707064e-01
-9.7446463e-01
-9.9471640e-01
-9.5957769e-01
-8.7635024e-01
-7.5570460e-01
-6.0925865e-01
-4.4768345e-01
-2.7979028e-01
-1.1259909e-01
4.7987929e-02
1.9644619e-01
3.2729298e-01
4.3538647e-01
5.1676950e-01
5.6969699e-01
5.9536960e-01
5.9796389e-01
5.8377004e-01
5.5956107e-01
5.3062803e-01
4.9911619e-01
4.6329945e-01
4.1818514e-01
3.5739223e-01
2.7575515e-01
1.7178882e-01
4.9155666e-02
-8.3401141e-02
-2.1369710e-01
-3.2886568e-01
-4.1844062e-01
-4.7686265e-01
-5.0469073e-01
-5.0818152e-01
-4.9732517e-01
-4.8276763e-01
-4.7230988e-01
-4.6788340e-01
-4.6400780e-01
-4.4858290e-01
-4.0630431e-01
-3.2404857e-01
-1.9658446e-01
-3.0459537e-02
1.5571402e-01
3.3514010e-01
4.7990399e-01
5.6899759e-01
5.9460468e-01
5.6441029e-01
4.9898489e-01
4.2500138e-01
3.6654985e-01
3.3751331e-01
3.3755551e-01
3.5291475e-01
3.6146781e-01
3.4014024e-01
2.7220294e-01
1.5235453e-01
-1.1586264e-02
-2.0047903e-01
-3.8834406e-01
-5.4817424e-01
-6.5758501e-01
-7.0301707e-01
-6.8166219e-01
-6.0089816e-01
-4.7565978e-01
-3.2465001e-01
-1.6646808e-01
-1.6584892e-02
1.1426583e-01
2.2015554e-01
2.9878260e-01
3.4966135e-01
3.7243144e-01
3.6594603e-01
3.2850086e-01
2.5917248e-01
1.5984251e-01
3.7168717e-02
-9.6380226e-02
-2.2317367e-01
-3.2305106e-01
-3.7757122e-01
-3.7483056e-01
-3.1335743e-01
-2.0361446e-01
-6.6251965e-02
7.2664185e-02
1.8808310e-01
2.6204013e-01
2.8752417e-01
2.6915346e-01
2.2076462e-01
1.6090946e-01
1.0769181e-01
7.4337957e-02
6.6509563e-02
8.1806632e-02
1.1131508e-01
1.4256752e-01
1.6302359e-01
1.6316777e-01
1.3853080e-01
9.0298656e-02
2.4569556e-02
-4.9382419e-02
-1.2133240e-01
-1.8227888e-01
-2.2607760e-01
-2.5019527e-01
-2.5548482e-01
-2.4516958e-01
-2.2346523e-01
-1.9434648e-01
-1.6081756e-01
-1.2476929e-01
-8.7278027e-02
-4.9114432e-02
-1.1252731e-02
2.4768218e-02
5.6729741e-02
8.1916255e-02
9.7584994e-02
1.0163558e-01
9.3328406e-02
7.3858985e-02
4.6586385e-02
1.6763749e-02
-9.2665515e-03
-2.5299068e-02
-2.6652408e-02
-1.1365320e-02
1.9138325e-02
6.0133200e-02
1.0445793e-01
1.4400328e-01
1.7148980e-01
1.8207704e-01
1.7435096e-01
1.5042259e-01
1.1515981e-01
7.4812245e-02
3.5401893e-02
1.2655988e-03
-2.5901217e-02
-4.7228882e-02
-6.5976997e-02
-8.6120555e-02
-1.1067387e-01
-1.4033874e-01
-1.7293734e-01
-2.0378437e-01
-2.2682563e-01
-2.3614757e-01
-2.2740848e-01
-1.9884403e-01
-1.5167192e-01
-8.9880165e-02
-1.9510325e-02
5.2359756e-02
1.1869154e-01
1.7340838e-01
2.1203427e-01
2.3201230e-01
2.3274661e-01
2.1545566e-01
1.8292394e-01
1.3920701e-01
8.9300661e-02
3.8737305e-02
-6.9555408e-03
-4.2955910e-02
-6.5903969e-02
-7.4489404e-02
-6.9635807e-02
-5.4183448e-02
-3.2174943e-02
-7.9987288e-03
1.4335490e-02
3.1616668e-02
4.1527875e-02
4.2532808e-02
3.3737979e-02
1.4889856e-02
-1.3435891e-02
-4.9514438e-02
-9.0167390e-02
-1.3066235e-01
-1.6500641e-01
-1.8676178e-01
-1.9035591e-01
-1.7262215e-01
-1.3408787e-01
-7.9469110e-02
-1.7021960e-02
4.3207608e-02
9.1766672e-02
1.2206611e-01
1.3180474e-01
1.2312560e-01
1.0156136e-01
7.4238759e-02
4.7981770e-02
2.7856765e-02
1.6443963e-02
1.3838843e-02
1.8193768e-02
2.6540927e-02
3.5663753e-02
4.2849970e-02
4.6419070e-02
4.5960491e-02
4.2274051e-02
3.7082763e-02
3.2643797e-02
3.1362578e-02
3.5430711e-02
4.6430131e-02
6.4837941e-02
8.9449970e-02
1.1688559e-01
1.4145732e-01
1.5568103e-01
1.5152223e-01
1.2219988e-01
6.4143505e-02
-2.1404810e-02
-1.2764668e-01
-2.4271964e-01
-3.5150992e-01
-4.3844997e-01
-4.9059348e-01
-5.0014311e-01
-4.6580387e-01
-3.9271161e-01
-2.9105270e-01
-1.7377102e-01
-5.3958608e-02
5.7396663e-02
1.5276723e-01
2.2833899e-01
2.8333289e-01
3.1882302e-01
3.3655056e-01
3.3814646e-01
3.2498097e-01
2.9861317e-01
2.6158201e-01
2.1812350e-01
1.7436818e-01
1.3770488e-01
1.1527818e-01
1.1192955e-01
1.2817127e-01
1.5889312e-01
1.9340050e-01
2.1707526e-01
2.1449202e-01
1.7332842e-01
8.8031853e-02
-3.7884894e-02
-1.9173682e-01
-3.5390346e-01
-5.0180726e-01
-6.1452755e-01
-6.7686840e-01
-6.8196637e-01
-6.3194819e-01
-5.3661794e-01
-4.1060962e-01
-2.6979140e-01
-1.2785469e-01
6.0668875e-03
1.2819269e-01
2.3916990e-01
3.4175357e-01
4.3779425e-01
5.2543660e-01
5.9742388e-01
6.4120428e-01
6.4116088e-01
5.8274611e-01
4.5766056e-01
2.6866642e-01
3.2419264e-02
-2.2099494e-01
-4.5231390e-01
-6.2051098e-01
-6.9168699e-01
-6.4723456e-01
-4.8922149e-01
-2.4159948e-01
5.3245893e-02
3.4207153e-01
5.7096824e-01
6.9597944e-01
6.9181505e-01
5.5675763e-01
3.1274857e-01
7.9197190e-04
-3.2708478e-01
-6.1737975e-01
-8.2414787e-01
-9.1592047e-01
-8.7962062e-01
-7.2129908e-01
-4.6406773e-01
-1.4391333e-01
1.9583739e-01
5.1064462e-01
7.6072580e-01
9.1612146e-01
9.6020876e-01
8.9127969e-01
7.2213362e-01
4.7787655e-01
1.9224382e-01
-9.7131323e-02
-3.5394666e-01
-5.4829867e-01
-6.6090060e-01
-6.8578465e-01
-6.3090553e-01
-5.1629125e-01
-3.6983441e-01
-2.2143536e-01
-9.6789999e-02
-1.2368532e-02
2.7146155e-02
2.8442914e-02
6.5782349e-03
-1.9539546e-02
-3.1841076e-02
-1.6793428e-02
3.2586040e-02
1.1646707e-01
2.2919459e-01
3.6071234e-01
4.9768466e-01
6.2405746e-01
7.2146589e-01
7.7034012e-01
7.5241810e-01
6.5464368e-01
4.7351457e-01
2.1836855e-01
-8.7840239e-02
-4.1104470e-01
-7.1158743e-01
-9.5149931e-01
-1.1016629e+00
-1.1470025e+00
-1.0884581e+00
-9.4147487e-01
-7.3170135e-01
-4.8922488e-01
-2.4284013e-01
-1.5590940e-02
1.7768813e-01
3.3069765e-01
4.4423639e-01
5.2367600e-01
5.7611612e-01
6.0792242e-01
6.2315711e-01
6.2311374e-01
6.0682530e-01
5.7215230e-01
5.1699715e-01
4.4034877e-01
3.4309887e-01
2.2866467e-01
1.0330367e-01
-2.4198043e-02
-1.4372356e-01
-2.4576824e-01
-3.2351534e-01
-3.7423837e-01
-3.9945491e-01
-4.0379429e-01
-3.9309860e-01
-3.7254858e-01
-3.4547416e-01
-3.1312119e-01
-2.7526623e-01
-2.3133682e-01
-1.8157606e-01
-1.2776358e-01
-7.3151008e-02
-2.1622272e-02
2.3524671e-02
6.0611019e-02
8.9995192e-02
1.1374164e-01
1.3468791e-01
1.5523877e-01
1.7627892e-01
1.9654205e-01
2.1263643e-01
2.1975763e-01
2.1294863e-01
1.8861679e-01
1.4593083e-01
8.7729402e-02
2.0649140e-02
-4.5696718e-02
-1.0046245e-01
-1.3393889e-01
-1.3998510e-01
-1.1782284e-01
-7.2568518e-02
-1.4195022e-02
4.4876881e-02
9.2854106e-02
1.2136803e-01
1.2718245e-01
1.1240672e-01
8.3286880e-02
4.8051791e-02
1.4519290e-02
-1.1846340e-02
-2.8964103e-02
-3.8124467e-02
-4.3109559e-02
-4.8798296e-02
-5.9639552e-02
-7.8315625e-02
-1.0485066e-01
-1.3635279e-01
-1.6746915e-01
-1.9148232e-01
-2.0182751e-01
-1.9368477e-01
-1.6522894e-01
-1.1816394e-01
-5.7362999e-02
1.0268274e-02
7.7313003e-02
1.3723148e-01
1.8520507e-01
2.1830647e-01
2.3516732e-01
2.3547420e-01
2.1959238e-01
1.8846036e-01
1.4373155e-01
8.8046726e-02
2.5309726e-02
-3.9156661e-02
-9.8731223e-02
-1.4607838e-01
-1.7429261e-01
-1.7843575e-01
-1.5699482e-01
-1.1268804e-01
-5.2270113e-02
1.4611684e-02
7.7150945e-02
1.2526703e-01
1.5128101e-01
1.5112185e-01
1.2488165e-01
7.6637097e-02
1.3587536e-02
-5.5299371e-02
-1.2083228e-01
-1.7498152e-01
-2.1181836e-01
-2.2789986e-01
-2.2219284e-01
-1.9573297e-01
-1.5118701e-01
-9.2411525e-02
-2.4055826e-02
4.8756713e-02
1.2065345e-01
1.8617020e-01
2.3991618e-01
2.7683718e-01
2.9263652e-01
2.8434476e-01
2.5094577e-01
1.9389515e-01
1.1734023e-01
2.7898044e-02
-6.6033518e-02
-1.5530237e-01
-2.3111299e-01
-2.8593994e-01
-3.1407086e-01
-3.1180975e-01
-2.7755497e-01
-2.1201120e-01
-1.1865455e-01
-4.3153640e-03
1.2047687e-01
2.4179583e-01
3.4353366e-01
4.0952450e-01
4.2628142e-01
3.8582275e-01
2.8795255e-01
1.4140077e-01
-3.6589011e-02
-2.2235101e-01
-3.8934067e-01
-5.1253697e-01
-5.7285038e-01
-5.6063101e-01
-4.7753457e-01
-3.3632032e-01
-1.5856707e-01
2.9253869e-02
2.0052156e-01
3.3301742e-01
4.1237755e-01
4.3384694e-01
4.0213849e-01
3.2961046e-01
2.3330631e-01
1.3155097e-01
4.0744010e-02
-2.7164603e-02
-6.6184155e-02
-7.6594500e-02
-6.4069385e-02
-3.7852649e-02
-8.4213282e-03
1.4844869e-02
2.5511941e-02
2.1126829e-02
3.3001443e-03
-2.3107555e-02
-5.1466262e-02
-7.5171449e-02
-8.9351305e-02
-9.2100066e-02
-8.4930074e-02
-7.2301941e-02
-6.0339970e-02
-5.5081029e-02
-6.0731959e-02
-7.8388136e-02
-1.0553223e-01
-1.3643723e-01
-1.6337400e-01
-1.7830366e-01
-1.7458094e-01
-1.4819583e-01
-9.8287651e-02
-2.6989387e-02
6.1090010e-02
1.5939769e-01
2.5979273e-01
3.5278588e-01
4.2794033e-01
4.7476217e-01
4.8422335e-01
4.5070635e-01
3.7382676e-01
2.5945450e-01
1.1939367e-01
-3.0443913e-02
-1.7304682e-01
-2.9373760e-01
-3.8306173e-01
-4.3825761e-01
-4.6283789e-01
-4.6441230e-01
-4.5146786e-01
-4.3016866e-01
-4.0221845e-01
-3.6446476e-01
-3.1034781e-01
-2.3270627e-01
-1.2704325e-01
5.7380021e-03
1.5790267e-01
3.1513892e-01
4.5847718e-01
5.6753138e-01
6.2447936e-01
6.1801711e-01
5.4642124e-01
4.1891657e-01
2.5482490e-01
8.0435022e-02
-7.5910693e-02
-1.8948964e-01
-2.4428699e-01
-2.3622469e-01
-1.7375497e-01
-7.5765670e-02
3.2593277e-02
1.2513715e-01
1.7977095e-01
1.8248394e-01
1.2952997e-01
2.7566492e-02
-1.0804333e-01
-2.5624906e-01
-3.9397669e-01
-4.9976016e-01
-5.5680057e-01
-5.5513185e-01
-4.9278582e-01
-3.7597333e-01
-2.1830429e-01
-3.9045040e-02
1.3950183e-01
2.9518448e-01
4.0921993e-01
4.6885450e-01
4.6903293e-01
4.1290445e-01
3.1123042e-01
1.8087024e-01
4.2491286e-02
-8.2400730e-02
-1.7488684e-01
-2.2195962e-01
-2.1890615e-01
-1.6998422e-01
-8.7132819e-02
1.2872279e-02
1.1194470e-01
1.9396070e-01
2.4711929e-01
2.6514223e-01
2.4742247e-01
1.9841027e-01
1.2652876e-01
4.2817670e-02
-4.0598944e-02
-1.1217488e-01
-1.6263399e-01
-1.8644159e-01
-1.8267842e-01
-1.5499643e-01
-1.1060462e-01
-5.8572499e-02
-7.9617597e-03
3.3692227e-02
6.1213598e-02
7.1894290e-02
6.5114360e-02
4.1836852e-02
4.2620765e-03
-4.4284208e-02
-9.9356438e-02
-1.5549611e-01
-2.0657955e-01
-2.4639861e-01
-2.6933922e-01
-2.7098750e-01
-2.4856474e-01
-2.0122204e-01
-1.3030061e-01
-3.9598913e-02
6.4473730e-02
1.7309419e-01
2.7576635e-01
3.6158892e-01
4.2077521e-01
4.4602112e-01
4.3342222e-01
3.8289410e-01
2.9823670e-01
1.8696806e-01
5.9909383e-02
-6.9591257e-02
-1.8687581e-01
-2.7761896e-01
-3.2979801e-01
-3.3578461e-01
-2.9417787e-01
-2.1084035e-01
-9.8636072e-02
2.4324628e-02
1.3768445e-01
2.2245690e-01
2.6446565e-01
2.5687461e-01
2.0132432e-01
1.0749715e-01
-8.7966600e-03
-1.2868431e-01
-2.3387410e-01
-3.1010812e-01
-3.4964807e-01
-3.5224753e-01
-3.2442057e-01
-2.7718680e-01
-2.2282930e-01
-1.7149263e-01
-1.2853493e-01
-9.3338511e-02
-5.9853094e-02
-1.8681083e-02
3.9845477e-02
1.2234652e-01
2.2961226e-01
3.5500944e-01
4.8449101e-01
5.9832826e-01
6.7437195e-01
6.9234596e-01
6.3840435e-01
5.0898502e-01
3.1295409e-01
7.1255603e-02
-1.8617358e-01
-4.2567297e-01
-6.1603174e-01
-7.3398299e-01
-7.6770204e-01
-7.1766364e-01
-5.9500393e-01
-4.1820494e-01
-2.0929930e-01
9.2536813e-03
2.1635502e-01
3.9277159e-01
5.2104274e-01
5.8574481e-01
5.7490124e-01
4.8276135e-01
3.1337359e-01
8.3618822e-02
-1.7601194e-01
-4.2430633e-01
-6.1623552e-01
-7.1271644e-01
-6.9071701e-01
-5.5057938e-01
-3.1790113e-01
-3.8799621e-02
2.3055040e-01
4.3731356e-01
5.4454844e-01
5.3944846e-01
4.3517526e-01
2.6607318e-01
7.7863890e-02
-8.4292669e-02
-1.8654827e-01
-2.1315448e-01
-1.6788771e-01
-7.0424734e-02
5.0589241e-02
1.6537267e-01
2.4955633e-01
2.8814325e-01
2.7664733e-01
2.1997845e-01
1.2995576e-01
2.2270139e-02
-8.6485956e-02
-1.8132133e-01
-2.5068276e-01
-2.8758012e-01
-2.9002845e-01
-2.6084546e-01
-2.0683532e-01
-1.3741828e-01
-6.2874976e-02
7.4682413e-03
6.6694593e-02
1.1103501e-01
1.3974435e-01
1.5426099e-01
1.5703526e-01
1.5048310e-01
1.3639324e-01
1.1587224e-01
8.9679294e-02
5.8685964e-02
2.4220806e-02
-1.1832680e-02
-4.7217219e-02
-7.9737003e-02
-1.0785366e-01
-1.3123020e-01
-1.5091415e-01
-1.6889766e-01
-1.8700455e-01
-2.0536642e-01
-2.2106433e-01
-2.2767616e-01
-2.1630378e-01
-1.7812599e-01
-1.0783868e-01
-6.8195518e-03
1.1526860e-01
2.4134460e-01
3.5033841e-01
4.2231080e-01
4.4370995e-01
4.1111326e-01
3.3226754e-01
2.2404789e-01
1.0786984e-01
3.8874405e-03
-7.4245395e-02
-1.2239593e-01
-1.4582548e-01
-1.5605359e-01
-1.6583973e-01
-1.8397673e-01
-2.1161688e-01
-2.4137244e-01
-2.5956635e-01
-2.5096592e-01
-2.0443898e-01
-1.1759980e-01
1.1424018e-03
1.3380263e-01
2.5688577e-01
3.4702417e-01
3.8655571e-01
3.6758308e-01
2.9359838e-01
1.7844923e-01
4.3074134e-02
-8.9089151e-02
-1.9690687e-01
-2.6552191e-01
-2.8874524e-01
-2.6951190e-01
-2.1845579e-01
-1.5101811e-01
-8.3764853e-02
-3.0708501e-02
-3.9505358e-04
5.6586024e-03
-7.1312797e-03
-2.8141070e-02
-4.4494859e-02
-4.4513624e-02
-2.0772540e-02
2.7978956e-02
9.6405591e-02
1.7362763e-01
2.4535410e-01
2.9663528e-01
3.1478192e-01
2.9201621e-01
2.2738778e-01
1.2749785e-01
5.7238428e-03
-1.2007951e-01
-2.3106446e-01
-3.1133901e-01
-3.5137065e-01
-3.4983420e-01
-3.1330194e-01
-2.5388149e-01
-1.8559725e-01
-1.2067351e-01
-6.6790782e-02
-2.5954349e-02
4.9491357e-03
3.2318784e-02
6.3416132e-02
1.0405597e-01
1.5693537e-01
2.2085255e-01
2.9080674e-01
3.5879724e-01
4.1508194e-01
4.4966881e-01
4.5383679e-01
4.2149680e-01
3.5023065e-01
2.4190007e-01
1.0279356e-01
-5.6660489e-02
-2.2257305e-01
-3.7866629e-01
-5.0779367e-01
-5.9396744e-01
-6.2483791e-01
-5.9433152e-01
-5.0487429e-01
-3.6844292e-01
-2.0573386e-01
-4.3109733e-02
9.2343422e-02
1.7854451e-01
2.0334237e-01
1.6716157e-01
8.2599966e-02
-2.8789772e-02
-1.4141756e-01
-2.3074426e-01
-2.7723380e-01
-2.6855838e-01
-2.0022715e-01
-7.5278766e-02
9.6335465e-02
2.9842468e-01
5.0945728e-01
7.0406176e-01
8.5542940e-01
9.3864927e-01
9.3466384e-01
8.3420557e-01
6.4084063e-01
3.7218176e-01
5.8501111e-02
-2.6156070e-01
-5.4771264e-01
-7.6574679e-01
-8.9420859e-01
-9.2800491e-01
-8.7788279e-01
-7.6607715e-01
-6.1960963e-01
-4.6330891e-01
-3.1451809e-01
-1.8079264e-01
-6.0909793e-02
5.1510050e-02
1.6320733e-01
2.7695566e-01
3.8900493e-01
4.8892495e-01
5.6174989e-01
5.9174361e-01
5.6676952e-01
4.8216658e-01
3.4317293e-01
1.6525081e-01
-2.7906387e-02
-2.0841827e-01
-3.4955859e-01
-4.3123204e-01
-4.4422146e-01
-3.9199006e-01
-2.8941055e-01
-1.5869285e-01
-2.3671696e-02
9.5834187e-02
1.8787047e-01
2.4928272e-01
2.8368726e-01
2.9754182e-01
2.9602021e-01
2.8028175e-01
2.4700022e-01
1.9009182e-01
1.0385655e-01
-1.3593290e-02
-1.5771554e-01
-3.1653523e-01
-4.7160552e-01
-6.0077641e-01
-6.8218075e-01
-6.9857563e-01
-6.4107872e-01
-5.1140058e-01
-3.2194971e-01
-9.3714606e-02
1.4753265e-01
3.7570490e-01
5.6846728e-01
7.1013412e-01
7.9307088e-01
8.1761885e-01
7.9072360e-01
7.2353859e-01
6.2842237e-01
5.1594594e-01
3.9265399e-01
2.6025605e-01
1.1660620e-01
-4.1703823e-02
-2.1590715e-01
-4.0195248e-01
-5.8889237e-01
-7.5950028e-01
-8.9313853e-01
-9.7017527e-01
-9.7673851e-01
-9.0844185e-01
-7.7196209e-01
-5.8396031e-01
-3.6766948e-01
-1.4822581e-01
5.1853913e-02
2.1591523e-01
3.3466371e-01
4.0611139e-01
4.3451441e-01
4.2885350e-01
4.0122432e-01
3.6528232e-01
3.3471093e-01
3.2160709e-01
3.3474309e-01
3.7784960e-01
4.4825911e-01
5.3633763e-01
6.2607271e-01
6.9699624e-01
7.2732819e-01
6.9788486e-01
5.9600907e-01
4.1866524e-01
1.7395119e-01
-1.1940876e-01
-4.3456203e-01
-7.4047411e-01
-1.0063985e+00
-1.2059026e+00
-1.3198006e+00
-1.3378102e+00
-1.2590808e+00
-1.0918397e+00
-8.5232246e-01
-5.6303938e-01
-2.5039663e-01
5.8224443e-02
3.3762925e-01
5.6769880e-01
7.3541528e-01
8.3560428e-01
8.7033717e-01
8.4731351e-01
7.7776677e-01
6.7445547e-01
5.5014839e-01
4.1674278e-01
2.8486066e-01
1.6359298e-01
6.0116133e-02
-2.0851754e-02
-7.7544487e-02
-1.1131350e-01
-1.2630578e-01
-1.2867916e-01
-1.2551876e-01
-1.2366800e-01
-1.2866301e-01
-1.4390943e-01
-1.7020100e-01
-2.0565049e-01
-2.4606214e-01
-2.8570664e-01
-3.1836459e-01
-3.3841603e-01
-3.4171983e-01
-3.2607695e-01
-2.9119993e-01
-2.3828447e-01
-1.6943587e-01
-8.7260468e-02
5.1667143e-03
1.0397539e-01
2.0407287e-01
2.9898840e-01
3.8127161e-01
4.4348305e-01
4.7954355e-01
4.8603467e-01
4.6302523e-01
4.1414115e-01
3.4583183e-01
2.6600934e-01
1.8237670e-01
1.0082314e-01
2.4272473e-02
-4.7695345e-02
-1.1829500e-01
-1.9215207e-01
-2.7343624e-01
-3.6403692e-01
-4.6230193e-01
-5.6265631e-01
-6.5611698e-01
-7.3146749e-01
-7.7674244e-01
-7.8069175e-01
-7.3400473e-01
-6.3022442e-01
-4.6643451e-01
-2.4391775e-01
3.0993809e-02
3.4579723e-01
6.8067539e-01
1.0079883e+00
1.2932814e+00
1.4985013e+00
1.5874938e+00
1.5330338e+00
1.3239124e+00
9.7021813e-01
5.0505729e-01
-1.8410626e-02
-5.3463557e-01
-9.7670877e-01
-1.2882960e+00
-1.4335746e+00
-1.4028063e+00
-1.2124578e+00
-9.0030099e-01
-5.1714112e-01
-1.1743126e-01
2.4906759e-01
5.4309278e-01
7.3862674e-01
8.2295252e-01
7.9495391e-01
6.6275624e-01
4.4160648e-01
1.5244142e-01
-1.7895144e-01
-5.2268859e-01
-8.4605330e-01
-1.1155843e+00
-1.2998653e+00
-1.3725545e+00
-1.3151511e+00
-1.1192147e+00
-7.8806084e-01
-3.3807654e-01
2.0039962e-01
7.8310393e-01
1.3536143e+00
1.8477196e+00
2.2008108e+00
2.3578329e+00
2.2842141e+00
1.9752205e+00
1.4608302e+00
8.0382040e-01
9.0359748e-02
-5.8536504e-01
-1.1388773e+00
-1.5109060e+00
-1.6767297e+00
-1.6474229e+00
-1.4634467e+00
-1.1829763e+00
-8.6839398e-01
-5.7430860e-01
-3.3945877e-01
-1.8332545e-01
-1.0685132e-01
-9.5854853e-02
-1.2572122e-01
-1.6648349e-01
-1.8797645e-01
-1.6494907e-01
-8.1780231e-02
6.3997597e-02
2.6038969e-01
4.8258946e-01
6.9757144e-01
8.7071142e-01
9.7290382e-01
9.8653689e-01
9.0900903e-01
7.5304098e-01
5.4374756e-01
3.1319961e-01
9.3817336e-02
-8.7876301e-02
-2.1589047e-01
-2.8702700e-01
-3.1045791e-01
-3.0471571e-01
-2.9265872e-01
-2.9549373e-01
-3.2729725e-01
-3.9141098e-01
-4.7954431e-01
-5.7363340e-01
-6.4983038e-01
-6.8364797e-01
-6.5526051e-01
-5.5408867e-01
-3.8190126e-01
-1.5374998e-01
1.0372144e-01
3.5656063e-01
5.6968069e-01
7.1361983e-01
7.7030397e-01
7.3644009e-01
6.2381785e-01
4.5661400e-01
2.6646935e-01
8.6469156e-02
-5.4795530e-02
-1.3806631e-01
-1.5638933e-01
-1.1575905e-01
-3.3342835e-02
6.6368748e-02
1.5670181e-01
2.1413432e-01
2.2268120e-01
1.7643182e-01
7.9826796e-02
-5.4150083e-02
-2.0717483e-01
-3.5922823e-01
-4.9179838e-01
-5.9009939e-01
-6.4420879e-01
-6.4935718e-01
-6.0569607e-01
-5.1776184e-01
-3.9369328e-01
-2.4417505e-01
-8.1106826e-02
8.3894055e-02
2.4090648e-01
3.8266209e-01
5.0466778e-01
6.0433937e-01
6.7941422e-01
7.2633932e-01
7.3951157e-01
7.1201278e-01
6.3787815e-01
5.1521916e-01
3.4902037e-01
1.5237734e-01
-5.4609806e-02
-2.4828725e-01
-4.0641222e-01
-5.1321225e-01
-5.6296455e-01
-5.6089440e-01
-5.2103194e-01
-4.6170529e-01
-4.0016764e-01
-3.4809185e-01
-3.0922399e-01
-2.7963288e-01
-2.5015319e-01
-2.1008818e-01
-1.5105877e-01
-6.9975686e-02
2.9599774e-02
1.3799782e-01
2.4166283e-01
3.2637896e-01
3.8056564e-01
3.9775162e-01
3.7766945e-01
3.2588772e-01
2.5231006e-01
1.6908225e-01
8.8449407e-02
2.0954291e-02
-2.5853286e-02
-4.8212778e-02
-4.6523675e-02
-2.5273093e-02
7.5947936e-03
4.1949569e-02
6.7288561e-02
7.4782345e-02
5.9115249e-02
1.9700868e-02
-3.9012762e-02
-1.0824254e-01
-1.7647480e-01
-2.3168719e-01
-2.6371741e-01
-2.6620217e-01
-2.3759572e-01
-1.8107221e-01
-1.0348726e-01
-1.3844430e-02
7.8212622e-02
1.6348968e-01
2.3380236e-01
2.8221008e-01
3.0329897e-01
2.9380306e-01
2.5355091e-01
1.8638348e-01
1.0050631e-01
7.8150176e-03
-7.7962782e-02
-1.4404368e-01
-1.8161125e-01
-1.8818086e-01
-1.6847458e-01
-1.3336927e-01
-9.7075317e-02
-7.3288991e-02
-7.1421582e-02
-9.4001418e-02
-1.3598298e-01
-1.8614134e-01
-2.3017659e-01
-2.5472662e-01
-2.5123628e-01
-2.1859456e-01
-1.6368391e-01
-9.9500642e-02
-4.1208183e-02
-1.1719303e-03
1.5545863e-02
1.3763984e-02
7.8466582e-03
1.8275788e-02
6.5850059e-02
1.6497614e-01
3.1789199e-01
5.1152311e-01
7.1804852e-01
8.9933080e-01
1.0143854e+00
1.0282648e+00
9.2031399e-01
6.8982470e-01
3.5766162e-01
-3.6641355e-02
-4.4171841e-01
-8.0356985e-01
-1.0750172e+00
-1.2234018e+00
-1.2351317e+00
-1.1165379e+00
-8.9132610e-01
-5.9552918e-01
-2.7119773e-01
3.9924976e-02
3.0177442e-01
4.8783705e-01
5.8336985e-01
5.8604336e-01
5.0515736e-01
3.5959330e-01
1.7470079e-01
-2.1603441e-02
-2.0307829e-01
-3.4903781e-01
-4.4695900e-01
-4.9302523e-01
-4.9038831e-01
-4.4578866e-01
-3.6587650e-01
-2.5472839e-01
-1.1355615e-01
5.7295818e-02
2.5487712e-01
4.7009110e-01
6.8562735e-01
8.7653243e-01
1.0137609e+00
1.0700023e+00
1.0262024e+00
8.7686809e-01
6.3261950e-01
3.1932935e-01
-2.5843819e-02
-3.6054473e-01
-6.4419271e-01
-8.4465255e-01
-9.4357810e-01
-9.3951529e-01
-8.4798789e-01
-6.9813703e-01
-5.2615654e-01
-3.6667576e-01
-2.4409601e-01
-1.6627412e-01
-1.2257919e-01
-8.7263447e-02
-2.7621710e-02
8.4991079e-02
2.6417939e-01
5.0074321e-01
7.6078810e-01
9.9102440e-01
1.1306083e+00
1.1267990e+00
9.5020651e-01
6.0510257e-01
1.3142839e-01
-4.0244062e-01
-9.1418426e-01
-1.3250060e+00
-1.5751455e+00
-1.6336267e+00
-1.5006491e+00
-1.2033606e+00
-7.8741341e-01
-3.0728493e-01
1.8216512e-01
6.3166328e-01
1.0010591e+00
1.2612156e+00
1.3950351e+00
1.3979425e+00
1.2777134e+00
1.0534324e+00
7.5353084e-01
4.1304317e-01
7.0258661e-02
-2.3715382e-01
-4.7648629e-01
-6.2447190e-01
-6.7108706e-01
-6.2152070e-01
-4.9538896e-01
-3.2308429e-01
-1.4005908e-01
1.9637949e-02
1.2920488e-01
1.7315493e-01
1.4883446e-01
6.5214219e-02
-6.0463364e-02
-2.0697877e-01
-3.5304497e-01
-4.7996931e-01
-5.7298608e-01
-6.2180648e-01
-6.2105688e-01
-5.7087433e-01
-4.7732061e-01
-3.5191206e-01
-2.0972411e-01
-6.6139860e-02
6.6971422e-02
1.8439853e-01
2.8881651e-01
3.8938232e-01
4.9788051e-01
6.2353127e-01
7.6810271e-01
9.2285836e-01
1.0682539e+00
1.1765287e+00
1.2166951e+00
1.1609834e+00
9.9152562e-01
7.0592831e-01
3.2042437e-01
-1.3043206e-01
-5.9795853e-01
-1.0269310e+00
-1.3650835e+00
-1.5724178e+00
-1.6282176e+00
-1.5342080e+00
-1.3132118e+00
-1.0037590e+00
-6.5213772e-01
-3.0394943e-01
2.9133977e-03
2.4266095e-01
4.0307210e-01
4.8447597e-01
4.9711975e-01
4.5788746e-01
3.8714240e-01
3.0610030e-01
2.3475249e-01
1.9009489e-01
1.8438792e-01
2.2339021e-01
3.0483689e-01
4.1766929e-01
5.4256112e-01
6.5412227e-01
7.2480473e-01
7.3002335e-01
6.5349922e-01
4.9156900e-01
2.5531920e-01
-3.0142516e-02
-3.2933573e-01
-6.0237384e-01
-8.1209465e-01
-9.3088190e-01
-9.4570918e-01
-8.6028497e-01
-6.9381794e-01
-4.7671624e-01
-2.4425310e-01
-2.9657487e-02
1.4186114e-01
2.5692089e-01
3.1487834e-01
3.2575819e-01
3.0581487e-01
2.7195464e-01
2.3661257e-01
2.0462429e-01
1.7306184e-01
1.3401710e-01
7.9263185e-02
5.0445096e-03
-8.4766960e-02
-1.7826645e-01
-2.5797041e-01
-3.0528921e-01
-3.0560728e-01
-2.5246972e-01
-1.4972049e-01
-1.1084782e-02
1.4257588e-01
2.8750975e-01
4.0167879e-01
4.6858517e-01
4.7949864e-01
4.3378725e-01
3.3762535e-01
2.0178606e-01
3.9378959e-02
-1.3576701e-01
-3.0976267e-01
-4.6852491e-01
-5.9743452e-01
-6.8155044e-01
-7.0693747e-01
-6.6310664e-01
-5.4593076e-01
-3.6002549e-01
-1.1966039e-01
1.5229409e-01
4.2728812e-01
6.7526096e-01
8.6911866e-01
9.8855490e-01
1.0224901e+00
9.6980892e-01
8.3849769e-01
6.4361477e-01
4.0470330e-01
1.4324122e-01
-1.1947922e-01
-3.6393689e-01
-5.7354124e-01
-7.3551760e-01
-8.4157792e-01
-8.8833016e-01
-8.7734418e-01
-8.1481258e-01
-7.1077318e-01
-5.7789304e-01
-4.2988754e-01
-2.7976123e-01
-1.3816349e-01
-1.2198338e-02
9.5008573e-02
1.8381472e-01
2.5669386e-01
3.1633997e-01
3.6383126e-01
3.9753276e-01
4.1326677e-01
4.0588967e-01
3.7187516e-01
3.1201890e-01
2.3318918e-01
1.4827788e-01
7.4071655e-02
2.7453515e-02
2.0923676e-02
5.8706238e-02
1.3460531e-01
2.3234445e-01
3.2848993e-01
3.9736743e-01
4.1681318e-01
3.7334627e-01
2.6550610e-01
1.0459559e-01
-8.7289408e-02
-2.8146549e-01
-4.4816993e-01
-5.6219497e-01
-6.0748962e-01
-5.7985026e-01
-4.8727166e-01
-3.4802435e-01
-1.8695993e-01
-3.0848532e-02
9.6329009e-02
1.7727658e-01
2.0380656e-01
1.7741201e-01
1.0795084e-01
1.0780299e-02
-9.6982978e-02
-2.0016818e-01
-2.8824166e-01
-3.5621617e-01
-4.0357525e-01
-4.3176783e-01
-4.4139510e-01
-4.3026971e-01
-3.9306669e-01
-3.2258954e-01
-2.1209451e-01
-5.7860595e-02
1.3872489e-01
3.6999836e-01
6.2186725e-01
8.7454122e-01
1.1039527e+00
1.2837431e+00
1.3878199e+00
1.3935687e+00
1.2856705e+00
1.0600720e+00
7.2713911e-01
3.1277652e-01
-1.4341934e-01
-5.9313623e-01
-9.8666829e-01
-1.2810612e+00
-1.4472851e+00
-1.4748828e+00
-1.3731593e+00
-1.1687667e+00
-9.0030215e-01
-6.1110513e-01
-3.4170656e-01
-1.2331579e-01
2.6597027e-02
1.0602296e-01
1.2730794e-01
1.1351696e-01
9.2958275e-02
9.2868240e-02
1.3341440e-01
2.2313072e-01
3.5667118e-01
5.1539858e-01
6.7083502e-01
7.9042396e-01
8.4449932e-01
8.1298698e-01
6.9032076e-01
4.8738941e-01
2.2998682e-01
-4.5943894e-02
-3.0121508e-01
-5.0087479e-01
-6.2055510e-01
-6.5027354e-01
-5.9494399e-01
-4.7173072e-01
-3.0518227e-01
-1.2154878e-01
5.6281477e-02
2.1212290e-01
3.3756175e-01
4.3082699e-01
4.9407979e-01
5.3009355e-01
5.3940022e-01
5.1880117e-01
4.6169645e-01
3.6008575e-01
2.0756185e-01
2.3844245e-03
-2.5013018e-01
-5.3628131e-01
-8.3375747e-01
-1.1124907e+00
-1.3367792e+00
-1.4690617e+00
-1.4755672e+00
-1.3334189e+00
-1.0378481e+00
-6.0743335e-01
-8.5176871e-02
4.6601653e-01
9.7340265e-01
1.3681698e+00
1.5996369e+00
1.6460316e+00
1.5186564e+00
1.2580474e+00
9.2314147e-01
5.7661684e-01
2.7068810e-01
3.7290420e-02
-1.1507352e-01
-1.9784205e-01
-2.3430080e-01
-2.5000927e-01
-2.6481519e-01
-2.8856354e-01
-3.2116729e-01
-3.5623611e-01
-3.8636518e-01
-4.0778109e-01
-4.2245029e-01
-4.3685064e-01
-4.5801901e-01
-4.8868202e-01
-5.2373337e-01
-5.4980391e-01
-5.4839061e-01
-5.0153695e-01
-3.9802559e-01
-2.3784265e-01
-3.3307138e-02
1.9354109e-01
4.1634516e-01
6.1067747e-01
7.5899644e-01
8.5288145e-01
8.9227275e-01
8.8250941e-01
8.3059274e-01
7.4219188e-01
6.2044934e-01
4.6678962e-01
2.8303980e-01
7.3661259e-02
-1.5300848e-01
-3.8499385e-01
-6.0811957e-01
-8.0784460e-01
-9.7065669e-01
-1.0846297e+00
-1.1393725e+00
-1.1260315e+00
-1.0379963e+00
-8.7255102e-01
-6.3316167e-01
-3.3165078e-01
1.0688283e-02
3.6387146e-01
6.9230731e-01
9.5993758e-01
1.1364946e+00
1.2034395e+00
1.1580396e+00
1.0143890e+00
8.0089487e-01
5.5465028e-01
3.1395301e-01
1.1075700e-01
-3.5129775e-02
-1.1878058e-01
-1.4933737e-01
-1.4607876e-01
-1.3253512e-01
-1.3021744e-01
-1.5349447e-01
-2.0671433e-01
-2.8400018e-01
-3.7149301e-01
-4.5133221e-01
-5.0640492e-01
-5.2484170e-01
-5.0333764e-01
-4.4856528e-01
-3.7620236e-01
-3.0748048e-01
-2.6371850e-01
-2.5995284e-01
-2.9928135e-01
-3.6962447e-01
-4.4416422e-01
-4.8587637e-01
-4.5556506e-01
-3.2185917e-01
-7.0935254e-02
2.8652781e-01
7.1335843e-01
1.1501519e+00
1.5255959e+00
1.7709064e+00
1.8348827e+00
1.6954730e+00
1.3645396e+00
8.8456709e-01
3.1858908e-01
-2.6339909e-01
-7.9752448e-01
-1.2352598e+00
-1.5470949e+00
-1.7209432e+00
-1.7571699e+00
-1.6628993e+00
-1.4480431e+00
-1.1244473e+00
-7.0808922e-01
-2.2290357e-01
2.9597698e-01
8.0175398e-01
1.2396148e+00
1.5544603e+00
1.7011866e+00
1.6549154e+00
1.4182455e+00
1.0231938e+00
5.2687874e-01
1.7124997e-03
-4.7766946e-01
-8.4778142e-01
-1.0671306e+00
-1.1224836e+00
-1.0295699e+00
-8.2829536e-01
-5.7347452e-01
-3.2287601e-01
-1.2495994e-01
-8.9731894e-03
2.0172556e-02
-1.9199097e-02
-9.2620682e-02
-1.6047054e-01
-1.8947296e-01
-1.6123140e-01
-7.5527538e-02
5.1931511e-02
1.9583358e-01
3.2919696e-01
4.3049845e-01
4.8830569e-01
5.0271095e-01
4.8374812e-01
4.4758059e-01
4.1153303e-01
3.8907132e-01
3.8574931e-01
3.9702721e-01
4.0866153e-01
3.9992414e-01
3.4918772e-01
2.4058129e-01
6.9814669e-02
-1.5273378e-01
-4.0282320e-01
-6.4694486e-01
-8.4936661e-01
-9.7960125e-01
-1.0183393e+00
-9.6055977e-01
-8.1545999e-01
-6.0367078e-01
-3.5274407e-01
-9.2087853e-02
1.5156132e-01
3.5733952e-01
5.1178359e-01
6.0879120e-01
6.4845143e-01
6.3534408e-01
5.7689796e-01
4.8224334e-01
3.6171815e-01
2.2685491e-01
9.0400043e-02
-3.4168676e-02
-1.3397268e-01
-1.9883741e-01
-2.2363228e-01
-2.1003002e-01
-1.6693206e-01
-1.0918572e-01
-5.4739228e-02
-2.0823841e-02
-1.9997573e-02
-5.6927617e-02
-1.2667713e-01
-2.1502285e-01
-3.0095998e-01
-3.6107009e-01
-3.7493550e-01
-3.3041778e-01
-2.2747109e-01
-7.9292354e-02
8.9902215e-02
2.5030958e-01
3.7394643e-01
4.4194824e-01
4.4948162e-01
4.0662481e-01
3.3487722e-01
2.6046518e-01
2.0669708e-01
1.8779815e-01
2.0587879e-01
2.5141398e-01
3.0647343e-01
3.4936515e-01
3.5937844e-01
3.2071271e-01
2.2516876e-01
7.3534486e-02
-1.2427076e-01
-3.5024156e-01
-5.8047098e-01
-7.8830948e-01
-9.4812231e-01
-1.0390535e+00
-1.0481078e+00
-9.7198517e-01
-8.1742320e-01
-6.0015522e-01
-3.4278331e-01
-7.1872338e-02
1.8549125e-01
4.0538854e-01
5.7050277e-01
6.7255805e-01
7.1304381e-01
7.0192742e-01
6.5468825e-01
5.8851178e-01
5.1865377e-01
4.5580656e-01
4.0488845e-01
3.6522469e-01
3.3176844e-01
2.9689309e-01
2.5233608e-01
1.9100141e-01
1.0845609e-01
4.0376194e-03
-1.1849673e-01
-2.5089736e-01
-3.8109763e-01
-4.9475771e-01
-5.7757928e-01
-6.1797537e-01
-6.0943846e-01
-5.5194823e-01
-4.5204194e-01
-3.2162908e-01
-1.7602536e-01
-3.1783567e-02
9.5304134e-02
1.9193866e-01
2.4880767e-01
2.6178738e-01
2.3266038e-01
1.6910061e-01
8.3740198e-02
-7.7010322e-03
-8.8988692e-02
-1.4613934e-01
-1.6973238e-01
-1.5624914e-01
-1.0823409e-01
-3.3381373e-02
5.7160367e-02
1.5088271e-01
2.3598755e-01
3.0302215e-01
3.4578687e-01
3.6143929e-01
3.4994854e-01
3.1321284e-01
2.5421298e-01
1.7652321e-01
8.4339735e-02
-1.7038940e-02
-1.2055513e-01
-2.1697039e-01
-2.9511518e-01
-3.4311186e-01
-3.5056557e-01
-3.1130845e-01
-2.2594070e-01
-1.0331053e-01
3.9723256e-02
1.8047789e-01
2.9430110e-01
3.5933076e-01
3.6106968e-01
2.9563302e-01
1.7081241e-01
4.6600428e-03
-1.7806254e-01
-3.5071008e-01
-4.8972327e-01
-5.7861801e-01
-6.1014315e-01
-5.8625226e-01
-5.1613636e-01
-4.1308085e-01
-2.9116252e-01
-1.6270310e-01
-3.6990385e-02
7.9764991e-02
1.8372250e-01
2.7261099e-01
3.4532695e-01
4.0204739e-01
4.4460973e-01
4.7674803e-01
5.0384522e-01
5.3205572e-01
5.6685475e-01
6.1124012e-01
6.6394399e-01
7.1808723e-01
7.6070915e-01
7.7353153e-01
7.3516386e-01
6.2472494e-01
4.2654400e-01
1.3522506e-01
-2.4002435e-01
-6.7313381e-01
-1.1221916e+00
-1.5343355e+00
-1.8540441e+00
-2.0331987e+00
-2.0405141e+00
-1.8679282e+00
-1.5323550e+00
-1.0725027e+00
-5.4175045e-01
1.0689072e-03
5.0089188e-01
9.1389785e-01
1.2121534e+00
1.3851025e+00
1.4381975e+00
1.3893762e+00
1.2642827e+00
1.0911657e+00
8.9629650e-01
7.0057931e-01
5.1776197e-01
3.5433010e-01
2.1082097e-01
8.4019435e-02
-3.0617751e-02
-1.3688303e-01
-2.3643471e-01
-3.2820353e-01
-4.0850055e-01
-4.7167565e-01
-5.1120475e-01
-5.2112186e-01
-4.9767611e-01
-4.4095880e-01
-3.5608686e-01
-2.5347188e-01
-1.4782192e-01
-5.5801425e-02
7.3331111e-03
3.1393855e-02
1.4222921e-02
-3.7006943e-02
-1.0673881e-01
-1.7420904e-01
-2.1820216e-01
-2.2223425e-01
-1.7879637e-01
-9.1449979e-02
2.5872326e-02
1.5219588e-01
2.6453329e-01
3.4324088e-01
3.7631491e-01
3.6160098e-01
3.0649415e-01
2.2538693e-01
1.3568874e-01
5.3537107e-02
-9.7063581e-03
-4.9390174e-02
-6.7633324e-02
-7.1704555e-02
-7.1274709e-02
-7.5276449e-02
-8.9142901e-02
-1.1310356e-01
-1.4197028e-01
-1.6647598e-01
-1.7583043e-01
-1.6083619e-01
-1.1673757e-01
-4.5008574e-02
4.6446922e-02
1.4474608e-01
2.3469157e-01
3.0188729e-01
3.3551247e-01
3.3017443e-01
2.8657366e-01
2.1100411e-01
1.1392118e-01
7.9437627e-03
-9.4268453e-02
-1.8182647e-01
-2.4679398e-01
-2.8463474e-01
-2.9405584e-01
-2.7654991e-01
-2.3596566e-01
-1.7827466e-01
-1.1142108e-01
-4.4920022e-02
1.1129077e-02
4.7702991e-02
5.8909783e-02
4.3837463e-02
7.4802160e-03
-3.9784576e-02
-8.4234105e-02
-1.1187481e-01
-1.1170792e-01
-7.8309685e-02
-1.3124574e-02
7.5721672e-02
1.7491437e-01
2.6834197e-01
3.3991061e-01
3.7634503e-01
3.6960801e-01
3.1859733e-01
2.2977261e-01
1.1639737e-01
-3.7370245e-03
-1.1184950e-01
-1.9220491e-01
-2.3551999e-01
-2.4068047e-01
-2.1426709e-01
-1.6817211e-01
-1.1619744e-01
-7.0705894e-02
-4.0174867e-02
-2.8085510e-02
-3.3166460e-02
-5.0685776e-02
-7.4275566e-02
-9.7714121e-02
-1.1619240e-01
-1.2681417e-01
-1.2835066e-01
-1.2051319e-01
-1.0314687e-01
-7.5739676e-02
-3.7494781e-02
1.2021787e-02
7.1900233e-02
1.3899269e-01
2.0754135e-01
2.6960466e-01
3.1628223e-01
3.3945415e-01
3.3356379e-01
2.9695246e-01
2.3238739e-01
1.4664603e-01
4.9264369e-02
-4.9220507e-02
-1.3905674e-01
-2.1261992e-01
-2.6502448e-01
-2.9400200e-01
-2.9928751e-01
-2.8188049e-01
-2.4354397e-01
-1.8677058e-01
-1.1520682e-01
-3.4278365e-02
4.8391180e-02
1.2316129e-01
1.7937146e-01
2.0710182e-01
1.9937688e-01
1.5428778e-01
7.6422439e-02
-2.2919881e-02
-1.2699482e-01
-2.1627917e-01
-2.7211439e-01
-2.8062563e-01
-2.3605201e-01
-1.4264580e-01
-1.4540143e-02
1.2657830e-01
2.5562186e-01
3.4921322e-01
3.9057707e-01
3.7303197e-01
3.0125119e-01
1.9004761e-01
6.1049389e-02
-6.1906447e-02
-1.5760139e-01
-2.1142238e-01
-2.1767740e-01
-1.7984597e-01
-1.0891112e-01
-2.0378694e-02
6.9186993e-02
1.4530579e-01
1.9778566e-01
2.2165537e-01
2.1682636e-01
1.8678647e-01
1.3680904e-01
7.2189055e-02
-3.0714264e-03
-8.6857186e-02
-1.7870949e-01
-2.7882532e-01
-3.8648103e-01
-4.9821240e-01
-6.0622043e-01
-6.9757435e-01
-7.5476028e-01
-7.5789614e-01
-6.8850340e-01
-5.3419419e-01
-2.9317050e-01
2.2753021e-02
3.8764507e-01
7.6387709e-01
1.1070986e+00
1.3728117e+00
1.5233407e+00
1.5340272e+00
1.3976527e+00
1.1263057e+00
7.5020912e-01
3.1346351e-01
-1.3272714e-01
-5.3813919e-01
-8.6129261e-01
-1.0752877e+00
-1.1706070e+00
-1.1545525e+00
-1.0477933e+00
-8.7909486e-01
-6.7954611e-01
-4.7744221e-01
-2.9458155e-01
-1.4429608e-01
-3.1195281e-02
4.7619212e-02
1.0026719e-01
1.3725712e-01
1.6870183e-01
2.0212383e-01
2.4118660e-01
2.8540665e-01
3.3068786e-01
3.7045547e-01
3.9719205e-01
4.0417690e-01
3.8715930e-01
3.4561258e-01
2.8320740e-01
2.0727729e-01
1.2732187e-01
5.2911777e-02
-8.4223933e-03
-5.2713810e-02
-8.0068253e-02
-9.4039598e-02
-1.0010569e-01
-1.0376178e-01
-1.0885731e-01
-1.1669442e-01
-1.2612464e-01
-1.3452185e-01
-1.3919414e-01
-1.3865111e-01
-1.3323651e-01
-1.2492366e-01
-1.1640340e-01
-1.0983729e-01
-1.0574451e-01
-1.0244383e-01
-9.6297873e-02
-8.2739483e-02
-5.7788901e-02
-1.9618591e-02
3.0249820e-02
8.6381774e-02
1.3961413e-01
1.7803236e-01
1.8876876e-01
1.6057747e-01
8.6936249e-02
-3.0863326e-02
-1.8141556e-01
-3.4255640e-01
-4.8310704e-01
-5.6732892e-01
-5.6175490e-01
-4.4328649e-01
-2.0676107e-01
1.3015313e-01
5.2663026e-01
9.2385720e-01
1.2551249e+00
1.4587233e+00
1.4905435e+00
1.3332606e+00
9.9989480e-01
5.3107415e-01
-1.3063987e-02
-5.6415795e-01
-1.0573381e+00
-1.4407927e+00
-1.6814375e+00
-1.7661790e+00
-1.6994949e+00
-1.4988975e+00
-1.1900281e+00
-8.0270311e-01
-3.6844446e-01
8.0739323e-02
5.1301766e-01
8.9757709e-01
1.2060846e+00
1.4148445e+00
1.5074139e+00
1.4772322e+00
1.3296426e+00
1.0825330e+00
7.6489207e-01
4.1305570e-01
6.5231199e-02
-2.4440910e-01
-4.9058488e-01
-6.5964899e-01
-7.4989950e-01
-7.6987103e-01
-7.3541226e-01
-6.6633372e-01
-5.8310671e-01
-5.0381258e-01
-4.4151206e-01
-4.0236576e-01
-3.8491248e-01
-3.8073793e-01
-3.7643020e-01
-3.5640549e-01
-3.0602126e-01
-2.1441185e-01
-7.6637661e-02
1.0506630e-01
3.2099466e-01
5.5457182e-01
7.8374576e-01
9.8309021e-01
1.1265679e+00
1.1908977e+00
1.1593425e+00
1.0254597e+00
7.9600913e-01
4.9200105e-01
1.4701033e-01
-1.9751071e-01
-4.9930091e-01
-7.2327680e-01
-8.4850380e-01
-8.7227963e-01
-8.1007107e-01
-6.9113153e-01
-5.5092204e-01
-4.2247364e-01
-3.2909700e-01
-2.8026955e-01
-2.7143783e-01
-2.8732076e-01
-3.0741961e-01
-3.1200761e-01
-2.8695388e-01
-2.2627622e-01
-1.3212937e-01
-1.2741262e-02
1.2065593e-01
2.5673247e-01
3.8591225e-01
5.0081765e-01
5.9557887e-01
6.6473675e-01
7.0254633e-01
7.0315684e-01
6.6162661e-01
5.7534603e-01
4.4535475e-01
2.7719906e-01
8.1211781e-02
-1.2774547e-01
-3.3103515e-01
-5.0757049e-01
-6.3589317e-01
-6.9708836e-01
-6.7830845e-01
-5.7627629e-01
-3.9984126e-01
-1.7060991e-01
7.9045082e-02
3.1067390e-01
4.8642550e-01
5.7634397e-01
5.6463914e-01
4.5343631e-01
2.6302246e-01
2.8368906e-02
