-9.8610159e-04
-4.1901471e-02
-8.1218013e-02
-1.0383225e-01
-1.0607095e-01
-1.1125889e-01
-1.3411745e-01
-1.5587458e-01
-1.5114480e-01
-1.3222449e-01
-1.1757091e-01
-9.3151449e-02
-4.8048383e-02
8.4576940e-03
6.1301861e-02
9.9991069e-02
1.2111561e-01
1.3465674e-01
1.5393790e-01
1.6533188e-01
1.5303406e-01
1.2804000e-01
1.0013066e-01
5.5321234e-02
-2.2686169e-02
-1.0868019e-01
-1.6906651e-01
-1.9752667e-01
-1.8273832e-01
-1.3549962e-01
-8.4721416e-02
-3.9325331e-02
-2.6952920e-03
3.2709780e-02
7.0169204e-02
8.8439571e-02
7.4139615e-02
4.6479211e-02
3.1062963e-02
2.5801830e-02
1.1497123e-02
-2.0969270e-02
-6.8426091e-02
-1.1933820e-01
-1.6307149e-01
-1.9440142e-01
-2.0777897e-01
-2.0261072e-01
-1.6854327e-01
-8.5983104e-02
2.0257705e-02
9.6273418e-02
1.3804520e-01
1.6015864e-01
1.5395341e-01
1.2685964e-01
1.0433017e-01
9.6708024e-02
9.3032733e-02
7.6460540e-02
3.7380051e-02
-1.7140431e-02
-6.6373139e-02
-9.3195827e-02
-1.0062753e-01
-1.0271750e-01
-9.9097397e-02
-7.4850904e-02
-2.5119587e-02
3.6356460e-02
8.7494992e-02
1.2239708e-01
1.5272183e-01
1.7331033e-01
1.6016641e-01
1.1421420e-01
6.4440074e-02
2.5910905e-02
-5.2721086e-03
-3.8317936e-02
-7.3117323e-02
-1.0563566e-01
-1.3496995e-01
-1.5148001e-01
-1.4905677e-01
-1.2119651e-01
-5.8574545e-02
1.4715614e-02
7.1419981e-02
1.0672619e-01
1.2121947e-01
1.2509025e-01
1.2775656e-01
1.3882577e-01
1.5299196e-01
1.5132216e-01
1.3508648e-01
1.1555543e-01
8.5663373e-02
2.1094748e-02
-6.5836850e-02
-1.3571066e-01
-1.8195628e-01
-1.9951867e-01
-1.7905152e-01
-1.3014106e-01
-7.6212509e-02
-3.1565751e-02
7.6637694e-03
3.7849115e-02
4.6177012e-02
2.9243232e-02
1.9431298e-02
3.3653163e-02
3.3200996e-02
-4.3802149e-03
-5.4575029e-02
-9.2570518e-02
-1.2773696e-01
-1.7121489e-01
-2.1629523e-01
-2.4404678e-01
-2.3383369e-01
-1.8011632e-01
-7.4588380e-02
5.3422180e-02
1.4723262e-01
1.9769326e-01
2.2107601e-01
2.1881838e-01
1.9089626e-01
1.5827161e-01
1.3394929e-01
1.0265263e-01
5.2572699e-02
-4.3143697e-04
-2.9824015e-02
-3.3971498e-02
-3.4418542e-02
-3.2466309e-02
-9.3611229e-03
3.9148730e-02
1.0312734e-01
1.6009696e-01
1.9366108e-01
2.1581684e-01
2.3388222e-01
2.3874459e-01
2.0964931e-01
1.0878881e-01
-3.7291716e-02
-1.3678285e-01
-1.7610150e-01
-1.9934482e-01
-2.0875121e-01
-2.0647832e-01
-2.1519823e-01
-2.2970558e-01
-2.2174844e-01
-1.8096189e-01
-1.2521201e-01
-6.9796956e-02
-2.0291643e-02
5.4187081e-03
-5.2631835e-03
-4.2969343e-02
-7.8302704e-02
-8.6086847e-02
-7.6165813e-02
-7.7685955e-02
-1.1200202e-01
-1.6734093e-01
-2.0856457e-01
-2.0774322e-01
-1.4271308e-01
-3.3008589e-02
6.6715802e-02
1.4238875e-01
2.0379210e-01
2.4250379e-01
2.5001439e-01
2.3155660e-01
1.9110233e-01
1.4422705e-01
1.0853389e-01
7.3483127e-02
4.0314726e-02
2.5938285e-02
2.2506326e-02
2.0588729e-03
-3.9353103e-02
-7.3532519e-02
-9.5591071e-02
-1.2681950e-01
-1.5827059e-01
-1.5908051e-01
-1.2371720e-01
-6.7725886e-02
-8.1603201e-03
5.1064753e-02
1.0713701e-01
1.4487025e-01
1.6104091e-01
1.5581225e-01
1.2608558e-01
8.2139324e-02
4.2913399e-02
2.2307780e-02
9.6712994e-03
-1.1077810e-02
-3.4732752e-02
-5.1761944e-02
-6.2740225e-02
-7.0264322e-02
-7.6862284e-02
-8.3106702e-02
-7.0090619e-02
-3.0901677e-02
2.0193963e-02
7.3665719e-02
1.2032417e-01
1.5355008e-01
1.6594376e-01
1.5246989e-01
1.1467845e-01
6.0767415e-02
3.5410074e-03
-3.7221927e-02
-5.5213624e-02
-7.4174811e-02
-1.0312327e-01
-1.2227123e-01
-1.2384311e-01
-1.1753469e-01
-9.9459509e-02
-6.7763279e-02
-2.7805559e-02
2.0795613e-02
6.2460391e-02
8.5689677e-02
1.0149707e-01
1.0993965e-01
9.9608925e-02
6.9516435e-02
3.2495156e-02
9.5070520e-03
2.2808000e-03
-4.9508927e-03
-2.0535876e-02
-4.7179036e-02
-7.9895624e-02
-1.0993266e-01
-1.2441586e-01
-1.1251592e-01
-8.3424096e-02
-5.1940380e-02
-1.5576939e-02
3.8160400e-02
9.1563616e-02
1.0777773e-01
8.8378101e-02
7.4451005e-02
8.6841553e-02
1.0099246e-01
8.8780097e-02
4.9771494e-02
6.2526182e-03
-2.6935504e-02
-5.6590628e-02
-8.5807570e-02
-1.0264980e-01
-9.4434260e-02
-5.7401701e-02
-1.1668205e-02
3.8495834e-03
-1.0202489e-02
-1.5058675e-02
-5.0275376e-04
1.3280378e-02
1.5229870e-02
1.7206182e-02
3.1709821e-02
5.0263213e-02
5.6644826e-02
4.8716951e-02
2.4256667e-02
-1.5173128e-02
-5.6247618e-02
-9.2273341e-02
-1.1363667e-01
-1.1530754e-01
-9.8076642e-02
-6.4658771e-02
-2.7523859e-02
7.1836189e-03
4.7419245e-02
8.6133893e-02
1.0197224e-01
9.5372716e-02
8.1556800e-02
6.6319385e-02
4.8211074e-02
3.2227253e-02
1.4791379e-02
-1.3399453e-02
-4.6705800e-02
-7.2134143e-02
-8.3512206e-02
-8.9245105e-02
-9.2330534e-02
-8.0655404e-02
-5.4259057e-02
-1.7508553e-02
2.9978038e-02
7.0577524e-02
8.7095425e-02
8.9317668e-02
9.2656765e-02
9.5264287e-02
9.0819847e-02
7.3607962e-02
3.8938534e-02
6.3366278e-03
-5.1330329e-03
-1.9206341e-02
-5.3771937e-02
-8.4513550e-02
-9.5588544e-02
-9.7115649e-02
-9.3605085e-02
-8.0278601e-02
-4.9560154e-02
3.0118886e-03
5.6059367e-02
7.7739677e-02
7.2015466e-02
7.0125885e-02
7.6182346e-02
7.4042911e-02
6.1735058e-02
3.8531494e-02
8.7579919e-03
-1.6135353e-02
-3.8210748e-02
-7.0784598e-02
-1.1332754e-01
-1.4728381e-01
-1.5928968e-01
-1.4536756e-01
-1.0440371e-01
-5.0324842e-02
-1.7848258e-03
4.4111467e-02
8.8791587e-02
1.1485543e-01
1.0913768e-01
8.9493017e-02
8.5633429e-02
8.6498605e-02
6.1916118e-02
2.6891178e-02
9.6598688e-03
9.1606012e-04
-1.0870786e-02
-2.9487222e-02
-5.9719674e-02
-8.2294604e-02
-7.2819443e-02
-3.5070294e-02
1.3943380e-02
5.7421487e-02
9.2698266e-02
1.1887687e-01
1.2058988e-01
9.7944510e-02
6.6517908e-02
3.8173394e-02
1.6433745e-02
2.2037948e-03
-1.0160144e-02
-2.7682710e-02
-4.7781558e-02
-6.6112022e-02
-8.0949256e-02
-9.2733771e-02
-1.0665898e-01
-1.2615557e-01
-1.2838116e-01
-9.3903234e-02
-4.7989400e-02
-2.1167452e-02
-1.3301234e-02
-1.1647366e-02
-5.8491269e-03
6.6495645e-03
8.8784227e-03
-1.2928346e-02
-3.4340532e-02
-2.7982905e-02
2.9583455e-03
3.3518603e-02
2.6786446e-02
-1.0297135e-02
-3.7867778e-02
-5.9774945e-02
-8.3568572e-02
-8.8263985e-02
-7.0401535e-02
-3.4876157e-02
1.2523430e-02
5.7975820e-02
9.9812382e-02
1.3879521e-01
1.6564735e-01
1.6625830e-01
1.3413645e-01
8.8831945e-02
5.5713030e-02
3.9035847e-02
2.5311464e-02
1.4649043e-03
-3.1339659e-02
-6.2025069e-02
-8.3392112e-02
-1.0534124e-01
-1.3686454e-01
-1.6121633e-01
-1.5112609e-01
-1.0463217e-01
-5.0225985e-02
-1.1144305e-02
2.2843544e-02
6.5627794e-02
1.0694120e-01
1.3256611e-01
1.3491778e-01
1.2321838e-01
1.1247127e-01
9.5301566e-02
6.2002649e-02
1.3047988e-02
-3.4908858e-02
-6.0211402e-02
-7.7010885e-02
-1.0282005e-01
-1.2882323e-01
-1.4283304e-01
-1.3490588e-01
-1.0705383e-01
-6.6062894e-02
-1.2596117e-02
4.6339902e-02
9.8831645e-02
1.3585400e-01
1.4522686e-01
1.2336952e-01
9.5029535e-02
7.9726047e-02
7.3450479e-02
6.9221931e-02
5.8524214e-02
3.4571232e-02
1.7631133e-03
-2.9182675e-02
-6.0540517e-02
-9.6892925e-02
-1.2670275e-01
-1.3680519e-01
-1.2064457e-01
-7.8023987e-02
-2.4679008e-02
2.4070930e-02
7.6104646e-02
1.3004914e-01
1.5149828e-01
1.2500042e-01
8.5272369e-02
6.2540596e-02
5.8685523e-02
5.7757341e-02
3.6207425e-02
-7.0161195e-03
-5.4489946e-02
-9.2513044e-02
-1.1512866e-01
-1.2466706e-01
-1.2652325e-01
-1.1445552e-01
-8.5635154e-02
-5.1617254e-02
-1.4018684e-02
2.2586198e-02
4.9855967e-02
7.7257696e-02
1.0536598e-01
1.0907104e-01
8.7694618e-02
8.0351836e-02
9.5081054e-02
9.4891991e-02
5.1025787e-02
-1.7964969e-02
-7.4501338e-02
-1.0436182e-01
-1.1603094e-01
-1.2916646e-01
-1.3886125e-01
-1.2823732e-01
-9.9442807e-02
-5.9178447e-02
-1.8099043e-02
2.3280941e-02
7.5438518e-02
1.2233230e-01
1.3908549e-01
1.2541747e-01
9.3788497e-02
5.8223944e-02
2.4012066e-02
-1.1697292e-02
-4.2758902e-02
-5.6020920e-02
-5.7285170e-02
-6.1596390e-02
-6.0761107e-02
-6.0858273e-02
-7.2966008e-02
-7.7781752e-02
-5.7273302e-02
-1.5781050e-02
2.1557879e-02
4.3947868e-02
5.8439533e-02
6.7978004e-02
7.6519176e-02
8.0042150e-02
7.2936177e-02
6.9789686e-02
7.8489075e-02
8.2804135e-02
7.1539056e-02
5.0773118e-02
2.3213925e-02
-1.0830741e-02
-3.9734070e-02
-6.2046546e-02
-7.8739557e-02
-8.2452547e-02
-7.8312001e-02
-8.0722134e-02
-9.0540702e-02
-8.5957933e-02
-5.2232512e-02
3.0559263e-03
5.3223686e-02
7.0092785e-02
6.7181272e-02
6.9661206e-02
7.3024308e-02
7.0872018e-02
5.9960050e-02
3.0547470e-02
-7.0129575e-03
-2.8001719e-02
-3.5059906e-02
-5.7455757e-02
-1.0291304e-01
-1.4219523e-01
-1.4955457e-01
-1.2104736e-01
-7.1896036e-02
-1.6340163e-02
4.6338351e-02
1.0727016e-01
1.4555369e-01
1.4816989e-01
1.2026743e-01
9.8310122e-02
1.1169935e-01
1.3401224e-01
1.2874818e-01
9.2415723e-02
4.4689153e-02
-1.2148625e-02
-9.1651882e-02
-1.6904707e-01
-2.2434629e-01
-2.6682761e-01
-2.8374956e-01
-2.6938529e-01
-2.5809172e-01
-2.5881198e-01
-2.4585462e-01
-2.2960737e-01
-2.2638755e-01
-2.3353330e-01
-2.4262611e-01
-2.3202423e-01
-1.8129003e-01
-4.3451941e-02
1.5594191e-01
2.8590174e-01
3.0709148e-01
2.6312593e-01
1.9145197e-01
1.1645409e-01
4.6821149e-02
-2.7883227e-03
-2.6097016e-02
-2.3023626e-02
-1.1905493e-03
2.6122677e-02
5.5518314e-02
9.3893474e-02
1.4286892e-01
1.8475103e-01
2.1638279e-01
2.5213654e-01
2.9559251e-01
3.2360076e-01
3.1694636e-01
2.8748024e-01
2.3868449e-01
1.7317180e-01
7.7811104e-02
-5.4736445e-02
-1.6449743e-01
-2.1310737e-01
-2.2085505e-01
-2.0588702e-01
-1.6138563e-01
-8.5507782e-02
-2.8598202e-03
5.7046009e-02
7.4677541e-02
6.2918636e-02
4.3610355e-02
3.2473973e-02
3.9997887e-02
4.8091739e-02
4.0179348e-02
2.5418088e-02
2.4710824e-02
5.0578050e-02
9.7488671e-02
1.4300865e-01
1.6928809e-01
1.8329268e-01
1.6091045e-01
4.2682922e-02
-1.3165644e-01
-2.3388249e-01
-2.3477331e-01
-1.9067866e-01
-1.3066189e-01
-7.3504125e-02
-3.9209014e-02
-2.5934945e-02
-1.3377843e-02
2.4070064e-03
4.0256529e-03
-1.3360298e-02
-3.4581868e-02
-4.7367556e-02
-6.4978148e-02
-9.8584710e-02
-1.2949427e-01
-1.3888553e-01
-1.1897960e-01
-7.2113663e-02
-2.3413866e-02
8.6238159e-03
3.3885286e-02
6.1870375e-02
8.1181812e-02
8.1444073e-02
7.6494085e-02
7.1649773e-02
6.4459085e-02
5.8344692e-02
4.1815230e-02
1.4724507e-02
-1.2794448e-02
-3.9454937e-02
-6.9231120e-02
-1.0134879e-01
-1.1994395e-01
-1.1318408e-01
-7.8160219e-02
-2.7346917e-02
1.3437728e-02
4.1480754e-02
7.5114231e-02
1.0875310e-01
1.1476797e-01
9.5342649e-02
7.4082961e-02
5.9651570e-02
5.4458416e-02
4.7358466e-02
1.7430381e-02
-2.5006384e-02
-5.8231781e-02
-7.9537078e-02
-9.5177321e-02
-1.1570109e-01
-1.2946485e-01
-1.0982111e-01
-6.6842889e-02
-2.9356566e-02
6.8866118e-03
5.2245735e-02
9.1059697e-02
1.0738236e-01
1.0139247e-01
8.4855572e-02
6.8856816e-02
5.5756271e-02
4.5839975e-02
2.6495008e-02
-2.1704733e-02
-8.2807066e-02
-1.2378301e-01
-1.3954697e-01
-1.3552889e-01
-1.1889560e-01
-9.8083376e-02
-6.3463793e-02
-1.4638313e-02
2.5777657e-02
4.0773394e-02
4.4998069e-02
6.3581513e-02
9.2572043e-02
1.1229139e-01
1.0938948e-01
9.6093217e-02
9.1936464e-02
8.1305638e-02
3.6661577e-02
-3.6525739e-02
-1.0702019e-01
-1.4862144e-01
-1.5058385e-01
-1.2221292e-01
-9.2869356e-02
-7.2583356e-02
-4.5486173e-02
-9.6633793e-03
2.9296961e-02
6.6251539e-02
9.5976568e-02
1.1013481e-01
1.0633672e-01
9.4810299e-02
7.4607009e-02
5.3011917e-02
4.1781829e-02
3.6543045e-02
3.8684389e-02
4.5027568e-02
3.4719226e-02
-1.6566742e-03
-6.1139148e-02
-1.3982304e-01
-2.0557856e-01
-2.1948216e-01
-1.7907652e-01
-1.0374585e-01
-3.1551813e-02
4.8776085e-03
2.4589864e-02
4.8817085e-02
6.2198216e-02
6.4436990e-02
6.5867172e-02
5.8407252e-02
3.6721737e-02
4.0531056e-03
-3.4976242e-02
-7.2785178e-02
-8.9690313e-02
-7.2422980e-02
-4.1905235e-02
-1.4572991e-02
2.4742974e-02
7.5589758e-02
1.1651632e-01
1.3636833e-01
1.3248133e-01
1.1567821e-01
1.0056378e-01
9.1391016e-02
7.3770558e-02
2.4469009e-02
-4.4793339e-02
-1.0049916e-01
-1.3001902e-01
-1.3468348e-01
-1.1660181e-01
-9.5578109e-02
-8.7943654e-02
-8.1337020e-02
-6.9642965e-02
-5.3924103e-02
-3.0666217e-02
-4.1010948e-04
4.0364274e-02
8.2548433e-02
1.0584838e-01
1.1244048e-01
1.1011056e-01
9.8466833e-02
8.1768520e-02
4.7955129e-02
-1.3608606e-02
-7.8084690e-02
-1.2418796e-01
-1.7081904e-01
-2.3919374e-01
-3.1488281e-01
-3.6709574e-01
-3.6967867e-01
-3.0718749e-01
-1.5593014e-01
5.1543971e-02
2.1336399e-01
3.0209797e-01
3.3539024e-01
3.0514710e-01
2.4069520e-01
1.9916311e-01
1.9067153e-01
1.8521158e-01
1.6520106e-01
1.2685630e-01
7.9965393e-02
4.0574242e-02
8.3362000e-03
-2.4032991e-02
-5.7803899e-02
-8.4196942e-02
-9.6268671e-02
-9.4209296e-02
-7.9948079e-02
-5.5772586e-02
-1.7047220e-02
3.2763598e-02
7.1676467e-02
8.0369419e-02
5.9749832e-02
2.6677328e-02
2.8730683e-03
-4.5734195e-03
-5.6409952e-03
-7.7892919e-03
-1.4016234e-02
-2.3454966e-02
-3.7812290e-02
-6.2475593e-02
-8.3748885e-02
-8.8929994e-02
-7.4173834e-02
-3.5862089e-02
1.1411298e-02
6.7646733e-02
1.4515998e-01
2.2330136e-01
2.7687980e-01
3.1124245e-01
3.3518331e-01
3.5929662e-01
3.8158351e-01
3.5360427e-01
2.0449905e-01
-2.3360100e-02
-1.7668480e-01
-2.3336387e-01
-2.7967256e-01
-3.3530827e-01
-3.6653169e-01
-3.5530505e-01
-3.0705656e-01
-2.2413905e-01
-1.1544716e-01
-5.8704663e-03
8.3334537e-02
1.3966233e-01
1.5632004e-01
1.3402342e-01
9.1046137e-02
6.5099401e-02
6.0158432e-02
5.1122879e-02
3.6813707e-02
2.9377884e-02
2.2607010e-02
-5.5062596e-04
-4.1947563e-02
-9.9334087e-02
-1.5674013e-01
-1.9058296e-01
-2.0128965e-01
-1.8956534e-01
-1.4947435e-01
-9.1945488e-02
-3.2107561e-02
2.3184670e-02
6.2879303e-02
7.9440620e-02
8.0722416e-02
8.3275780e-02
7.8721333e-02
4.4849328e-02
-3.0633507e-03
-4.5847274e-02
-8.3544013e-02
-1.1803309e-01
-1.5171682e-01
-1.7427060e-01
-1.6938558e-01
-1.3665564e-01
-8.7601620e-02
-2.6611258e-02
5.7833905e-02
1.6386685e-01
2.4846417e-01
2.7819548e-01
2.6529800e-01
2.3600942e-01
2.0826676e-01
1.8392654e-01
1.4476044e-01
7.9602609e-02
8.8669099e-03
-3.9139109e-02
-7.3202496e-02
-1.2702731e-01
-2.0005050e-01
-2.5385455e-01
-2.5891570e-01
-2.2186079e-01
-1.7886145e-01
-1.5406398e-01
-1.3254152e-01
-1.0470187e-01
-8.0721873e-02
-6.9330060e-02
-6.2868802e-02
-1.9523027e-02
6.0836531e-02
1.1650982e-01
1.2405349e-01
1.0397684e-01
7.7044388e-02
5.6085759e-02
4.1446579e-02
3.5090837e-02
4.9567436e-02
8.4329637e-02
1.1961160e-01
1.3909253e-01
1.3453685e-01
1.0926459e-01
8.9075607e-02
9.6331147e-02
1.1794966e-01
1.3288395e-01
1.4800385e-01
1.7702244e-01
2.1606670e-01
2.4215030e-01
2.3015573e-01
1.6968544e-01
4.8601703e-02
-9.7605021e-02
-1.8776923e-01
-2.1366838e-01
-2.0490281e-01
-1.6473010e-01
-1.1170700e-01
-7.7885471e-02
-6.6556728e-02
-6.6239935e-02
-7.1929480e-02
-6.3470888e-02
-4.0795281e-02
-3.1162923e-02
-3.8081924e-02
-4.9072036e-02
-6.7285902e-02
-9.3797091e-02
-1.1680965e-01
-1.2528482e-01
-1.0913564e-01
-7.4511025e-02
-4.2349998e-02
-1.8742975e-02
7.8732380e-03
2.5026101e-02
1.6250263e-02
7.1336057e-03
1.7308655e-02
2.7072328e-02
2.1785749e-02
8.6414214e-03
-5.7303891e-03
-5.0416799e-03
1.4658020e-02
2.7096945e-02
2.3403519e-02
9.2524254e-03
-1.3231842e-02
-2.9372918e-02
-2.7474705e-02
-9.2273271e-03
1.7852123e-02
3.9801330e-02
4.6403449e-02
4.4570836e-02
4.0049830e-02
2.3164041e-02
-9.9519104e-03
-3.9328129e-02
-3.9695222e-02
-1.8683402e-02
2.2576017e-04
9.1717998e-03
1.4337284e-02
2.2564740e-02
1.4362750e-02
-2.5664073e-02
-6.9327761e-02
-9.1219743e-02
-1.0091439e-01
-1.0571439e-01
-9.7636707e-02
-7.4993335e-02
-3.6408839e-02
1.1972736e-02
4.6266029e-02
5.3129089e-02
4.0900394e-02
1.9939825e-02
-7.7767235e-03
-3.8542006e-02
-6.3494303e-02
-7.7939270e-02
-7.3478387e-02
-5.1473904e-02
-3.2097575e-02
-3.5874232e-02
-6.7852216e-02
-1.0799078e-01
-1.3562239e-01
-1.4226347e-01
-1.2078166e-01
-5.4837579e-02
5.0676591e-02
1.4583036e-01
1.9385363e-01
2.0302751e-01
1.9711466e-01
1.9280367e-01
1.9390275e-01
1.9094145e-01
1.7512638e-01
1.5600995e-01
1.4013047e-01
1.1731790e-01
8.0811494e-02
3.7081586e-02
6.0634542e-03
-8.3980722e-03
-4.4888612e-02
-1.0961045e-01
-1.4429235e-01
-1.2790801e-01
-9.0312795e-02
-5.4057130e-02
-3.3859410e-02
-3.3460711e-02
-3.7366542e-02
-2.5767529e-02
1.8299632e-04
1.4964330e-02
6.9041886e-03
-1.8284434e-02
-5.1948336e-02
-8.0947862e-02
-1.1222909e-01
-1.5645218e-01
-1.9498379e-01
-2.0795750e-01
-1.9690705e-01
-1.7360927e-01
-1.4674833e-01
-1.1757145e-01
-8.2276554e-02
-1.5042325e-02
9.5905393e-02
2.0636931e-01
2.7039741e-01
2.8081406e-01
2.4925695e-01
1.8846277e-01
1.1379367e-01
3.2332736e-02
-5.8977856e-02
-1.5940963e-01
-2.3525578e-01
-2.2751028e-01
-1.2472395e-01
7.0395538e-03
9.5805640e-02
1.3451622e-01
1.4597673e-01
1.4126778e-01
1.2155703e-01
9.0091096e-02
6.2790525e-02
5.5514055e-02
6.6669225e-02
7.4689130e-02
8.1236918e-02
9.9089270e-02
1.0152852e-01
6.8374467e-02
8.1153624e-03
-6.7727841e-02
-1.3392520e-01
-1.5457784e-01
-1.3346856e-01
-1.0603967e-01
-8.0530794e-02
-5.1021392e-02
-2.1604812e-02
4.1832575e-03
1.8389056e-02
1.1132553e-02
-5.0444081e-03
-1.2298672e-02
-2.1757566e-02
-4.7340694e-02
-8.4780196e-02
-1.1774646e-01
-1.3762839e-01
-1.5322328e-01
-1.5858261e-01
-1.2902537e-01
-6.4256402e-02
-2.6859724e-03
3.3790168e-02
5.7513287e-02
8.6802920e-02
1.2355451e-01
1.5397174e-01
1.6793110e-01
1.6751766e-01
1.6574569e-01
1.5895795e-01
1.3884168e-01
1.1075458e-01
7.4338653e-02
3.3610828e-02
-4.7292415e-03
-4.1357415e-02
-7.6251084e-02
-1.0219614e-01
-1.0727488e-01
-8.4859371e-02
-3.5252186e-02
2.8114000e-02
8.3268256e-02
1.2044507e-01
1.4085498e-01
1.5121065e-01
1.5720891e-01
1.4956445e-01
1.3429210e-01
1.2928925e-01
1.3394511e-01
1.2612786e-01
7.9046337e-02
1.1573099e-02
-4.7567393e-02
-1.0039478e-01
-1.4056299e-01
-1.6208953e-01
-1.6498688e-01
-1.4403705e-01
-1.1561833e-01
-8.9078596e-02
-4.8983071e-02
-5.0672049e-03
1.7613666e-02
1.6254600e-02
4.4566982e-03
-4.0863640e-03
-1.2453718e-03
3.4211069e-03
-7.0680187e-03
-3.8408293e-02
-7.8328151e-02
-1.0217453e-01
-1.0833110e-01
-1.1012728e-01
-1.1382538e-01
-1.0996498e-01
-7.8600425e-02
-2.7232518e-02
2.7680904e-02
7.2904676e-02
9.2727431e-02
9.9379628e-02
1.1110815e-01
1.2394647e-01
1.3370097e-01
1.4667943e-01
1.6695453e-01
1.8932330e-01
1.9666386e-01
1.7346361e-01
1.1085065e-01
-1.9176761e-02
-1.8987944e-01
-3.0410287e-01
-3.3966042e-01
-3.2887689e-01
-2.8210945e-01
-2.1552248e-01
-1.4679139e-01
-7.3453373e-02
1.9186439e-02
1.1796846e-01
1.8076595e-01
1.8441838e-01
1.4494547e-01
9.5848167e-02
5.4633262e-02
1.5784801e-02
-3.0944666e-02
-7.9901567e-02
-1.1847738e-01
-1.4725223e-01
-1.7038013e-01
-1.9188243e-01
-2.0145074e-01
-1.7119047e-01
-8.4318810e-02
2.7327008e-02
1.0546561e-01
1.4571134e-01
1.7276892e-01
1.9144615e-01
1.9553457e-01
1.7948113e-01
1.4647389e-01
1.0403227e-01
5.8169948e-02
1.2074130e-02
-3.3392161e-02
-6.5528722e-02
-7.1006782e-02
-6.1104913e-02
-5.4192148e-02
-5.0279572e-02
-2.6440894e-02
2.4958060e-02
7.9417962e-02
1.1156460e-01
1.1982619e-01
1.1864137e-01
1.0838773e-01
7.2582529e-02
2.0629532e-02
-1.0271020e-02
-1.3679028e-02
-7.5892921e-03
-1.2306959e-02
-4.2144091e-02
-8.3734127e-02
-1.1388224e-01
-1.2016792e-01
-1.0069780e-01
-6.5853182e-02
-2.7260361e-02
1.1315700e-02
4.4001821e-02
6.4443204e-02
7.5320582e-02
8.2115509e-02
8.6107439e-02
9.0203397e-02
8.9728479e-02
7.8449670e-02
6.6800368e-02
6.0972228e-02
4.7229658e-02
9.2818017e-03
-4.4461650e-02
-8.2801201e-02
-9.8166984e-02
-1.1199843e-01
-1.3003096e-01
-1.4298251e-01
-1.4092390e-01
-1.1576390e-01
-7.1516297e-02
-2.0576123e-02
2.1928374e-02
5.5039110e-02
7.6137742e-02
7.3723110e-02
5.4898461e-02
3.0591969e-02
1.3690060e-02
7.6821572e-03
-5.8798054e-03
-3.8551482e-02
-8.3127632e-02
-1.2279979e-01
-1.4385222e-01
-1.4755895e-01
-1.2653049e-01
-6.6003232e-02
1.9500214e-02
1.1054979e-01
2.0731447e-01
2.9855808e-01
3.5176227e-01
3.5870220e-01
3.4022834e-01
3.1110490e-01
2.7331967e-01
2.2734104e-01
1.7340960e-01
1.0358278e-01
1.2850151e-02
-8.9468924e-02
-1.9805322e-01
-3.1638236e-01
-4.3750827e-01
-5.5178258e-01
-6.6465676e-01
-7.5720515e-01
-7.7713087e-01
-7.0915786e-01
-5.6798239e-01
-3.1134672e-01
2.2683862e-02
2.6821518e-01
3.8426228e-01
4.2101091e-01
4.0418140e-01
3.5973825e-01
2.9965891e-01
2.2075331e-01
1.2371956e-01
3.0013161e-02
-2.6623742e-02
-3.0554177e-02
4.6996553e-04
4.1873021e-02
8.4034513e-02
1.2114863e-01
1.4162365e-01
1.4130894e-01
1.3399461e-01
1.4351018e-01
1.7851275e-01
2.2020368e-01
2.3953429e-01
2.1446621e-01
1.2625774e-01
9.1014678e-03
-5.7591471e-02
-7.2892915e-02
-7.9704758e-02
-8.5408719e-02
-9.3750065e-02
-1.0976884e-01
-1.3844174e-01
-1.7427105e-01
-1.8169919e-01
-1.3051139e-01
-4.5795225e-02
1.9227932e-02
5.7737399e-02
8.7838524e-02
9.5898285e-02
7.6554179e-02
4.5448664e-02
2.8636007e-03
-4.3423706e-02
-7.3059511e-02
-8.7507206e-02
-9.8228613e-02
-1.0225291e-01
-8.7591265e-02
-4.5479907e-02
6.5468266e-03
3.8284700e-02
5.5988250e-02
8.0589364e-02
9.8001107e-02
8.5412337e-02
5.4191432e-02
3.2434678e-02
3.0993632e-02
3.8907849e-02
4.3673997e-02
4.6027119e-02
5.0808497e-02
5.8519310e-02
5.7845302e-02
3.3125700e-02
-5.5238175e-03
-2.9988297e-02
-2.9883541e-02
-2.1915767e-02
-2.3975625e-02
-3.3374249e-02
-4.4600017e-02
-5.8534187e-02
-5.8507685e-02
-2.5821871e-02
2.7958177e-02
8.3745053e-02
1.2771256e-01
1.3981921e-01
1.0711453e-01
3.9219745e-02
-4.6956898e-02
-1.2915451e-01
-1.9149294e-01
-2.4150990e-01
-2.6916779e-01
-2.6404759e-01
-2.5212602e-01
-2.4576867e-01
-2.2699274e-01
-1.7359422e-01
-7.0333998e-02
5.9100553e-02
1.5715467e-01
2.0315708e-01
2.1513122e-01
2.0758624e-01
1.9082120e-01
1.5180019e-01
6.9797809e-02
-4.8462456e-02
-1.5688422e-01
-1.9933107e-01
-1.7824512e-01
-1.2452404e-01
-5.2475743e-02
2.3662546e-02
8.5740066e-02
1.1991864e-01
1.2273708e-01
1.0988074e-01
1.0357183e-01
1.0093166e-01
8.8669934e-02
6.7496287e-02
4.1753375e-02
1.4122174e-02
-1.4498047e-02
-5.0590247e-02
-8.4733872e-02
-9.3949020e-02
-7.6993068e-02
-4.3349038e-02
-8.9451216e-03
6.0921411e-03
4.5289607e-03
1.0309830e-02
3.2624543e-02
5.0649205e-02
4.6916914e-02
2.5777366e-02
3.2790026e-03
1.5177514e-03
3.4903901e-02
8.2487678e-02
1.0812792e-01
1.0512887e-01
7.4802767e-02
2.0285869e-02
-2.2141189e-02
-2.5578101e-02
-7.9758271e-03
4.3730505e-03
3.5226833e-03
4.1096008e-03
1.8554428e-02
3.4658157e-02
2.9821815e-02
5.9889739e-03
-4.3829739e-03
8.2724084e-03
2.0690084e-02
1.6936270e-02
7.2884225e-03
5.6632273e-03
5.7489478e-03
3.8691445e-03
7.3195688e-04
-8.6618967e-03
-1.9004454e-02
-2.3398253e-02
-3.3916102e-02
-5.5113180e-02
-7.5914529e-02
-8.5422027e-02
-7.3819548e-02
-4.9524301e-02
-2.5367380e-02
2.8327884e-03
3.6926710e-02
6.2163156e-02
7.1067885e-02
6.6824897e-02
5.6859416e-02
5.6341192e-02
6.4153712e-02
5.9293902e-02
2.9795788e-02
-1.0115923e-02
-4.4132030e-02
-6.8832125e-02
-8.1824630e-02
-8.0638845e-02
-6.3994419e-02
-3.1858732e-02
1.1406352e-03
2.3896788e-02
5.6765359e-02
1.0721270e-01
1.5004593e-01
1.6206485e-01
1.3078098e-01
6.2893156e-02
-1.3103775e-02
-6.6473781e-02
-7.9501275e-02
-6.6052911e-02
-6.1230431e-02
-8.0423327e-02
-1.2390660e-01
-1.9514257e-01
-2.5972537e-01
-2.5066627e-01
-1.5460271e-01
-2.5079431e-02
7.8495368e-02
1.3055144e-01
1.4303446e-01
1.4559262e-01
1.4914475e-01
1.3436308e-01
8.4246498e-02
9.0755864e-03
-5.5232014e-02
-9.3538071e-02
-1.2719982e-01
-1.6438125e-01
-1.9308486e-01
-1.9964767e-01
-1.8792954e-01
-1.7531622e-01
-1.4884732e-01
-7.8899045e-02
1.9767991e-02
1.0863883e-01
1.6637781e-01
1.9077245e-01
2.0345607e-01
2.1065707e-01
1.9876846e-01
1.6790215e-01
1.2523823e-01
7.8770023e-02
4.0001108e-02
1.8269694e-02
4.0241748e-03
-1.9501659e-02
-4.3622787e-02
-5.1299534e-02
-4.2193088e-02
-2.8548981e-02
-1.3196980e-02
1.9368503e-02
6.6690325e-02
1.0817385e-01
1.2989282e-01
1.2239924e-01
7.9202477e-02
2.0374654e-02
-2.3246043e-02
-5.7900501e-02
-8.9985160e-02
-1.0707419e-01
-1.0793721e-01
-1.0051857e-01
-9.4585034e-02
-8.9707446e-02
-7.9172297e-02
-6.6546126e-02
-5.0691279e-02
-2.1953852e-02
8.0788427e-03
2.7328725e-02
4.0261466e-02
3.9256513e-02
1.7458314e-02
-9.5314163e-03
-1.5081168e-02
3.9902669e-03
2.1971334e-02
1.9547084e-02
3.5496060e-03
-3.5704740e-03
1.5572891e-03
6.1768184e-03
4.2897568e-04
-1.5626904e-02
-2.3411880e-02
-6.2081999e-03
3.1249794e-02
6.6276179e-02
9.1255302e-02
1.1947441e-01
1.4338533e-01
1.4089211e-01
1.1510492e-01
9.1184732e-02
7.7532668e-02
5.9385529e-02
3.3267414e-02
-7.0768267e-04
-4.0121467e-02
-6.2054778e-02
-5.5414060e-02
-3.8059709e-02
-3.3083684e-02
-4.6859959e-02
-6.8608646e-02
-7.6684220e-02
-6.5899955e-02
-5.6982936e-02
-5.5070533e-02
-4.7520896e-02
-3.5119551e-02
-3.0778142e-02
-4.5182872e-02
-7.0052058e-02
-7.6512630e-02
-6.4573425e-02
-6.7145438e-02
-8.7359871e-02
-1.0075606e-01
-8.3262279e-02
-3.8425122e-02
-5.3449981e-03
1.1162382e-02
3.7736091e-02
8.0052216e-02
1.1718686e-01
1.2508054e-01
1.0960080e-01
9.1336933e-02
7.7768454e-02
6.6995462e-02
5.5557466e-02
4.2121860e-02
2.4082475e-02
6.8845860e-04
-1.2934943e-02
-2.4317305e-02
-5.4426005e-02
-8.5398524e-02
-9.5848883e-02
-8.7285848e-02
-7.2732815e-02
-6.5369054e-02
-6.0676658e-02
-3.6232064e-02
1.3482692e-02
6.0048753e-02
7.3720603e-02
5.3690577e-02
1.8630315e-02
-2.1443129e-02
-6.2234136e-02
-9.5557997e-02
-1.0242110e-01
-6.0632951e-02
7.7375669e-03
4.6501006e-02
4.7844683e-02
4.5916212e-02
6.2064828e-02
9.4686787e-02
1.2506009e-01
1.2589911e-01
7.5679156e-02
-1.5421434e-02
-1.0637680e-01
-1.5457266e-01
-1.4816139e-01
-1.0354588e-01
-5.1949141e-02
-2.2450785e-02
-1.4974326e-02
-2.1776028e-02
-3.9406069e-02
-5.0864128e-02
-5.5446034e-02
-6.7232163e-02
-7.3693897e-02
-5.4493678e-02
-7.5301214e-03
5.2247293e-02
9.5847446e-02
1.0897837e-01
1.0810063e-01
1.0911844e-01
1.1520337e-01
1.2335946e-01
1.2370950e-01
1.0744862e-01
7.8894032e-02
5.3606598e-02
2.6568975e-02
-1.4540688e-02
-5.6069389e-02
-8.0486899e-02
-8.2049028e-02
-7.4509782e-02
-6.9816530e-02
-5.3441434e-02
-2.1589034e-02
7.1618675e-03
2.4223193e-02
3.6075127e-02
4.9423653e-02
6.3033965e-02
7.5518876e-02
8.5178444e-02
7.9391354e-02
5.5350389e-02
2.9031894e-02
1.1904110e-02
-4.4002810e-03
-3.2294993e-02
-6.4621190e-02
-8.6672229e-02
-9.1088130e-02
-9.2049373e-02
-1.0153188e-01
-9.2233612e-02
-5.2445338e-02
-5.5966760e-03
2.8647753e-02
4.2208138e-02
4.7361475e-02
5.9887189e-02
7.6059011e-02
7.6908928e-02
5.8299453e-02
3.8504140e-02
3.3349546e-02
3.7462913e-02
2.7977534e-02
-2.1233353e-04
-2.7127729e-02
-3.3549232e-02
-2.9255200e-02
-4.0562800e-02
-6.3370138e-02
-7.1685428e-02
-6.2203106e-02
-4.2776770e-02
-1.7669698e-02
2.5383393e-04
1.4013409e-02
4.0772847e-02
7.3288101e-02
9.1401393e-02
9.6184938e-02
9.8039668e-02
1.0204951e-01
1.0665329e-01
1.0321631e-01
8.9469823e-02
6.2837121e-02
7.1609769e-03
-7.2133125e-02
-1.3582888e-01
-1.6852857e-01
-1.7673525e-01
-1.6211969e-01
-1.3618839e-01
-1.0865883e-01
-7.3984127e-02
-2.9273523e-02
1.8305220e-02
5.7433762e-02
7.5916882e-02
6.9066299e-02
5.2389140e-02
3.8708582e-02
1.6501787e-02
-1.8489621e-02
-6.0841102e-02
-1.0643113e-01
-1.3828287e-01
-1.5112128e-01
-1.6602125e-01
-1.8490348e-01
-1.8658378e-01
-1.3751108e-01
-2.3904106e-02
9.5472641e-02
1.6412667e-01
1.8733737e-01
1.8703963e-01
1.6950724e-01
1.3631084e-01
1.0191143e-01
7.4138728e-02
4.9493379e-02
3.1295417e-02
2.6188142e-02
2.3973483e-02
1.5402663e-03
-5.0696650e-02
-1.1747711e-01
-1.6827682e-01
-1.8052880e-01
-1.5183485e-01
-9.9088802e-02
-4.1556386e-02
9.3115860e-03
3.6766838e-02
3.2189769e-02
2.3360760e-02
4.6765285e-02
8.6705686e-02
9.9530898e-02
8.1888657e-02
5.9463711e-02
4.8733742e-02
3.7085394e-02
4.2114342e-03
-3.0886651e-02
-4.8442210e-02
-6.1092993e-02
-6.4416027e-02
-5.1670319e-02
-3.1496931e-02
-8.3080864e-03
-1.4384845e-03
-1.8693627e-02
-3.8371811e-02
-3.9145939e-02
-1.4946694e-02
2.1147465e-02
5.0789028e-02
6.5267523e-02
6.8476080e-02
7.6310924e-02
8.8900890e-02
8.2445826e-02
4.8896087e-02
8.1553547e-03
-1.9937268e-02
-3.7003007e-02
-4.4850135e-02
-3.2970098e-02
-8.9087946e-03
7.6695406e-03
1.8759515e-02
2.7218395e-02
2.7075623e-02
3.2682679e-02
5.3414927e-02
7.5836771e-02
8.7110804e-02
8.4398585e-02
7.6062361e-02
7.6824134e-02
8.8923379e-02
8.9910226e-02
6.5664450e-02
2.6193084e-02
-1.8516325e-02
-5.9363408e-02
-8.4169404e-02
-8.7943996e-02
-8.0271437e-02
-7.0634062e-02
-4.9929406e-02
-2.2792203e-02
-5.6322104e-03
4.1936581e-03
1.2624882e-02
2.0826543e-02
2.1409277e-02
5.1081012e-03
-2.8739695e-02
-6.8555478e-02
-9.2901291e-02
-9.9433010e-02
-1.0609105e-01
-1.1768984e-01
-1.1603599e-01
-8.6823366e-02
-5.0246792e-02
-2.4891460e-02
-2.9075472e-03
2.9532578e-02
7.7093169e-02
1.1691745e-01
1.2651086e-01
1.0963433e-01
7.9310307e-02
5.0334896e-02
3.0118028e-02
6.5324087e-03
-2.2441785e-02
-4.0731811e-02
-4.6102366e-02
-4.8269989e-02
-5.3651657e-02
-5.7749456e-02
-4.6799969e-02
-1.5279240e-02
2.8172399e-02
6.1963463e-02
7.0345413e-02
6.6827939e-02
7.0261721e-02
7.7072948e-02
7.3331254e-02
5.9188986e-02
3.7762799e-02
7.8193647e-03
-2.1381165e-02
-4.5990659e-02
-6.9129321e-02
-7.9249166e-02
-8.2201828e-02
-9.9985243e-02
-1.3179202e-01
-1.6704464e-01
-1.7229989e-01
-1.1884490e-01
-2.8600370e-02
5.6330739e-02
1.0916704e-01
1.2903128e-01
1.1973775e-01
7.9823182e-02
2.8866663e-02
-2.6450189e-03
-6.5271313e-03
3.5801673e-03
7.3563487e-03
-3.7046670e-03
-2.4333943e-02
-3.3731887e-02
-1.3345879e-02
2.1663271e-02
4.7891325e-02
5.9023737e-02
5.8099852e-02
4.7713538e-02
9.6895810e-03
-6.6958697e-02
-1.4198881e-01
-1.6433778e-01
-1.2109160e-01
-4.9897604e-02
-1.0102056e-04
2.2334002e-02
3.0388871e-02
3.1910119e-02
2.9752166e-02
2.1492929e-02
1.2725706e-02
1.1937379e-02
2.5079761e-02
4.4251577e-02
4.3568942e-02
1.9305774e-02
-1.0730191e-02
-3.9524046e-02
-4.9337030e-02
-1.6752326e-02
3.9263981e-02
7.4962380e-02
8.1409386e-02
7.9118414e-02
7.1514325e-02
4.3291271e-02
-3.3731030e-03
-4.1287180e-02
-5.7222493e-02
-7.0363058e-02
-8.7823351e-02
-8.5633916e-02
-5.9794574e-02
-3.8183005e-02
-3.2322854e-02
-3.0014504e-02
-2.1273218e-02
-1.3611320e-02
-1.8414640e-02
-3.1314875e-02
-3.2505831e-02
8.3536026e-03
7.9558078e-02
1.2745557e-01
1.2493256e-01
7.7722592e-02
1.1700545e-02
-3.4359875e-02
-4.0100659e-02
-3.0381004e-02
-2.5526437e-02
-9.9969595e-03
1.0807566e-02
2.4915359e-02
3.2401808e-02
2.8586096e-02
2.4022666e-02
2.9704003e-02
4.1543477e-02
5.6696911e-02
8.0270161e-02
1.0885200e-01
1.3527422e-01
1.5318725e-01
1.4445964e-01
1.0699382e-01
5.6387912e-02
5.3763300e-03
-2.5972045e-02
-3.0424652e-02
-1.8872863e-02
1.3229965e-03
2.4608623e-02
4.2155463e-02
4.6877706e-02
4.4321233e-02
3.6010815e-02
9.7938952e-03
-4.3738061e-02
-1.1380873e-01
-1.6792436e-01
-1.9333937e-01
-1.9965125e-01
-1.8534692e-01
-1.5934577e-01
-1.4350702e-01
-1.3317274e-01
-1.1204536e-01
-8.5823244e-02
-5.5823265e-02
-1.5209088e-02
3.5246041e-02
8.0275102e-02
8.3088499e-02
4.3583137e-02
1.1825901e-02
1.6790385e-02
4.2300983e-02
6.2823215e-02
6.4524115e-02
5.5295836e-02
5.1855888e-02
4.4419883e-02
1.9765544e-02
-1.7105398e-02
-4.2325320e-02
-3.5724534e-02
-1.5831625e-02
-6.7824146e-03
1.1442899e-04
1.6019141e-02
2.3674629e-02
2.3350139e-02
3.3511369e-02
4.2898396e-02
3.8910214e-02
3.8874296e-02
5.3279694e-02
5.9754409e-02
4.1718326e-02
7.9109558e-03
-2.3100637e-02
-4.2215721e-02
-4.9866686e-02
-4.5473832e-02
-3.4952962e-02
-2.9792919e-02
-2.7707900e-02
-1.6593455e-02
-8.2006503e-03
-8.3012181e-03
-3.0435019e-03
1.1850218e-02
2.5068920e-02
2.3428129e-02
1.2807776e-02
2.3478803e-03
2.1776368e-03
1.4914987e-02
2.8192672e-02
3.2185304e-02
2.3877552e-02
1.7233889e-02
3.1124807e-02
6.1566542e-02
8.7637713e-02
1.1247861e-01
1.5285840e-01
1.8643117e-01
1.9096242e-01
1.7250506e-01
1.4203806e-01
1.0777495e-01
5.3156444e-02
-2.8141249e-02
-1.0218759e-01
-1.4242068e-01
-1.5397929e-01
-1.5137415e-01
-1.4270177e-01
-1.3008927e-01
-1.0242028e-01
-5.5697491e-02
-6.9155461e-03
2.8033584e-02
3.5592407e-02
5.7868096e-03
-4.0626610e-02
-6.6686469e-02
-6.8537579e-02
-6.3539982e-02
-6.2372784e-02
-6.2951361e-02
-6.7282440e-02
-8.0177095e-02
-8.7914457e-02
-8.5514884e-02
-8.2873164e-02
-7.8015104e-02
-6.2321033e-02
-4.0570214e-02
-2.1357205e-02
1.7505324e-04
2.2349020e-02
3.0449152e-02
2.7156418e-02
1.9662506e-02
7.4330163e-03
-8.0170417e-03
-2.7756346e-02
-4.2649568e-02
-2.4536890e-02
3.0563480e-02
7.2725487e-02
6.7680212e-02
3.8270058e-02
1.3899081e-02
-2.8481746e-04
-3.9156762e-03
-2.1675040e-03
-1.7147109e-04
1.9205135e-02
6.1114763e-02
9.6742749e-02
1.0286999e-01
8.9526788e-02
8.1252645e-02
8.4278879e-02
8.2328841e-02
6.1174666e-02
2.9500152e-02
5.7260739e-03
9.6263199e-04
5.3887077e-03
-7.1529655e-03
-2.9069271e-02
-4.4824059e-02
-6.2674879e-02
-8.0354750e-02
-9.1758278e-02
-9.2688860e-02
-7.5175348e-02
-3.6450232e-02
1.4049090e-02
5.3452020e-02
6.3915672e-02
5.1295494e-02
3.5870109e-02
2.7841007e-02
1.9753415e-02
2.5538156e-03
-2.2531060e-02
-4.4337827e-02
-5.3070613e-02
-5.5673227e-02
-6.3168934e-02
-6.9493588e-02
-6.3396772e-02
-5.1266369e-02
-4.6308851e-02
-4.4659970e-02
-3.8824924e-02
-3.3770123e-02
-3.2822199e-02
-3.1373644e-02
-2.3561547e-02
-1.2141579e-02
-4.7180715e-03
-2.8616205e-03
-1.0800224e-02
-2.9744811e-02
-4.2407155e-02
-4.0542188e-02
-3.6257184e-02
-2.1932074e-02
1.1565706e-02
5.0227728e-02
8.8885936e-02
1.2371059e-01
1.3443599e-01
1.1197150e-01
6.4784080e-02
2.7705292e-06
-5.8244818e-02
-8.3713305e-02
-8.1385715e-02
-4.2821352e-02
2.5484122e-02
6.7859867e-02
6.9114330e-02
5.5249134e-02
4.9234906e-02
5.9273320e-02
6.4236717e-02
5.0278332e-02
3.0708811e-02
2.0613902e-02
2.3357180e-02
3.1500596e-02
3.1183379e-02
1.4356774e-02
-5.7334353e-03
-1.6581016e-02
-3.6182338e-02
-7.1070398e-02
-1.0557369e-01
-1.2776944e-01
-1.2481876e-01
-1.0367669e-01
-8.7692333e-02
-8.1220090e-02
-6.6068456e-02
-3.6597616e-02
-7.0288933e-03
1.0279114e-02
1.8976881e-02
2.9432767e-02
3.7076646e-02
4.4234677e-02
6.0606069e-02
7.8298206e-02
8.3465762e-02
7.4394742e-02
5.6128102e-02
4.1004828e-02
3.0645182e-02
1.8368262e-02
1.1561173e-02
8.5616340e-03
-7.3239449e-03
-4.1744757e-02
-7.9428930e-02
-1.0550462e-01
-1.1528347e-01
-1.0050000e-01
-6.3901191e-02
-1.1009814e-02
5.7161932e-02
1.0629855e-01
1.1080936e-01
8.5444949e-02
6.0853441e-02
5.6295472e-02
5.4506815e-02
4.0229550e-02
1.9276882e-02
-5.2414325e-03
-3.1473946e-02
-5.3369688e-02
-6.4406694e-02
-6.2764691e-02
-4.7499445e-02
-2.4413361e-02
-2.7421331e-03
1.7021546e-02
2.9042454e-02
3.9663697e-02
6.5218869e-02
9.5097946e-02
1.0735932e-01
9.7626833e-02
7.6633314e-02
5.4322691e-02
3.1629085e-02
8.0015773e-03
-1.8197978e-02
-4.5442752e-02
-6.1223598e-02
-6.7030648e-02
-7.7825664e-02
-8.8733806e-02
-8.2107233e-02
-5.7278088e-02
-2.0895287e-02
1.9813583e-02
5.3771306e-02
7.9904640e-02
9.6883521e-02
1.0328457e-01
8.8911617e-02
4.8083580e-02
1.0081803e-02
-2.9899873e-03
-1.4540740e-02
-4.2883702e-02
-6.9384418e-02
-8.4910289e-02
-8.9812338e-02
-8.6096809e-02
-7.3659304e-02
-4.2801993e-02
-1.0481928e-03
3.7678331e-02
6.6669591e-02
8.1460025e-02
8.4194910e-02
7.8116451e-02
7.1546897e-02
6.4967740e-02
3.9316638e-02
-4.2888360e-03
-3.9543785e-02
-5.3357601e-02
-5.6266839e-02
-6.8956079e-02
-8.7332424e-02
-8.9128678e-02
-7.5372553e-02
-5.6879763e-02
-3.1909335e-02
1.0335786e-03
3.1073133e-02
5.5778635e-02
7.6792023e-02
8.2388803e-02
7.3306360e-02
6.6158703e-02
6.1471879e-02
4.4498749e-02
1.0493631e-02
-3.2487209e-02
-6.5937287e-02
-8.2819887e-02
-8.7849687e-02
-8.1306489e-02
-7.2874773e-02
-5.3680075e-02
-1.5356664e-02
1.6248099e-02
3.3847403e-02
5.4627700e-02
8.3762221e-02
1.0666828e-01
1.1173475e-01
1.0455023e-01
8.4149614e-02
4.6886712e-02
3.0334665e-03
-3.3350463e-02
-6.2203537e-02
-8.6498027e-02
-9.8024349e-02
-9.9851119e-02
-9.6882017e-02
-8.4738237e-02
-6.0495896e-02
-3.0566740e-02
-1.1303007e-03
3.5840492e-02
7.1223337e-02
8.1869167e-02
7.4479535e-02
7.5742860e-02
8.5813409e-02
8.0638427e-02
5.4295826e-02
2.5301361e-02
7.4136652e-03
-8.2858780e-03
-2.8976860e-02
-5.2564791e-02
-8.3593619e-02
-1.0852403e-01
-1.0753335e-01
-9.1563636e-02
-6.8324913e-02
-3.0066021e-02
1.2583760e-02
4.4509467e-02
6.0975025e-02
5.9557526e-02
4.7373310e-02
3.8313882e-02
3.3327145e-02
1.4631574e-02
-2.0708475e-02
-5.2775153e-02
-7.6114825e-02
-9.5349403e-02
-1.1419094e-01
-1.3254732e-01
-1.3421354e-01
-1.1193823e-01
-8.0132730e-02
-4.3866382e-02
-3.6321006e-03
3.6826958e-02
7.9866378e-02
1.1719900e-01
1.3612864e-01
1.3959779e-01
1.3906607e-01
1.3404300e-01
1.1699711e-01
7.8137627e-02
6.5621045e-03
-8.6586539e-02
-1.6186854e-01
-1.8590322e-01
-1.5963651e-01
-1.0294869e-01
-3.3286993e-02
3.7946681e-02
9.3156823e-02
1.1336998e-01
1.0037757e-01
7.5514308e-02
6.2021209e-02
6.6508853e-02
7.6329101e-02
7.6943424e-02
6.4909406e-02
5.4879211e-02
4.9841732e-02
2.8980192e-02
-1.1694167e-02
-6.0306414e-02
-1.0323075e-01
-1.2344661e-01
-1.1287637e-01
-8.0883542e-02
-3.7626050e-02
9.7809887e-03
4.3753613e-02
5.3144609e-02
5.2893928e-02
6.2275310e-02
7.6646165e-02
8.1969825e-02
7.3951403e-02
5.7351625e-02
4.0128153e-02
2.7292254e-02
1.0710144e-02
-2.6583178e-02
-7.7725043e-02
-1.1459135e-01
-1.2268114e-01
-1.1299763e-01
-9.9855299e-02
-7.5400033e-02
-3.8242677e-02
1.0669066e-03
4.4228875e-02
8.2610114e-02
1.0566639e-01
1.1369599e-01
1.0529998e-01
8.5884954e-02
6.0784184e-02
3.0244067e-02
-1.3118360e-02
-6.9877654e-02
-1.2472487e-01
-1.7814627e-01
-2.3558698e-01
-2.7965370e-01
-2.9553707e-01
-3.0229389e-01
-3.0169444e-01
-2.5050854e-01
-1.0978787e-01
8.0557422e-02
2.2201419e-01
2.8036170e-01
2.8134487e-01
2.5852482e-01
2.2780708e-01
1.9283402e-01
1.6252931e-01
1.3171203e-01
9.1179432e-02
4.4971603e-02
8.8177360e-04
-3.7843841e-02
-6.6739693e-02
-6.7084769e-02
-1.2769055e-02
7.6695014e-02
1.5720980e-01
2.3326727e-01
3.1647737e-01
3.8400922e-01
4.1906665e-01
4.0863628e-01
3.3412216e-01
1.5879987e-01
-7.9914345e-02
-2.3970529e-01
-2.8662772e-01
-2.8751113e-01
-2.7390835e-01
-2.5031980e-01
-2.2667259e-01
-2.1428161e-01
-2.0176634e-01
-1.7329711e-01
-1.3329024e-01
-1.0442271e-01
-8.6679050e-02
-6.0618161e-02
-3.2719738e-02
-9.9994802e-04
4.2440556e-02
7.3202385e-02
8.2908028e-02
8.9722994e-02
8.8579682e-02
4.3039723e-02
-6.1019874e-02
-1.6442922e-01
-1.9191080e-01
-1.4520448e-01
-8.1514293e-02
-2.9141934e-02
1.4505876e-02
4.4004390e-02
4.6552019e-02
2.6252107e-02
-8.4121729e-04
-2.2758172e-02
-1.6181959e-02
2.9635292e-02
8.0913369e-02
9.9833176e-02
8.8005933e-02
5.8520096e-02
1.7931318e-02
-2.9950095e-02
-8.1746405e-02
-1.1429535e-01
-1.1470052e-01
-1.0841951e-01
-1.2548723e-01
-1.6988286e-01
-2.0191797e-01
-1.6655171e-01
-7.7880329e-02
-8.9278219e-03
1.4095787e-02
3.2960708e-02
8.5377901e-02
1.5903187e-01
2.1651822e-01
2.3753947e-01
2.3014352e-01
2.0436231e-01
1.6712537e-01
1.2965299e-01
8.3792125e-02
1.4577071e-02
-7.0432477e-02
-1.5025463e-01
-2.0876169e-01
-2.2598484e-01
-1.9854801e-01
-1.5788531e-01
-1.2471541e-01
-1.0682090e-01
-9.9337067e-02
-6.8466041e-02
1.0954055e-02
1.1042978e-01
1.7059906e-01
1.7394398e-01
1.4929366e-01
1.2982986e-01
1.2709004e-01
1.2406362e-01
1.0963510e-01
9.3966289e-02
8.2292693e-02
7.2921138e-02
4.7651841e-02
-4.2946373e-03
-5.8031898e-02
-9.9598528e-02
-1.3484133e-01
-1.6043868e-01
-1.7208890e-01
-1.6404133e-01
-1.1964643e-01
-5.3607727e-02
-3.6160244e-03
2.4422179e-02
5.0699400e-02
9.6011587e-02
1.4927385e-01
1.7704594e-01
1.6020959e-01
1.0871012e-01
6.0325388e-02
2.8075685e-02
-5.3086672e-03
-3.5690166e-02
-4.5383487e-02
-4.1639002e-02
-4.4951349e-02
-5.1843992e-02
-5.3303115e-02
-4.4423951e-02
-2.0687015e-02
1.1304695e-02
3.7872551e-02
5.0285270e-02
7.3482922e-02
1.1817671e-01
1.5306435e-01
1.5979338e-01
1.4440833e-01
1.2224504e-01
8.8029264e-02
3.6794065e-02
-1.5518444e-02
-6.8104344e-02
-1.2373785e-01
-1.6367618e-01
-1.7033323e-01
-1.6470242e-01
-1.6733040e-01
-1.5968797e-01
-1.3190004e-01
-8.8933206e-02
-3.6468288e-02
1.0392044e-02
3.8144132e-02
4.8359401e-02
4.5198755e-02
2.0240059e-02
-2.4271953e-02
-6.8524879e-02
-9.9073430e-02
-1.2075563e-01
-1.4112058e-01
-1.5182373e-01
-1.3206621e-01
-6.1652477e-02
3.7149732e-02
9.9098252e-02
1.1239731e-01
1.2309355e-01
1.4733479e-01
1.6439103e-01
1.5767265e-01
1.3614616e-01
1.1603488e-01
9.0066799e-02
4.3848742e-02
-1.0362501e-02
-5.0210652e-02
-6.7642320e-02
-6.3688287e-02
-4.1353106e-02
-1.0030854e-02
8.9331056e-03
9.3621569e-03
1.3954102e-02
3.1376383e-02
4.6375217e-02
5.2535777e-02
5.0618281e-02
2.9360144e-02
-7.1348750e-03
-3.0616303e-02
-3.9564568e-02
-4.5424868e-02
-3.9427417e-02
-2.4172769e-02
-1.9773449e-02
-3.2595375e-02
-4.7224146e-02
-5.3497459e-02
-6.0824499e-02
-7.0710480e-02
-7.1121477e-02
-5.7269685e-02
-3.5806865e-02
-1.6668099e-02
-4.8354946e-03
8.7967532e-03
3.7452950e-02
7.5170703e-02
1.0167447e-01
1.0297798e-01
9.0191547e-02
8.1745211e-02
7.0294217e-02
4.2659479e-02
6.1474184e-03
-2.9513853e-02
-6.2237186e-02
-8.7679048e-02
-1.0691929e-01
-1.2313253e-01
-1.3101276e-01
-1.2031449e-01
-8.6064394e-02
-3.7691144e-02
3.4361432e-03
2.8689218e-02
5.2828110e-02
7.9509920e-02
9.0801456e-02
8.1238765e-02
7.1807658e-02
6.9992940e-02
6.3329972e-02
4.3080450e-02
7.7562893e-03
-2.5534512e-02
-3.8577701e-02
-4.1227962e-02
-5.6142887e-02
-7.2807810e-02
-6.9253665e-02
-4.7863803e-02
-1.3361940e-02
2.3435390e-02
4.4917794e-02
4.7252743e-02
4.8355782e-02
5.7994553e-02
5.5091225e-02
3.1080605e-02
5.4157836e-03
-1.0541742e-02
-2.4896176e-02
-4.6657859e-02
-7.2894043e-02
-8.7331109e-02
-7.6590934e-02
-5.3804073e-02
-4.6083513e-02
-4.6077098e-02
-2.6592542e-02
5.6449388e-03
3.7695953e-02
5.4812309e-02
3.9117766e-02
4.7687101e-03
-2.3899831e-02
-3.4314572e-02
-3.1376198e-02
-2.1159205e-02
1.2191945e-02
6.7574234e-02
1.1001797e-01
1.1461565e-01
8.9485013e-02
6.4369883e-02
4.8932200e-02
2.9844384e-02
2.9031126e-03
-2.7686806e-02
-5.0117850e-02
-5.4920772e-02
-4.1452959e-02
-1.1317441e-02
3.2192520e-02
8.3513622e-02
1.2487038e-01
1.2884836e-01
1.0181275e-01
8.2129663e-02
7.9346432e-02
6.9273548e-02
4.1920367e-02
1.2916235e-02
-1.1086984e-02
-2.6067318e-02
-2.8905104e-02
-3.1055072e-02
-3.3881372e-02
-3.5082564e-02
-3.6236408e-02
-3.7741900e-02
-5.2814794e-02
-9.0917798e-02
-1.2782988e-01
-1.3164334e-01
-1.0065378e-01
-4.6862295e-02
1.2587765e-02
5.1768161e-02
6.3273661e-02
6.5365610e-02
7.0856239e-02
6.8791466e-02
5.2650594e-02
4.4522275e-02
5.9750580e-02
7.4789167e-02
6.2552526e-02
3.2305884e-02
1.0794820e-02
-7.5061748e-04
-2.0706099e-02
-4.9899367e-02
-7.0758451e-02
-7.4897362e-02
-8.1202608e-02
-9.5475519e-02
-9.5824264e-02
-8.5554737e-02
-7.1036018e-02
-3.7793990e-02
5.5660059e-03
3.7239423e-02
6.1584371e-02
9.3666989e-02
1.2419879e-01
1.3170290e-01
1.1142076e-01
8.0593994e-02
5.2333518e-02
2.1626209e-02
-1.2985541e-02
-4.6674491e-02
-7.7664925e-02
-1.0369121e-01
-1.1754784e-01
-1.2499998e-01
-1.3818314e-01
-1.4161226e-01
-1.1100984e-01
-5.8249461e-02
-1.5111154e-02
1.0882306e-02
3.4746095e-02
6.2437312e-02
8.4295367e-02
9.2551584e-02
8.7087678e-02
7.3033539e-02
5.8087375e-02
5.1757839e-02
4.3359575e-02
1.6346952e-02
-6.9835410e-03
-6.6782191e-03
3.0699402e-03
6.2146502e-03
-4.8494325e-03
-2.8321236e-02
-5.3876139e-02
-7.3005402e-02
-7.9744051e-02
-7.4043738e-02
-6.3426684e-02
-4.5172371e-02
-1.4233147e-02
1.8654576e-02
3.3794920e-02
2.5088898e-02
1.0691602e-02
-2.1374941e-03
-1.6948877e-02
-3.0687583e-02
-4.0179057e-02
-3.8751924e-02
-3.3006812e-02
-2.4602252e-02
-1.1019733e-02
-1.0070098e-02
-2.4175255e-02
-3.7948520e-02
-4.9218560e-02
-6.8332181e-02
-8.9764774e-02
-9.2044183e-02
-6.2316896e-02
-1.0202053e-02
3.3816440e-02
6.1813490e-02
9.3501160e-02
1.3062108e-01
1.5482956e-01
1.5398333e-01
1.3029931e-01
9.7038613e-02
6.9061006e-02
4.2861802e-02
1.4800485e-02
-1.1209606e-03
-5.7920116e-04
2.3499567e-04
-1.8517046e-02
-5.5043661e-02
-8.7685978e-02
-1.0518418e-01
-1.0361434e-01
-8.1481699e-02
-5.1577020e-02
-2.0942430e-02
1.5116315e-02
5.0757121e-02
7.2854604e-02
8.8290410e-02
1.1341189e-01
1.3571475e-01
1.2466234e-01
8.3073482e-02
3.9218551e-02
5.3752630e-03
-1.5346968e-02
-2.8502832e-02
-4.4010666e-02
-6.5839714e-02
-9.5529356e-02
-1.2319024e-01
-1.3221573e-01
-1.1932841e-01
-9.2000390e-02
-5.4018988e-02
-1.5534065e-02
1.0614793e-02
2.8179516e-02
4.6903730e-02
7.0615735e-02
9.3897856e-02
1.0248309e-01
8.8515122e-02
6.6884263e-02
5.8181755e-02
5.6097987e-02
4.3449489e-02
3.0653150e-02
3.6392241e-02
4.5007719e-02
4.0749627e-02
3.5732708e-02
3.0635464e-02
1.8622951e-02
7.1606364e-03
