7.6359151e-04
6.7405284e-03
1.0596664e-02
1.2992630e-02
1.4893169e-02
1.7429687e-02
2.1325382e-02
2.4468473e-02
2.4102692e-02
2.2147128e-02
2.0508064e-02
1.5889713e-02
6.9195916e-03
-3.7447953e-03
-1.3877867e-02
-2.2370780e-02
-2.9177404e-02
-3.5889933e-02
-4.3230114e-02
-4.8598148e-02
-5.0207204e-02
-4.9675507e-02
-4.7755009e-02
-4.0628694e-02
-2.0454175e-02
9.3360032e-03
3.2196409e-02
4.1348406e-02
4.0237843e-02
3.4294104e-02
2.7641175e-02
2.1155707e-02
1.5750206e-02
1.0903318e-02
7.0310124e-03
6.2721773e-03
8.1206390e-03
8.7473893e-03
7.0789103e-03
7.7152842e-03
1.3607669e-02
2.2703050e-02
3.1849927e-02
3.9577771e-02
4.6762907e-02
5.3734105e-02
5.8055328e-02
5.6715695e-02
4.5668605e-02
1.8596733e-02
-1.7189327e-02
-4.1386145e-02
-5.0886398e-02
-5.3166583e-02
-4.8413962e-02
-3.7916816e-02
-2.8318796e-02
-2.3657238e-02
-2.0993463e-02
-1.7313577e-02
-1.2724401e-02
-7.8844546e-03
-2.7551348e-03
2.7056043e-03
8.1295951e-03
1.2604814e-02
1.4582715e-02
1.2348620e-02
5.1502825e-03
-4.6767268e-03
-1.3081166e-02
-1.8616480e-02
-2.2894836e-02
-2.5177126e-02
-2.0526101e-02
-9.6300019e-03
4.5409126e-04
6.8288556e-03
1.0614364e-02
1.3407375e-02
1.6580672e-02
2.0106574e-02
2.3183128e-02
2.4966966e-02
2.4128905e-02
1.9380095e-02
1.0039440e-02
-2.3668437e-03
-1.4569311e-02
-2.3797623e-02
-2.9361300e-02
-3.3690859e-02
-3.8329723e-02
-4.3107653e-02
-4.7202137e-02
-4.8820212e-02
-4.6894839e-02
-4.1646521e-02
-3.1906400e-02
-1.1624795e-02
1.5132864e-02
3.4234049e-02
4.2664552e-02
4.3266043e-02
3.8767330e-02
3.1608996e-02
2.2467271e-02
1.2985044e-02
5.3992133e-03
1.0732253e-03
-2.7182722e-04
7.8857662e-04
1.5182605e-03
1.4036299e-03
4.0651425e-03
1.0365405e-02
1.7981019e-02
2.4782650e-02
3.2138436e-02
4.1504328e-02
5.0879339e-02
5.6188193e-02
5.3286138e-02
4.0277364e-02
1.5791466e-02
-1.2679429e-02
-3.1623387e-02
-4.0539565e-02
-4.4497389e-02
-4.3035720e-02
-3.6875373e-02
-3.0274913e-02
-2.5577362e-02
-1.9959384e-02
-1.0258093e-02
1.2872064e-03
9.5059060e-03
1.1717175e-02
9.6648895e-03
4.4732549e-03
-4.7029528e-03
-1.7398309e-02
-3.2519906e-02
-4.6574461e-02
-5.6414589e-02
-6.2636011e-02
-6.6753047e-02
-6.8393343e-02
-6.1651887e-02
-3.5614710e-02
3.5351567e-03
3.0809280e-02
3.9583853e-02
4.1067745e-02
4.0319106e-02
3.8213052e-02
3.7214431e-02
3.6509569e-02
3.2371356e-02
2.5231071e-02
1.8480691e-02
1.4129414e-02
1.1864322e-02
1.2241318e-02
1.6961587e-02
2.4448811e-02
3.0241045e-02
3.2013147e-02
3.1395909e-02
3.2371782e-02
3.7736174e-02
4.5611512e-02
5.1178880e-02
4.9340568e-02
3.3944526e-02
8.7658387e-03
-1.2049256e-02
-2.6235765e-02
-3.7902642e-02
-4.5260659e-02
-4.7905831e-02
-4.6570873e-02
-4.0854187e-02
-3.3393352e-02
-2.7106259e-02
-2.1058486e-02
-1.5420459e-02
-1.1776924e-02
-8.4691383e-03
-2.3431513e-03
5.1460034e-03
1.0487654e-02
1.4319460e-02
1.8769907e-02
2.3154610e-02
2.4778287e-02
2.2004272e-02
1.5457800e-02
7.2064526e-03
-2.8102251e-03
-1.3907709e-02
-2.1559230e-02
-2.4756049e-02
-2.4926788e-02
-2.1159052e-02
-1.5075042e-02
-1.0723764e-02
-8.6950482e-03
-6.6682740e-03
-2.5317389e-03
3.9424256e-03
9.5364603e-03
1.1584008e-02
1.1167737e-02
1.0818826e-02
1.0584667e-02
6.2504204e-03
-2.5554239e-03
-1.1299745e-02
-1.7241785e-02
-2.0556622e-02
-2.3201150e-02
-2.4587896e-02
-2.1343398e-02
-1.2431943e-02
-1.6120683e-03
7.3233417e-03
1.2672692e-02
1.4797299e-02
1.7279040e-02
2.0197874e-02
2.0272989e-02
1.7768121e-02
1.4626266e-02
1.1371867e-02
8.0880510e-03
4.0915751e-03
-1.4469865e-03
-6.9962233e-03
-1.0152958e-02
-1.1955338e-02
-1.4491259e-02
-1.6880424e-02
-1.7104097e-02
-1.4655218e-02
-1.1319885e-02
-8.3266563e-03
-5.3039474e-03
-1.4152749e-03
4.9523807e-03
1.3147269e-02
1.9627621e-02
2.2024283e-02
2.0552629e-02
1.6460277e-02
1.1305066e-02
5.6367995e-03
-2.3175731e-03
-1.0537522e-02
-1.3722793e-02
-1.2360968e-02
-1.1468450e-02
-1.3386953e-02
-1.5759760e-02
-1.4663893e-02
-8.9524785e-03
-1.3534925e-03
5.2947325e-03
1.1048448e-02
1.6097636e-02
1.7965875e-02
1.4711011e-02
7.3446414e-03
-5.1119579e-04
-3.3707034e-03
-1.3222587e-03
-1.0205488e-03
-4.0175490e-03
-6.4456437e-03
-6.8333438e-03
-6.0284912e-03
-5.3966351e-03
-5.5184493e-03
-5.3199561e-03
-3.4188510e-03
1.1410982e-03
6.1988749e-03
9.3772767e-03
1.2848966e-02
1.7137144e-02
1.9489145e-02
1.7814005e-02
1.1855372e-02
4.0742984e-03
-3.1637109e-03
-1.0078084e-02
-1.6534492e-02
-2.0795480e-02
-2.0410690e-02
-1.4486125e-02
-6.5554431e-03
-8.2793039e-04
1.5417417e-03
2.2800243e-03
4.4498152e-03
9.0154699e-03
1.3394431e-02
1.5239563e-02
1.5268434e-02
1.4591452e-02
1.1802302e-02
5.8123775e-03
-2.0119096e-03
-1.0825539e-02
-1.7900071e-02
-1.9635833e-02
-1.7900356e-02
-1.5786845e-02
-1.4300989e-02
-1.3517177e-02
-1.1771319e-02
-8.9053942e-03
-6.7783100e-03
-4.7153687e-03
6.5106272e-04
8.9911058e-03
1.5216467e-02
1.7224417e-02
1.6696456e-02
1.4212286e-02
1.0085373e-02
4.6244930e-03
-2.5329728e-03
-9.0649723e-03
-1.2263855e-02
-1.3076857e-02
-1.3130164e-02
-1.1863739e-02
-8.8410420e-03
-5.1056094e-03
-1.4084509e-04
6.3920106e-03
1.1914286e-02
1.4703848e-02
1.7513459e-02
2.3119678e-02
2.7660129e-02
2.6684616e-02
2.1197550e-02
1.3195665e-02
5.6019484e-03
7.4533708e-04
-3.1100468e-03
-7.0533546e-03
-9.6089161e-03
-9.8733662e-03
-9.5177139e-03
-1.0882507e-02
-1.2191306e-02
-9.7402867e-03
-4.8129057e-03
-6.5324908e-04
1.8811840e-03
2.6703652e-03
3.5807586e-03
5.4560600e-03
5.2788929e-03
7.9169748e-04
-7.5346395e-03
-1.6385218e-02
-2.2734778e-02
-2.8905660e-02
-3.5656486e-02
-3.7135751e-02
-2.7676049e-02
-1.1276705e-02
1.2351282e-03
6.5509407e-03
7.4343622e-03
7.4913463e-03
8.9231558e-03
1.0587186e-02
1.2610365e-02
1.5689943e-02
1.8690106e-02
2.0787832e-02
2.2039247e-02
1.9949873e-02
1.3567249e-02
7.4189468e-03
4.6449754e-03
5.2498745e-03
7.7024212e-03
9.6457375e-03
1.1376639e-02
1.5000962e-02
2.0385608e-02
2.3400462e-02
2.0199042e-02
8.9974535e-03
-5.7637099e-03
-1.3779121e-02
-1.4244388e-02
-1.1780445e-02
-6.3909793e-03
3.2433745e-04
4.0291597e-03
2.6670695e-03
-2.7248833e-03
-8.3688614e-03
-1.1200681e-02
-1.3591777e-02
-1.7860924e-02
-2.1812858e-02
-2.2302448e-02
-1.8041428e-02
-1.1782805e-02
-7.3507784e-03
-5.3186751e-03
-4.0174641e-03
-1.3507432e-03
2.7984075e-03
7.4872102e-03
1.2520145e-02
1.7634912e-02
2.2234539e-02
2.4414125e-02
2.2216002e-02
1.5576165e-02
6.6853350e-03
-9.8195304e-04
-7.1175510e-03
-1.2918276e-02
-1.7703264e-02
-2.0532616e-02
-2.0005393e-02
-1.6477774e-02
-1.2620228e-02
-8.8243468e-03
-4.0096873e-03
2.5612680e-03
9.3426374e-03
1.2964360e-02
1.4438602e-02
1.6073522e-02
1.7726227e-02
1.8699020e-02
1.7108068e-02
1.2199952e-02
5.3158411e-03
-2.6578967e-03
-1.0571720e-02
-1.6681247e-02
-2.0454789e-02
-2.0989387e-02
-1.7256568e-02
-1.2532510e-02
-1.0941905e-02
-1.2081301e-02
-1.3186783e-02
-1.2129685e-02
-7.7192431e-03
-1.0059106e-03
4.7179098e-03
9.3956370e-03
1.5286657e-02
2.1871169e-02
2.6165087e-02
2.5633741e-02
2.0842092e-02
1.4855278e-02
9.4751756e-03
3.4400294e-03
-4.3064859e-03
-1.2849786e-02
-1.8456592e-02
-1.8541217e-02
-1.6183178e-02
-1.4704642e-02
-1.3718942e-02
-1.0980430e-02
-6.3017700e-03
-1.5948724e-03
2.9433081e-03
7.1679581e-03
1.1010664e-02
1.4713712e-02
1.4834198e-02
1.0185275e-02
4.3894120e-03
-7.1468969e-04
-4.4313274e-03
-7.8091313e-03
-1.2731720e-02
-1.7136832e-02
-1.7331955e-02
-1.4208183e-02
-1.1990737e-02
-1.1222465e-02
-8.4651626e-03
-1.1510328e-03
7.8018696e-03
1.4035768e-02
1.6377409e-02
1.6438108e-02
1.7671431e-02
1.9749788e-02
1.8791401e-02
1.3733510e-02
7.2098249e-03
1.4067375e-03
-4.0325803e-03
-1.0595045e-02
-1.7050479e-02
-1.9618265e-02
-1.7488814e-02
-1.2997979e-02
-7.9546817e-03
-3.4183651e-03
-8.3488584e-05
2.7141674e-03
4.8895706e-03
5.8689195e-03
6.4160451e-03
6.9907065e-03
9.0653399e-03
1.2294983e-02
1.3495261e-02
1.0940681e-02
5.0294003e-03
-9.1546470e-04
-4.7101522e-03
-7.8847347e-03
-1.1939945e-02
-1.5843145e-02
-1.7188745e-02
-1.5610469e-02
-1.3470897e-02
-1.2282317e-02
-1.1246323e-02
-9.3629630e-03
-6.0987030e-03
-1.6091624e-03
2.6987476e-03
5.6939975e-03
7.9410021e-03
9.1629977e-03
8.0763124e-03
5.6801569e-03
6.8799019e-03
1.3083202e-02
1.7917602e-02
1.6340810e-02
8.3195811e-03
-9.9144694e-04
-5.2784854e-03
-5.6782483e-03
-6.8355548e-03
-9.1497627e-03
-1.1553528e-02
-1.2409656e-02
-8.9638837e-03
-2.6811754e-03
2.5386731e-03
6.1596831e-03
1.0654192e-02
1.6617086e-02
2.0791029e-02
1.9443447e-02
1.3380757e-02
6.7294513e-03
-4.7436143e-04
-9.5521656e-03
-1.7939203e-02
-2.2081662e-02
-2.1669888e-02
-1.9018396e-02
-1.7211863e-02
-1.8225327e-02
-1.9467945e-02
-1.8489200e-02
-1.5318314e-02
-9.4341666e-03
2.9610113e-04
1.3627697e-02
2.7308713e-02
3.9600410e-02
4.9856414e-02
5.6296940e-02
6.0287558e-02
6.6021601e-02
7.4149926e-02
8.0864790e-02
8.5344376e-02
8.9043451e-02
9.3201866e-02
9.6454613e-02
9.2542068e-02
7.3234204e-02
2.3481621e-02
-4.4688899e-02
-8.8512852e-02
-9.9011489e-02
-9.2331667e-02
-7.7172553e-02
-6.0188595e-02
-4.5323482e-02
-3.3954269e-02
-2.5795548e-02
-2.0423331e-02
-1.8272292e-02
-1.9284174e-02
-2.2827788e-02
-2.8095865e-02
-3.3112810e-02
-3.6157107e-02
-3.9131223e-02
-4.5824806e-02
-5.6458192e-02
-6.5265327e-02
-6.6206646e-02
-6.0092819e-02
-4.9880180e-02
-3.4367905e-02
-5.6550559e-03
3.4151352e-02
6.3554008e-02
7.2498811e-02
6.7731928e-02
5.6681765e-02
4.3657629e-02
2.8896127e-02
1.2334359e-02
-4.3551944e-03
-1.7465500e-02
-2.4072431e-02
-2.3955283e-02
-2.0892977e-02
-1.9075896e-02
-1.8592563e-02
-1.9873741e-02
-2.4533727e-02
-3.2619690e-02
-4.1900264e-02
-5.0977070e-02
-5.9847413e-02
-6.6590172e-02
-6.9481080e-02
-6.1385434e-02
-2.5722778e-02
2.7265554e-02
5.9664076e-02
6.4154063e-02
5.7710816e-02
4.8749279e-02
3.9617369e-02
3.1430998e-02
2.4141647e-02
1.6668249e-02
1.1123567e-02
1.0367311e-02
1.2902887e-02
1.4949091e-02
1.5086125e-02
1.5170629e-02
1.7067528e-02
1.8872054e-02
1.8025965e-02
1.4298040e-02
9.0844847e-03
5.7744124e-03
4.9975385e-03
3.2118696e-03
-1.3335546e-03
-7.8529396e-03
-1.3593304e-02
-1.5896771e-02
-1.5651900e-02
-1.4027264e-02
-1.1258685e-02
-6.9569781e-03
-1.1119565e-03
4.1786579e-03
7.4070229e-03
1.0252429e-02
1.4600967e-02
1.8140723e-02
1.7436138e-02
1.2213261e-02
5.5373074e-03
-1.2850833e-04
-4.8589223e-03
-9.4442223e-03
-1.3878707e-02
-1.5883304e-02
-1.4504109e-02
-1.1791230e-02
-9.3887250e-03
-6.9470852e-03
-2.5514508e-03
4.6291442e-03
1.1583023e-02
1.5575388e-02
1.6700934e-02
1.5780073e-02
1.4510332e-02
1.2785452e-02
9.4412051e-03
5.1613031e-03
5.8446967e-04
-4.3551399e-03
-9.8039584e-03
-1.6161000e-02
-2.3435275e-02
-2.8489621e-02
-2.7499882e-02
-2.1533376e-02
-1.4357536e-02
-8.8925643e-03
-4.7387436e-03
6.1117331e-04
7.0747302e-03
1.2174543e-02
1.4768270e-02
1.5579164e-02
1.4747976e-02
1.2849399e-02
1.0102977e-02
5.2119727e-03
-5.6945866e-04
-3.7875503e-03
-5.8444021e-03
-9.5064396e-03
-1.2449391e-02
-1.2878372e-02
-1.0834652e-02
-7.2369729e-03
-4.4836128e-03
-9.0072539e-04
7.9975066e-03
2.0104855e-02
2.7673916e-02
2.7951346e-02
2.4460311e-02
2.0884236e-02
1.8880394e-02
1.6698352e-02
1.1065350e-02
2.3967461e-03
-6.2274663e-03
-1.3507549e-02
-1.9766309e-02
-2.4222464e-02
-2.6267319e-02
-2.6041027e-02
-2.2329437e-02
-1.6112046e-02
-1.0603589e-02
-7.0428827e-03
-5.5278097e-03
-4.4784334e-03
-1.4996158e-03
3.0986004e-03
9.3852302e-03
1.8422613e-02
2.7220547e-02
3.1375649e-02
2.9841525e-02
2.3338165e-02
1.4960594e-02
8.2607389e-03
1.8206472e-03
-6.6434135e-03
-1.5321009e-02
-2.1924305e-02
-2.5233758e-02
-2.3737212e-02
-1.8573352e-02
-1.0954776e-02
5.7776701e-04
1.3726377e-02
2.1188022e-02
1.9867084e-02
1.4122938e-02
7.2443169e-03
-7.3027713e-04
-8.7933134e-03
-1.4928176e-02
-1.7329174e-02
-1.5819553e-02
-1.2694181e-02
-9.9300443e-03
-7.0746562e-03
-2.1375418e-03
6.8826888e-03
1.8235520e-02
2.6772683e-02
2.9947774e-02
2.7381407e-02
1.8722205e-02
8.8970497e-03
4.5992683e-03
4.4242246e-03
4.2491004e-03
3.2894553e-03
-3.1882897e-04
-6.5982345e-03
-1.1811620e-02
-1.5039526e-02
-1.6266854e-02
-1.5033564e-02
-1.3037874e-02
-1.0751581e-02
-6.7474660e-03
5.6442908e-04
1.1288291e-02
2.2564922e-02
3.2112246e-02
4.1382401e-02
5.3149958e-02
6.7154656e-02
7.7661814e-02
7.7654632e-02
6.3560162e-02
2.9433024e-02
-1.7146483e-02
-5.1553521e-02
-6.7758588e-02
-7.2446807e-02
-6.6997270e-02
-5.6826327e-02
-4.9488745e-02
-4.5431388e-02
-4.0368339e-02
-3.2056177e-02
-2.1481710e-02
-1.1671732e-02
-4.9722170e-03
-1.3728761e-03
1.1003002e-03
4.1648710e-03
7.5402563e-03
1.0334940e-02
1.1973299e-02
1.2025431e-02
1.0028608e-02
4.7323070e-03
-2.9658763e-03
-8.8085874e-03
-1.0128558e-02
-8.1436057e-03
-5.5646983e-03
-4.0099185e-03
-2.2285764e-03
1.8530381e-03
6.7699188e-03
9.1488981e-03
8.8167460e-03
8.7213563e-03
1.0595266e-02
1.2366167e-02
1.2268827e-02
9.4782964e-03
2.8949789e-03
-5.6928290e-03
-1.6319757e-02
-3.0716334e-02
-4.6256094e-02
-5.8747604e-02
-6.7779591e-02
-7.5434909e-02
-8.3178494e-02
-8.8473028e-02
-8.1204212e-02
-4.7399806e-02
3.9047077e-03
4.1170981e-02
5.6971807e-02
6.4588663e-02
6.9500502e-02
6.9840198e-02
6.2774994e-02
4.8957405e-02
3.1416871e-02
1.4002570e-02
6.9926903e-05
-9.5096593e-03
-1.4430233e-02
-1.4040889e-02
-9.2634816e-03
-3.1493528e-03
-5.9959600e-04
-2.4860251e-03
-4.8712744e-03
-6.8408997e-03
-1.0330077e-02
-1.4400513e-02
-1.5210053e-02
-9.2410808e-03
5.1920103e-03
2.2181423e-02
3.2248305e-02
3.4915378e-02
3.3400570e-02
2.8759987e-02
2.2206177e-02
1.3843238e-02
5.0144373e-03
-1.0200550e-03
-3.3897426e-03
-4.0687552e-03
-5.1733193e-03
-5.4157551e-03
-2.1950987e-03
2.9246715e-03
7.2268395e-03
1.0587369e-02
1.5261946e-02
2.2671871e-02
2.9748064e-02
3.2281734e-02
2.9704584e-02
2.4455769e-02
1.6399786e-02
1.4803920e-03
-1.9162871e-02
-3.6815145e-02
-4.5864183e-02
-4.7811160e-02
-4.5885643e-02
-4.2500004e-02
-3.7170158e-02
-2.6746184e-02
-1.2158262e-02
1.2056554e-03
9.6917381e-03
1.4983617e-02
2.1314132e-02
2.8648137e-02
3.2838381e-02
3.3059162e-02
3.1670589e-02
3.0268846e-02
3.0265618e-02
3.1017795e-02
3.1158643e-02
3.0460368e-02
2.8766931e-02
2.4490323e-02
1.0164535e-02
-1.3367207e-02
-3.0971571e-02
-3.6795321e-02
-3.6058786e-02
-3.2811546e-02
-2.8357969e-02
-2.2917693e-02
-1.8558286e-02
-1.7015911e-02
-1.7663482e-02
-1.8950830e-02
-1.9491688e-02
-1.8523153e-02
-1.6488698e-02
-1.6137959e-02
-1.9009710e-02
-2.3125341e-02
-2.7205839e-02
-3.2978713e-02
-4.2096210e-02
-5.3227698e-02
-6.1819588e-02
-6.2927881e-02
-5.3109792e-02
-2.5823191e-02
1.1715250e-02
3.7015143e-02
4.5935605e-02
4.6603546e-02
4.1923574e-02
3.5629490e-02
3.2141657e-02
3.1245043e-02
3.0176992e-02
2.6997604e-02
2.0728674e-02
1.4888716e-02
1.3713872e-02
1.5879795e-02
1.7956285e-02
1.9375059e-02
2.0685439e-02
2.1669649e-02
2.2157392e-02
2.0814313e-02
1.6389796e-02
1.0011231e-02
3.7807985e-03
-1.9416882e-03
-6.2792675e-03
-7.8737191e-03
-8.6637134e-03
-1.0029736e-02
-1.0616346e-02
-9.8104574e-03
-7.8990292e-03
-5.4668525e-03
-3.7542639e-03
-3.3470919e-03
-2.9217301e-03
-5.3501946e-04
3.2698110e-03
6.2254743e-03
7.3497882e-03
6.5786634e-03
4.1515534e-03
1.5046135e-03
7.5724320e-04
2.2797009e-03
4.7627858e-03
7.7630776e-03
1.1659952e-02
1.6126800e-02
1.7023052e-02
9.0031198e-03
-4.2639592e-03
-1.4306517e-02
-1.9135893e-02
-2.1099350e-02
-2.1346983e-02
-1.8012420e-02
-1.0405846e-02
-1.9502704e-03
3.8448134e-03
6.2726263e-03
8.0615432e-03
1.0579134e-02
1.1231157e-02
8.6587208e-03
3.7868850e-03
-1.0733966e-03
-2.9561024e-03
-1.7926284e-03
-1.0660861e-04
1.1638625e-03
3.1992942e-03
6.2986915e-03
9.4565224e-03
1.0481833e-02
8.6604599e-03
7.4986690e-03
1.1444670e-02
1.9454606e-02
2.5953173e-02
2.9137973e-02
2.9630973e-02
2.5027940e-02
1.2197936e-02
-6.8525831e-03
-2.5789281e-02
-3.9399516e-02
-4.5856690e-02
-4.8201763e-02
-4.9706478e-02
-4.9257589e-02
-4.5591501e-02
-3.9833657e-02
-3.4676898e-02
-3.0759297e-02
-2.6560063e-02
-2.1419384e-02
-1.5730260e-02
-1.2060439e-02
-8.5584250e-03
5.2302951e-03
2.7186790e-02
3.8985452e-02
3.6378315e-02
2.9986048e-02
2.5429066e-02
2.2398154e-02
1.9964813e-02
1.7542621e-02
1.4168454e-02
1.0117170e-02
8.3989189e-03
9.9489250e-03
1.2061997e-02
1.3207366e-02
1.4714721e-02
1.9597344e-02
2.7663595e-02
3.4444913e-02
3.7149890e-02
3.6860556e-02
3.5832325e-02
3.4108837e-02
2.9519180e-02
1.9441672e-02
2.0959592e-04
-2.5503349e-02
-4.5702197e-02
-5.3310848e-02
-5.0304259e-02
-4.0896270e-02
-2.9117639e-02
-1.8032225e-02
-7.6596493e-03
4.5000158e-03
1.8707803e-02
2.8814924e-02
2.6710832e-02
1.2669330e-02
-3.4026208e-03
-1.2565434e-02
-1.5356359e-02
-1.5354184e-02
-1.2504498e-02
-6.4704027e-03
6.3756332e-04
5.3428704e-03
5.7819522e-03
3.1019733e-03
-7.6157110e-04
-7.8655820e-03
-1.7668074e-02
-2.2361825e-02
-1.9649066e-02
-1.2959434e-02
-3.8457377e-03
5.3352354e-03
1.1074036e-02
1.2798330e-02
1.2336341e-02
1.1118004e-02
7.8315816e-03
2.2284397e-03
-1.7624703e-03
-1.5106937e-03
2.1432755e-03
6.0567710e-03
9.2918290e-03
1.4174343e-02
2.2661191e-02
3.3169289e-02
4.0706679e-02
4.3668101e-02
4.3608742e-02
3.9714098e-02
2.5967218e-02
3.2146590e-03
-1.5690599e-02
-2.5343369e-02
-2.9941956e-02
-3.4319958e-02
-3.9686089e-02
-4.2968251e-02
-4.1730744e-02
-3.7278365e-02
-3.2914609e-02
-2.8663855e-02
-2.3534589e-02
-1.8096303e-02
-1.2783040e-02
-7.6538454e-03
-2.2462948e-03
3.0076283e-03
7.5472769e-03
1.1537981e-02
1.3757405e-02
1.2459354e-02
6.9334911e-03
-1.7158696e-03
-1.0331449e-02
-1.6976670e-02
-2.1655548e-02
-2.4552008e-02
-2.5303756e-02
-2.3161484e-02
-1.9865397e-02
-1.8012058e-02
-1.7492730e-02
-1.5379468e-02
-8.3790637e-03
1.6398185e-03
1.0660042e-02
1.7750814e-02
2.2508794e-02
2.4588004e-02
2.3096937e-02
1.7835543e-02
1.1271907e-02
4.7181150e-03
-2.1095562e-03
-8.2646677e-03
-1.1786277e-02
-1.1789708e-02
-8.5773207e-03
-3.4727309e-03
1.1356120e-03
4.4642220e-03
7.6621683e-03
1.2000618e-02
1.7415609e-02
2.1900464e-02
2.3566563e-02
2.2946266e-02
2.1673319e-02
1.8326431e-02
1.0984787e-02
2.3311516e-03
-5.7272980e-03
-1.3205598e-02
-1.8479971e-02
-2.2265162e-02
-2.5576084e-02
-2.6940547e-02
-2.7668253e-02
-3.0792641e-02
-3.6050750e-02
-4.1426958e-02
-4.4674368e-02
-4.2074786e-02
-2.9469549e-02
-1.8162974e-04
3.9267143e-02
6.5770964e-02
7.3002678e-02
6.8005320e-02
5.5245861e-02
4.0586380e-02
2.7422611e-02
1.4880519e-02
1.8834833e-04
-1.5915501e-02
-2.6793270e-02
-2.6688678e-02
-1.8187374e-02
-8.6489988e-03
-1.0443585e-03
6.6347620e-03
1.6149325e-02
2.5289212e-02
3.1083963e-02
3.4867617e-02
3.8778086e-02
4.0920246e-02
3.8150013e-02
2.9590685e-02
1.3181509e-02
-8.4158841e-03
-2.5043734e-02
-3.3607572e-02
-3.7718487e-02
-3.8981982e-02
-3.7154071e-02
-3.2670283e-02
-2.7371705e-02
-2.1960341e-02
-1.6038594e-02
-9.3464786e-03
-1.2255018e-03
5.5456260e-03
7.0524832e-03
5.5209377e-03
4.8181757e-03
4.6560572e-03
1.8467167e-03
-5.3374870e-03
-1.4479161e-02
-2.1637767e-02
-2.5438579e-02
-2.6166239e-02
-2.3848697e-02
-1.6147803e-02
-4.4285621e-03
3.5454559e-03
6.3105800e-03
7.5052702e-03
9.0523155e-03
1.0939560e-02
1.2957961e-02
1.6095679e-02
1.9212497e-02
1.9656862e-02
1.6622198e-02
1.0456649e-02
8.7425994e-04
-8.7788684e-03
-1.3086566e-02
-1.2466524e-02
-1.1784125e-02
-1.3843953e-02
-1.7429972e-02
-1.9285786e-02
-1.9064929e-02
-2.0630727e-02
-2.3386313e-02
-2.1405285e-02
-1.1015251e-02
4.5901177e-03
1.7365352e-02
2.3779496e-02
2.6236528e-02
2.7714725e-02
2.8739259e-02
2.7138906e-02
2.1865401e-02
1.4487881e-02
7.2779541e-03
1.7474027e-03
-3.0748740e-03
-7.4289716e-03
-8.7529514e-03
-6.3684933e-03
-1.8725681e-03
2.7989884e-03
6.8561759e-03
1.1707836e-02
1.8693914e-02
2.6191267e-02
3.0159021e-02
2.9265426e-02
2.4010007e-02
1.0440049e-02
-1.2641042e-02
-3.8789955e-02
-6.4377356e-02
-8.8143820e-02
-1.0608579e-01
-1.1599227e-01
-1.1862617e-01
-1.1573510e-01
-1.0863860e-01
-9.6525091e-02
-7.8927084e-02
-5.7530963e-02
-3.3116120e-02
-5.0104332e-03
2.6629174e-02
6.1417429e-02
9.7376777e-02
1.3339057e-01
1.7193831e-01
2.1194797e-01
2.4549350e-01
2.6284493e-01
2.5730320e-01
2.2355886e-01
1.4468052e-01
3.5033693e-02
-4.7511745e-02
-8.6168631e-02
-9.8246684e-02
-9.4939765e-02
-8.8127701e-02
-8.3260716e-02
-7.7707343e-02
-6.6270908e-02
-5.0370942e-02
-3.8847961e-02
-3.6055133e-02
-3.8005855e-02
-3.9798282e-02
-4.0442166e-02
-4.0025593e-02
-3.7814004e-02
-3.4998002e-02
-3.3258278e-02
-3.4183241e-02
-3.9397192e-02
-4.5419041e-02
-4.4647459e-02
-3.2830516e-02
-5.2837013e-03
3.0255214e-02
5.1132926e-02
5.4763413e-02
5.1815039e-02
4.5743143e-02
3.8281100e-02
2.9902835e-02
2.1777323e-02
1.4578475e-02
5.5697626e-03
-6.9662274e-03
-1.9623334e-02
-2.6390290e-02
-2.6113775e-02
-2.3409558e-02
-2.0490722e-02
-1.4697020e-02
-4.3023674e-03
9.6286282e-03
2.4370323e-02
3.6341481e-02
4.3861876e-02
4.5867266e-02
4.1072998e-02
3.1358768e-02
2.0040622e-02
1.0050619e-02
2.8672068e-03
-3.3307125e-03
-1.1438834e-02
-1.9840563e-02
-2.2647994e-02
-1.9584250e-02
-1.5063629e-02
-1.1715590e-02
-1.0552208e-02
-1.0866154e-02
-1.2080723e-02
-1.3631653e-02
-1.4792826e-02
-1.5979166e-02
-1.7313046e-02
-1.7638146e-02
-1.6426977e-02
-1.6103984e-02
-1.7707714e-02
-1.8844382e-02
-1.8565996e-02
-1.6441184e-02
-9.0453613e-03
1.6605189e-03
7.0194468e-03
4.9363075e-03
-7.7410407e-04
-5.7638250e-03
-5.7683159e-03
-6.3640839e-04
6.1114345e-03
1.1736079e-02
1.5042168e-02
1.6820749e-02
1.9583646e-02
2.3106362e-02
2.5409964e-02
2.7714743e-02
3.1202548e-02
3.3676158e-02
3.0989888e-02
1.9702166e-02
4.0816797e-03
-7.0634409e-03
-1.1429681e-02
-1.2574201e-02
-1.4289985e-02
-1.7486769e-02
-1.8274059e-02
-1.0678677e-02
5.6448978e-03
2.1934186e-02
2.9601265e-02
2.9428922e-02
2.3881302e-02
1.2227706e-02
-2.7579616e-03
-1.5968568e-02
-2.4345754e-02
-2.6646647e-02
-2.4545125e-02
-2.1007729e-02
-1.5796681e-02
-8.5189687e-03
-1.9227374e-03
2.2319291e-03
5.7296134e-03
1.1385120e-02
1.9268684e-02
2.6486330e-02
2.8944284e-02
2.4093636e-02
1.1824499e-02
-3.1546349e-03
-1.2617743e-02
-1.6712778e-02
-2.0686740e-02
-2.4765641e-02
-2.6306056e-02
-2.3439120e-02
-1.7287043e-02
-1.0981352e-02
-8.4585520e-03
-1.1849096e-02
-1.7344053e-02
-1.9550815e-02
-1.7691376e-02
-1.2388505e-02
-4.1105323e-03
2.5864098e-03
3.5962376e-03
1.7844969e-03
2.5254749e-03
5.6457745e-03
6.4687623e-03
4.5289872e-03
3.6840836e-03
7.6682342e-03
1.4743818e-02
1.7588634e-02
1.5357454e-02
1.2466197e-02
1.0492464e-02
8.1334550e-03
2.6897110e-03
-4.7839860e-03
-9.2795022e-03
-8.5864802e-03
-5.0458854e-03
-2.1801494e-03
-4.9527732e-04
2.3196226e-03
6.1044419e-03
8.5855553e-03
8.8590392e-03
6.6713919e-03
2.6926978e-03
-1.0685410e-03
-3.8826450e-03
-6.7554492e-03
-9.5146457e-03
-1.0391804e-02
-9.2022184e-03
-8.0737403e-03
-7.9091186e-03
-7.7064722e-03
-6.1367014e-03
-1.8267237e-03
3.4546391e-03
6.5069459e-03
7.5981311e-03
7.8851795e-03
7.4787729e-03
5.4517727e-03
8.8252246e-04
-4.2795211e-03
-8.4289587e-03
-1.2017533e-02
-1.5449693e-02
-1.8657639e-02
-1.9821428e-02
-1.7235318e-02
-1.1980606e-02
-6.3325893e-03
-2.7115697e-03
-3.0683041e-03
-4.5392165e-03
-1.3185381e-03
6.1193630e-03
1.4570519e-02
2.5212376e-02
3.4711134e-02
3.5403541e-02
2.6878888e-02
1.4457721e-02
4.5300635e-03
1.0047475e-03
1.3345251e-03
4.3068500e-04
-2.5035113e-03
-4.1609415e-03
-2.3734275e-03
2.6377935e-04
-6.7459431e-04
-3.8877283e-03
-4.0816488e-03
3.8697516e-04
6.8072998e-03
1.2150726e-02
1.6427511e-02
2.1002872e-02
2.4283870e-02
2.0214122e-02
9.1797112e-03
8.1545937e-04
-9.8484562e-04
1.2435350e-03
3.0623619e-03
1.6407620e-03
-1.7396603e-03
-5.7571690e-03
-9.7619577e-03
-1.3834017e-02
-1.8064665e-02
-2.1230061e-02
-2.1293460e-02
-1.7788306e-02
-1.4251477e-02
-1.3846820e-02
-1.4371684e-02
-1.3398693e-02
-1.2132479e-02
-1.3131567e-02
-1.6854997e-02
-2.1338168e-02
-2.4978289e-02
-2.4340494e-02
-1.4874400e-02
-1.2781545e-03
7.7541306e-03
1.3488725e-02
1.8209673e-02
2.0305428e-02
1.9969004e-02
1.8406345e-02
1.7707347e-02
1.8416271e-02
1.7812844e-02
1.4784174e-02
1.1115871e-02
7.5452941e-03
3.2536963e-03
-1.6454992e-03
-5.3934264e-03
-7.3323538e-03
-8.3343386e-03
-8.7523256e-03
-1.0730237e-02
-1.5109196e-02
-1.7356603e-02
-1.4587024e-02
-7.8901763e-03
-3.1627777e-04
5.5474911e-03
1.0538738e-02
1.5780444e-02
1.9834628e-02
1.9243648e-02
1.2966300e-02
4.0623157e-03
-4.4538295e-03
-1.2000775e-02
-1.8995326e-02
-2.4249079e-02
-2.5041751e-02
-2.0315515e-02
-1.3624458e-02
-8.6731651e-03
-5.3851660e-03
-2.5419276e-03
1.1781936e-03
6.1443433e-03
9.5721080e-03
9.2226236e-03
7.1120111e-03
5.7749900e-03
6.4607954e-03
9.3433394e-03
1.1408743e-02
9.7176278e-03
6.0693246e-03
3.3525077e-03
1.7220257e-03
9.9589508e-04
2.0633706e-03
5.3876781e-03
9.9298898e-03
1.3274949e-02
1.4577856e-02
1.5714641e-02
1.7401688e-02
1.7275478e-02
1.2766150e-02
5.3715685e-03
-5.2635888e-04
-4.8746583e-03
-1.0382303e-02
-1.6831837e-02
-2.2694920e-02
-2.6019819e-02
-2.5390396e-02
-2.1138008e-02
-1.2884631e-02
-2.0506705e-03
7.3297827e-03
1.3194063e-02
1.4223072e-02
1.0434348e-02
5.2531291e-03
3.7968378e-03
8.0730020e-03
1.3143161e-02
1.3918769e-02
1.1916473e-02
1.0186581e-02
8.5109560e-03
5.1067755e-03
-9.7949824e-04
-7.3114012e-03
-9.9488974e-03
-7.0790165e-03
-8.7205995e-04
4.6309039e-03
9.1902813e-03
1.4505267e-02
2.0111088e-02
2.1919166e-02
1.3273000e-02
-2.6175988e-03
-1.2393510e-02
-1.4078148e-02
-1.5626579e-02
-2.0071300e-02
-2.5564871e-02
-2.8745726e-02
-2.6836098e-02
-1.8308665e-02
-4.3766926e-03
8.7967061e-03
1.5027041e-02
1.5074904e-02
1.2270600e-02
8.5281062e-03
5.8863507e-03
4.8906167e-03
5.4756008e-03
7.6756333e-03
9.5863296e-03
1.0676448e-02
1.0918528e-02
8.8287424e-03
5.9723430e-03
2.8986687e-03
-2.4743816e-03
-8.6137815e-03
-1.3043108e-02
-1.5392440e-02
-1.6178123e-02
-1.6667326e-02
-1.6667507e-02
-1.4934297e-02
-1.2019783e-02
-9.8817289e-03
-9.1948280e-03
-7.2465738e-03
-1.6299071e-03
5.1962163e-03
9.1330643e-03
9.5139025e-03
9.2634845e-03
1.0117695e-02
9.7232996e-03
5.8442245e-03
6.9717076e-05
-4.7226132e-03
-8.0472129e-03
-1.0396833e-02
-1.0509447e-02
-7.9689523e-03
-4.7549046e-03
-2.0127361e-03
-8.0027299e-05
7.4572041e-04
1.0223853e-03
1.8683683e-03
4.0577074e-03
7.0053237e-03
9.6385262e-03
1.0762220e-02
1.1284141e-02
1.2940756e-02
1.3182598e-02
9.8637699e-03
4.8617399e-03
7.5901372e-04
-1.0068213e-03
-1.1043437e-03
-1.2437605e-03
-2.0163153e-03
-1.1348780e-03
2.0225911e-03
2.2330012e-03
-4.3181351e-03
-1.2557139e-02
-1.4870247e-02
-1.0974607e-02
-5.6706390e-03
-3.0947097e-03
-2.9799524e-03
-1.5812557e-03
1.5304956e-03
3.3240003e-03
2.7342516e-03
5.2149930e-04
-2.1743506e-03
-3.8319741e-03
-5.8491760e-03
-1.1077254e-02
-1.8292887e-02
-2.4080526e-02
-2.7333379e-02
-3.0059236e-02
-3.4749056e-02
-4.1076323e-02
-4.6130706e-02
-4.6550961e-02
-3.9070935e-02
-1.8282293e-02
1.2876262e-02
3.8752052e-02
5.3003649e-02
5.9269095e-02
5.9800291e-02
5.6985385e-02
5.2116569e-02
4.5200150e-02
3.5453109e-02
2.3059197e-02
1.1156518e-02
3.3126949e-03
-5.3376992e-04
-3.5191781e-03
-6.1105553e-03
-5.5708127e-03
-1.1067143e-03
6.4607539e-03
1.6165096e-02
2.4634495e-02
2.9141592e-02
3.1576174e-02
3.2916324e-02
2.9773888e-02
1.4810021e-02
-1.1429012e-02
-3.4464668e-02
-4.5758212e-02
-4.7774342e-02
-4.3870942e-02
-3.5126070e-02
-2.3954650e-02
-1.4247314e-02
-6.9579734e-03
-1.9440591e-03
1.0730079e-03
3.0010897e-03
5.5168143e-03
9.4097912e-03
1.4358539e-02
2.0047396e-02
2.3998812e-02
2.3283453e-02
1.7114394e-02
7.7834640e-03
-1.6817480e-03
-1.0025309e-02
-1.3727761e-02
-1.1213698e-02
-8.0601431e-03
-9.8874975e-03
-1.4865487e-02
-1.6799628e-02
-1.4089676e-02
-9.4631505e-03
-5.2013470e-03
-9.4221374e-04
4.1704974e-03
7.2930356e-03
6.5954074e-03
4.5856625e-03
3.2350813e-03
3.1334981e-03
3.2700361e-03
2.1159987e-03
1.4724254e-03
3.0003802e-03
5.6458772e-03
6.7862597e-03
5.7379069e-03
5.9596895e-03
8.9747969e-03
1.3256696e-02
1.6328109e-02
1.4349408e-02
8.3122617e-03
3.2663207e-03
1.2965626e-06
-3.5345705e-03
-8.6811915e-03
-1.4573521e-02
-1.8881948e-02
-2.0154313e-02
-1.9136368e-02
-1.8263063e-02
-1.8007109e-02
-1.7432215e-02
-1.6218224e-02
-1.4648622e-02
-1.4155576e-02
-1.4274593e-02
-1.3251504e-02
-1.1440455e-02
-9.7378524e-03
-1.0303114e-02
-1.2782771e-02
-1.3230136e-02
-1.0734583e-02
-5.4590455e-03
4.1504952e-03
1.5868791e-02
2.3737356e-02
2.4950765e-02
2.1257473e-02
1.5705126e-02
9.6573830e-03
4.9756810e-03
2.2191881e-03
-2.0875784e-04
-2.1297437e-03
-3.5058693e-03
-4.2917074e-03
-3.5034916e-03
-1.2307615e-03
2.0040186e-03
5.6259252e-03
9.3060717e-03
1.3960135e-02
1.8463714e-02
1.9194825e-02
1.5815082e-02
1.1975875e-02
9.3511316e-03
6.2738874e-03
-4.9506817e-04
-1.0144486e-02
-1.6669525e-02
-1.7860672e-02
-1.6036627e-02
-1.3235714e-02
-1.0100145e-02
-7.0159803e-03
-3.6408675e-03
8.5170097e-04
5.2130424e-03
7.6719978e-03
8.8915848e-03
1.0056581e-02
9.8043530e-03
6.3980056e-03
8.3455143e-04
-4.5899849e-03
-8.2996656e-03
-9.4157056e-03
-9.5759304e-03
-1.1162433e-02
-1.2419348e-02
-1.1481342e-02
-9.1367127e-03
-4.6098566e-03
2.1050536e-03
7.7573736e-03
1.1139934e-02
1.3364574e-02
1.3577022e-02
1.3144315e-02
1.6077353e-02
2.1803288e-02
2.6716557e-02
2.5909341e-02
1.6434317e-02
2.5893173e-03
-9.6408333e-03
-1.7770098e-02
-2.2331401e-02
-2.3873670e-02
-2.1477473e-02
-1.6063973e-02
-1.0437508e-02
-7.2284850e-03
-6.4870978e-03
-4.6308792e-03
1.1002543e-03
8.5475539e-03
1.1246709e-02
7.3385930e-03
1.9805124e-03
-1.4513716e-03
-3.1400520e-03
-4.1608910e-03
-4.1176349e-03
8.1319444e-04
1.2001362e-02
2.2239830e-02
2.4125818e-02
1.7491348e-02
7.6798001e-03
1.5129924e-03
-4.2613874e-05
-5.0148014e-04
-1.5067357e-03
-2.2152342e-03
-2.3489531e-03
-3.3082858e-03
-5.2559507e-03
-7.1002383e-03
-8.0368054e-03
-6.6891627e-03
-1.8411171e-03
4.7747314e-03
1.0113987e-02
1.2322695e-02
9.6778281e-03
2.7113783e-03
-4.2824750e-03
-8.2939376e-03
-9.9072766e-03
-9.3481017e-03
-6.1627413e-03
-2.3259039e-03
-3.1716828e-04
4.4277113e-04
2.5883025e-03
5.4459935e-03
4.8218107e-03
1.1345589e-03
-5.5440556e-04
9.7718524e-04
3.3719628e-03
5.2640546e-03
6.6330252e-03
8.8985726e-03
1.2189567e-02
1.2216861e-02
3.8956336e-03
-1.0026152e-02
-2.0304837e-02
-2.2038227e-02
-1.6581532e-02
-8.6736198e-03
-2.9310372e-03
3.3547464e-04
3.5974367e-03
6.3175571e-03
5.3798784e-03
1.5293191e-03
-2.8028342e-03
-6.7871332e-03
-9.4252205e-03
-1.1258275e-02
-1.4546448e-02
-1.9200191e-02
-2.3394379e-02
-2.7917239e-02
-3.3514204e-02
-3.8531810e-02
-4.0308617e-02
-3.5976060e-02
-2.4317727e-02
-4.2574470e-03
2.0055692e-02
3.8843684e-02
5.0129670e-02
5.5839178e-02
5.4660458e-02
4.7002156e-02
3.5560773e-02
2.3022910e-02
1.0649602e-02
-5.1507156e-04
-8.4864373e-03
-1.0758194e-02
-7.4064007e-03
-2.8861288e-03
-4.3853939e-04
-5.6117683e-04
-2.9199519e-03
-5.2173300e-03
-5.5731948e-03
-4.4853027e-03
-3.5093635e-03
-2.6462974e-03
-1.4212933e-03
-1.4127911e-03
-5.9167348e-03
-1.2407670e-02
-1.1029973e-02
-2.2120829e-03
5.4196768e-03
9.8993044e-03
1.2501609e-02
1.4108907e-02
1.5906074e-02
1.6934628e-02
1.4279145e-02
8.5444581e-03
3.4989243e-03
8.2814483e-04
-1.9998918e-03
-8.2132271e-03
-1.5370357e-02
-1.9304714e-02
-1.9963417e-02
-1.9230445e-02
-1.7202291e-02
-1.3365715e-02
-9.8611333e-03
-6.1642131e-03
-3.5030048e-04
2.6589996e-03
-5.3427262e-05
-2.2398758e-03
-5.7515986e-05
4.3912482e-03
8.1526429e-03
9.6363941e-03
1.0025332e-02
1.0462147e-02
1.0338426e-02
8.3604083e-03
4.2041187e-03
-8.1798758e-04
-4.4878734e-03
-5.4872633e-03
-5.4302929e-03
-6.3227874e-03
-7.0456999e-03
-6.5525746e-03
-5.5528539e-03
-4.9250697e-03
-5.9397126e-03
-7.7148495e-03
-8.1429299e-03
-6.9034940e-03
-4.1332845e-03
-2.5236016e-03
-4.6969544e-03
-8.5707299e-03
-1.2385185e-02
-1.6950733e-02
-2.2693654e-02
-2.6867413e-02
-2.7016615e-02
-2.3299833e-02
-1.7651755e-02
-1.2453565e-02
-5.7940734e-03
4.0476568e-03
1.3701461e-02
1.9155528e-02
1.9670331e-02
1.6945690e-02
1.2245595e-02
5.9189184e-03
-1.2062480e-03
-8.0162080e-03
-1.3304269e-02
-1.4755253e-02
-1.0073932e-02
1.9148350e-03
1.6492451e-02
2.5166699e-02
2.7169146e-02
2.6780056e-02
2.6140530e-02
2.4537762e-02
2.2085448e-02
2.0339064e-02
1.8591238e-02
1.6680659e-02
1.5407968e-02
1.4069135e-02
1.2356096e-02
1.1004160e-02
9.8158052e-03
7.7255257e-03
5.5698399e-03
4.8294130e-03
4.6615108e-03
4.4447296e-03
4.2477054e-03
4.4515254e-03
5.7493740e-03
6.5578233e-03
2.5458443e-03
-6.8595257e-03
-1.4669977e-02
-1.5983994e-02
-1.2771990e-02
-8.6550582e-03
-5.8474509e-03
-5.0864967e-03
-5.1844834e-03
-5.2842425e-03
-6.7166075e-03
-9.7254078e-03
-1.2716580e-02
-1.3671396e-02
-1.2617616e-02
-1.2161595e-02
-1.3805882e-02
-1.5548622e-02
-1.4136816e-02
-1.0039123e-02
-6.6160176e-03
-7.0199283e-03
-9.0846933e-03
-7.0797730e-03
-1.3852984e-03
4.9509438e-03
1.0362460e-02
1.3526291e-02
1.5050199e-02
1.5680726e-02
1.4024820e-02
8.7693385e-03
1.3893196e-03
-4.2032080e-03
-6.1596244e-03
-6.3948066e-03
-6.2259718e-03
-5.4418527e-03
-4.2860492e-03
-3.2170116e-03
-1.8743581e-03
8.0873870e-04
4.6994807e-03
9.0739129e-03
1.3322956e-02
1.5336298e-02
1.3468961e-02
1.0010354e-02
7.9676365e-03
7.0070918e-03
5.7778571e-03
3.5423108e-03
1.1651364e-03
1.1489337e-03
3.5303911e-03
6.1216915e-03
8.4488847e-03
1.1281033e-02
1.5170404e-02
1.9615946e-02
2.2500564e-02
2.2393357e-02
1.9168770e-02
1.2418651e-02
3.4110253e-03
-6.1523710e-03
-1.6937482e-02
-2.7333503e-02
-3.1768484e-02
-2.7962994e-02
-2.0475652e-02
-1.3765760e-02
-8.2416178e-03
-3.8557852e-03
-9.0639289e-04
-1.6564890e-03
-6.2666446e-03
-8.8198942e-03
-7.6298843e-03
-6.2063539e-03
-6.1557666e-03
-7.0288810e-03
-7.2063432e-03
-5.7555350e-03
-3.9795354e-03
-3.6948634e-03
-5.3713060e-03
-7.1491150e-03
-6.0284100e-03
-1.3696457e-03
3.9576222e-03
6.8849525e-03
9.3540955e-03
1.4430080e-02
2.0901187e-02
2.5898688e-02
2.7251821e-02
2.5490241e-02
2.2988675e-02
2.0573045e-02
1.4931394e-02
4.7292247e-03
-4.0675046e-03
-8.4185648e-03
-1.1062938e-02
-1.2683652e-02
-1.2791650e-02
-1.3223935e-02
-1.4403855e-02
-1.4823607e-02
-1.4262296e-02
-1.2675108e-02
-1.0630360e-02
-9.0739647e-03
-6.6157326e-03
-2.9088788e-03
8.2072391e-05
2.2794850e-03
6.0928472e-03
1.2020297e-02
1.7688704e-02
2.0719943e-02
1.9931876e-02
1.6176786e-02
1.0907669e-02
3.1636146e-03
-7.2736775e-03
-1.5321582e-02
-1.7579241e-02
-1.6009476e-02
-1.3867043e-02
-1.2701860e-02
-1.1183334e-02
-8.3054023e-03
-4.4440162e-03
-2.2169201e-04
3.5127862e-03
6.6193349e-03
9.4217994e-03
1.1159676e-02
1.0872116e-02
8.8968647e-03
5.0921520e-03
1.0149672e-04
-3.6362289e-03
-6.2798040e-03
-9.2972834e-03
-1.1225262e-02
-1.0348072e-02
-7.9653335e-03
-6.2119899e-03
-5.0102446e-03
-2.9809614e-03
7.0457254e-04
5.3666409e-03
9.4733689e-03
1.2008821e-02
1.2882643e-02
1.2913981e-02
1.1057869e-02
5.6756256e-03
-2.7378150e-03
-1.2283210e-02
-1.9890542e-02
-2.3752643e-02
-2.4456398e-02
-2.2971409e-02
-2.0305415e-02
-1.6499743e-02
-1.0929429e-02
-5.8835986e-03
-4.0100108e-03
-3.3032252e-03
-9.0151375e-04
3.5020167e-03
9.7962088e-03
1.5247618e-02
1.6861469e-02
1.5990238e-02
1.3567208e-02
8.7186240e-03
1.7448900e-03
-4.3764671e-03
-6.5784018e-03
-5.2158881e-03
-2.8865973e-03
-2.3795787e-03
-3.0274501e-03
-1.5369790e-03
2.1846633e-03
5.8022018e-03
7.5699612e-03
7.8457460e-03
1.0169566e-02
1.5181657e-02
1.8801781e-02
1.8626737e-02
1.5151211e-02
1.0063977e-02
4.3296423e-03
-2.5336518e-03
-1.0320694e-02
-1.6709729e-02
-1.8699494e-02
-1.6279714e-02
-1.3041008e-02
-1.0536943e-02
-7.0722436e-03
-2.0158491e-03
3.4368749e-03
7.2299696e-03
8.9557386e-03
9.3840673e-03
8.4026924e-03
7.0130041e-03
4.7625808e-03
-2.2436351e-04
-5.9547213e-03
-1.0311723e-02
-1.3750232e-02
-1.6459484e-02
-1.8156988e-02
-1.8939669e-02
-1.8870629e-02
-1.5883589e-02
-7.6280111e-03
3.3292031e-03
1.1221967e-02
1.5446069e-02
1.8986830e-02
2.1300545e-02
2.0598069e-02
1.7132186e-02
1.3317434e-02
1.0879664e-02
8.2509812e-03
3.4508797e-03
-3.5037019e-03
-1.0284018e-02
-1.3405159e-02
-1.2308742e-02
-1.0694425e-02
-1.0291271e-02
-8.5035617e-03
-3.9158590e-03
8.9456776e-04
2.6261154e-03
2.2426878e-03
3.0243560e-03
5.9861973e-03
9.5791105e-03
1.0651789e-02
8.2610172e-03
5.2646463e-03
3.2693845e-03
1.3331980e-03
-1.6195431e-03
-5.2616646e-03
-8.0415705e-03
-9.2078629e-03
-9.2628360e-03
-9.1719220e-03
-8.5640493e-03
-5.4206574e-03
4.9746830e-04
6.3627788e-03
1.0984464e-02
1.5642772e-02
2.0012493e-02
2.2121263e-02
2.0708569e-02
1.6870983e-02
1.2423988e-02
7.9089505e-03
3.5760330e-03
-1.4453499e-03
-7.7179898e-03
-1.2769291e-02
-1.5613430e-02
-1.7890025e-02
-1.9348430e-02
-1.8951086e-02
-1.6381859e-02
-1.0500864e-02
-4.7019187e-04
1.2152368e-02
2.1876249e-02
2.3978285e-02
1.9332597e-02
1.0569469e-02
4.0176345e-04
-9.3349442e-03
-1.7386846e-02
-2.1402020e-02
-2.0349466e-02
-1.6771277e-02
-1.4527125e-02
-1.3994205e-02
-1.3096547e-02
-1.1119247e-02
-7.6072622e-03
-4.4258780e-03
-2.9967588e-03
7.6020122e-04
8.4756047e-03
1.6250568e-02
2.0103233e-02
2.0021880e-02
1.7774954e-02
1.3929371e-02
8.3326669e-03
8.7199473e-04
-5.6959666e-03
-8.8127710e-03
-9.2461887e-03
-9.2324111e-03
-1.0550650e-02
-1.1805069e-02
-1.0126449e-02
-5.0404854e-03
1.0227678e-04
2.1903242e-03
2.9406505e-03
4.9936011e-03
8.3298141e-03
1.1495853e-02
1.2446031e-02
1.1505970e-02
1.0616191e-02
7.7036679e-03
1.5648135e-03
-5.6030484e-03
-1.3179731e-02
-1.8975845e-02
-2.0618390e-02
-1.9784026e-02
-1.8019397e-02
-1.5116303e-02
-1.0774660e-02
-5.3127696e-03
1.8147405e-03
1.1817026e-02
2.3970906e-02
3.8628795e-02
5.6663150e-02
7.4439730e-02
8.7553138e-02
9.6183516e-02
9.8509312e-02
8.6303471e-02
4.8613581e-02
-6.4265615e-03
-4.8878213e-02
-6.6758048e-02
-6.9259968e-02
-6.5625279e-02
-5.9338350e-02
-5.1167124e-02
-4.4116619e-02
-3.8418861e-02
-3.1633278e-02
-2.4667248e-02
-1.9958171e-02
-1.7161304e-02
-1.5829700e-02
-1.9592573e-02
-3.1908619e-02
-4.9090090e-02
-6.6092104e-02
-8.2705365e-02
-9.9090517e-02
-1.1305792e-01
-1.2146357e-01
-1.1987454e-01
-1.0074660e-01
-5.0723983e-02
1.8805086e-02
6.7209450e-02
8.3530351e-02
8.3972328e-02
7.7455542e-02
6.7847988e-02
5.9655045e-02
5.6408683e-02
5.6650499e-02
5.6894378e-02
5.6126662e-02
5.6650456e-02
5.8678624e-02
5.9138245e-02
5.6864819e-02
5.0889889e-02
4.0950718e-02
3.0144432e-02
2.1185700e-02
1.3322898e-02
6.2228863e-03
4.4491681e-03
9.8780049e-03
1.5605889e-02
1.5955414e-02
1.1050383e-02
2.1855440e-03
-8.3625953e-03
-1.8316648e-02
-2.5304412e-02
-2.6958081e-02
-2.3951997e-02
-1.9130694e-02
-1.5477039e-02
-1.6559883e-02
-2.3639154e-02
-3.1019234e-02
-3.2315601e-02
-2.8120315e-02
-2.0147984e-02
-9.0404637e-03
4.1581540e-03
1.8412948e-02
3.0768545e-02
3.9994352e-02
4.8050934e-02
5.6624960e-02
6.4115715e-02
6.2373365e-02
3.9426754e-02
1.0840677e-03
-2.8429296e-02
-4.0869209e-02
-4.6210195e-02
-5.2398237e-02
-5.8329215e-02
-5.9270535e-02
-5.4362434e-02
-4.5721313e-02
-3.5972242e-02
-2.5806263e-02
-1.4226884e-02
-3.9024698e-04
1.4888044e-02
2.9569240e-02
4.2003517e-02
4.9984997e-02
4.9895340e-02
4.2653030e-02
3.3492764e-02
2.4612176e-02
1.7856516e-02
1.3996804e-02
8.5808234e-03
-3.0849723e-03
-1.8117247e-02
-2.8833689e-02
-3.3739478e-02
-3.7755764e-02
-4.3809403e-02
-5.0365681e-02
-5.4194818e-02
-5.3544747e-02
-4.9474547e-02
-4.2770578e-02
-3.2899545e-02
-1.7637570e-02
2.9862449e-03
2.3132481e-02
3.9198744e-02
5.1755893e-02
6.0043201e-02
6.3086788e-02
6.0120682e-02
4.9423133e-02
3.3748502e-02
1.8831891e-02
5.9630551e-03
-7.2801316e-03
-2.3376337e-02
-3.7681245e-02
-4.1622195e-02
-3.4844436e-02
-2.3318312e-02
-1.2986439e-02
-5.4126518e-03
1.6982362e-03
9.2904476e-03
1.5564056e-02
1.9405791e-02
2.2286323e-02
2.5041164e-02
2.7412930e-02
2.7623119e-02
2.3593380e-02
1.6814797e-02
1.0137826e-02
3.2148835e-03
-6.5383031e-03
-1.9013481e-02
-3.0991271e-02
-3.8635885e-02
-4.0186357e-02
-3.6896514e-02
-2.8652171e-02
-1.7691317e-02
-8.8281477e-03
-1.9504995e-03
3.5759134e-03
6.9876098e-03
9.1302306e-03
1.1752839e-02
1.5451697e-02
1.7246068e-02
1.3748679e-02
6.5682570e-03
4.4344057e-04
-2.2551806e-03
-2.9049808e-03
-3.7280725e-03
-3.7460802e-03
-5.6087885e-04
5.0639593e-03
1.0036850e-02
1.3655820e-02
1.8693986e-02
2.5719766e-02
3.1637461e-02
3.1634545e-02
2.1569059e-02
5.8444266e-03
-4.9862987e-03
-8.9924664e-03
-1.1628419e-02
-1.5649866e-02
-2.0912304e-02
-2.5406848e-02
-2.8119283e-02
-3.0039369e-02
-3.0876420e-02
-3.0541686e-02
-2.9332791e-02
-2.6329277e-02
-2.0260881e-02
-1.0910534e-02
4.1155115e-05
1.0233031e-02
1.8175186e-02
2.3656061e-02
2.5400048e-02
2.3154712e-02
1.9640188e-02
1.7036087e-02
1.4948837e-02
1.3493088e-02
1.3177584e-02
1.1009523e-02
6.6730634e-03
2.8550061e-03
-1.3043306e-03
-5.3731581e-03
-6.0619302e-03
-3.7359648e-03
-1.7640116e-03
-8.2784718e-04
1.8027570e-03
6.8822347e-03
1.1512892e-02
1.3252073e-02
1.1161839e-02
6.4317092e-03
1.4847607e-03
-3.6832611e-03
-9.5825689e-03
-1.5224500e-02
-1.8367771e-02
-1.7183326e-02
-1.3994017e-02
-1.1718302e-02
-8.8639095e-03
-4.5120220e-03
3.6491703e-06
4.7434451e-03
8.9880272e-03
1.1684506e-02
1.3694896e-02
1.5620237e-02
1.6484600e-02
1.4987545e-02
1.0407575e-02
4.1511941e-03
-5.9976875e-04
-3.4059817e-03
-7.1319252e-03
-1.2450393e-02
-1.5717081e-02
-1.5328893e-02
-1.3867699e-02
-1.3332809e-02
-1.3495012e-02
-1.2232293e-02
-9.1589346e-03
-6.3777341e-03
-4.1543600e-03
-1.3511159e-05
7.3720711e-03
1.4145958e-02
1.6071704e-02
1.2920067e-02
6.9577390e-03
1.5440497e-03
-1.8758859e-03
-4.2462802e-03
-7.3526318e-03
-1.0413627e-02
-9.6168413e-03
-4.7406676e-03
4.0807606e-04
3.8708052e-03
7.0776028e-03
1.1579894e-02
1.6255338e-02
1.8142706e-02
1.5725295e-02
1.0775461e-02
6.6493168e-03
4.8170191e-03
3.2310528e-03
-4.8559204e-04
-6.0443257e-03
-9.1871073e-03
-6.8274099e-03
-1.9233804e-03
2.1421281e-03
3.6523022e-03
2.7913310e-03
8.3823096e-04
-3.5382038e-03
-1.0348417e-02
-1.5809206e-02
-1.6779698e-02
-1.3890852e-02
-1.0702078e-02
-7.9176440e-03
-4.3029496e-03
1.6994501e-04
5.6423797e-03
9.9579101e-03
1.0564405e-02
7.8594895e-03
2.6910325e-03
-4.4303716e-03
-1.2165947e-02
-1.8691842e-02
-2.0177138e-02
-1.5449672e-02
-1.0124715e-02
-8.2847483e-03
-7.2467700e-03
-3.7750951e-03
5.1470740e-04
3.5642675e-03
4.9093110e-03
4.8539863e-03
5.2738297e-03
7.0192850e-03
8.6142225e-03
8.2470925e-03
6.9485733e-03
7.5483937e-03
1.0407655e-02
1.2451399e-02
1.0830720e-02
5.8646619e-03
-8.5187033e-04
-7.0639516e-03
-1.0367126e-02
-1.0884335e-02
-1.1015803e-02
-1.1799167e-02
-1.0740828e-02
-7.1993109e-03
-5.3470189e-03
-6.9402803e-03
-8.6307558e-03
-7.4616787e-03
-4.0540766e-03
-7.3834743e-04
1.3399997e-03
3.8208543e-03
8.6754738e-03
1.3582275e-02
1.5078053e-02
1.4944188e-02
1.5049092e-02
1.3627096e-02
1.1384850e-02
9.3588499e-03
5.9710206e-03
2.2009191e-03
3.8080410e-04
-6.9121847e-04
-3.2495573e-03
-6.9115977e-03
-9.8863673e-03
-1.1068597e-02
-1.0393204e-02
-8.9673979e-03
-7.4784029e-03
-5.0708661e-03
-1.2770721e-03
2.9760438e-03
6.3505375e-03
8.6584649e-03
1.1151608e-02
1.4302233e-02
1.5970970e-02
1.3100530e-02
6.5214843e-03
8.6970984e-04
-2.2027615e-03
-4.2305688e-03
-6.2007665e-03
-8.6511706e-03
-1.0780388e-02
-1.0742016e-02
-8.3355333e-03
-5.6334850e-03
-4.7620334e-03
-4.0692214e-03
-1.1160202e-03
1.5365093e-03
1.5554947e-03
7.5075055e-04
1.3366166e-03
3.6919720e-03
6.4459849e-03
8.6664500e-03
1.0120319e-02
9.8804133e-03
8.2087715e-03
5.8461861e-03
1.8466260e-03
-2.9307516e-03
-5.6600331e-03
-5.0786318e-03
-2.5412936e-03
-8.6878584e-04
3.8402847e-05
2.0355673e-03
5.3117532e-03
8.7796809e-03
1.0204849e-02
8.6506370e-03
3.9179007e-03
-1.4162566e-03
-2.6193409e-03
-1.2598323e-04
3.2636851e-03
6.7544509e-03
1.0557140e-02
1.2932833e-02
1.0917863e-02
5.3538866e-03
-9.1028896e-04
-6.5693684e-03
-1.1487756e-02
-1.5926503e-02
-1.9500593e-02
-2.0781905e-02
-1.8413452e-02
-1.3178556e-02
-7.5814623e-03
-3.0143607e-03
1.2814237e-03
5.1793521e-03
6.3018408e-03
4.1331594e-03
1.9423016e-03
2.3856458e-03
4.9224739e-03
7.7538870e-03
8.8810623e-03
7.2365714e-03
3.6106018e-03
-5.6291754e-05
-3.5384978e-03
-8.1681893e-03
-1.2108385e-02
-1.2976794e-02
-1.2672683e-02
-1.4054483e-02
-1.5749746e-02
-1.3747184e-02
-8.0150522e-03
-2.0471780e-03
1.2608754e-03
1.2793715e-03
2.7707204e-04
1.1567437e-03
4.1121905e-03
6.4032547e-03
6.4171995e-03
5.2605720e-03
5.3374670e-03
6.5169061e-03
5.8521827e-03
3.3964144e-03
1.1256195e-03
-1.5821939e-04
-1.2697530e-03
-4.2261004e-03
-8.1562976e-03
-9.9788471e-03
-8.5019645e-03
-5.1335887e-03
-3.0341689e-03
-3.3322063e-03
-3.9147791e-03
-3.9973889e-03
-5.0436074e-03
-7.1961818e-03
-9.5529223e-03
-1.0744440e-02
-8.8523614e-03
-4.7442604e-03
-9.0357732e-04
