7.3617073e-04
6.5948245e-03
1.0395141e-02
1.2810202e-02
1.4757444e-02
1.7301114e-02
2.1151314e-02
2.4250712e-02
2.3889112e-02
2.1967365e-02
2.0354322e-02
1.5770802e-02
6.8894425e-03
-3.6238842e-03
-1.3583863e-02
-2.1925407e-02
-2.8593473e-02
-3.5140944e-02
-4.2283408e-02
-4.7462356e-02
-4.8947663e-02
-4.8361816e-02
-4.6420965e-02
-3.9362052e-02
-1.9567542e-02
9.5602649e-03
3.1916908e-02
4.0896092e-02
3.9786026e-02
3.3892059e-02
2.7263340e-02
2.0756297e-02
1.5309683e-02
1.0420602e-02
6.4900201e-03
5.6434188e-03
7.4127867e-03
8.0234890e-03
6.3808340e-03
7.0114744e-03
1.2826541e-02
2.1799586e-02
3.0840955e-02
3.8504423e-02
4.5635671e-02
5.2538395e-02
5.6817240e-02
5.5545605e-02
4.4769936e-02
1.8350534e-02
-1.6551563e-02
-4.0174156e-02
-4.9511594e-02
-5.1828366e-02
-4.7269667e-02
-3.7091750e-02
-2.7821997e-02
-2.3382641e-02
-2.0807964e-02
-1.7129676e-02
-1.2493209e-02
-7.5612606e-03
-2.3493016e-03
3.0938377e-03
8.3700063e-03
1.2625902e-02
1.4417617e-02
1.2104736e-02
4.9445568e-03
-4.7833714e-03
-1.3094521e-02
-1.8555409e-02
-2.2763536e-02
-2.5009246e-02
-2.0451620e-02
-9.7801157e-03
1.1235452e-04
6.4199402e-03
1.0205095e-02
1.2987200e-02
1.6108929e-02
1.9578929e-02
2.2660671e-02
2.4532173e-02
2.3820915e-02
1.9202605e-02
1.0007947e-02
-2.2079889e-03
-1.4171216e-02
-2.3154599e-02
-2.8509933e-02
-3.2657974e-02
-3.7115144e-02
-4.1735708e-02
-4.5743502e-02
-4.7342318e-02
-4.5445262e-02
-4.0290931e-02
-3.0795791e-02
-1.1106221e-02
1.4823697e-02
3.3361966e-02
4.1645530e-02
4.2307808e-02
3.7915506e-02
3.0854944e-02
2.1828629e-02
1.2486079e-02
5.0349702e-03
8.0076439e-04
-5.1460596e-04
5.4143742e-04
1.2533349e-03
1.0886118e-03
3.6612628e-03
9.8528168e-03
1.7355445e-02
2.4039819e-02
3.1257552e-02
4.0462018e-02
4.9691211e-02
5.4943303e-02
5.2136001e-02
3.9399795e-02
1.5428936e-02
-1.2405726e-02
-3.0913314e-02
-3.9645340e-02
-4.3557085e-02
-4.2156422e-02
-3.6130224e-02
-2.9675372e-02
-2.5096958e-02
-1.9599988e-02
-1.0066484e-02
1.2778863e-03
9.3215244e-03
1.1444893e-02
9.4278875e-03
4.3632810e-03
-4.6449235e-03
-1.7114437e-02
-3.1933104e-02
-4.5657973e-02
-5.5202631e-02
-6.1192548e-02
-6.5123067e-02
-6.6627300e-02
-5.9950104e-02
-3.4434179e-02
3.8563946e-03
3.0490645e-02
3.9066511e-02
4.0600870e-02
3.9955141e-02
3.7929936e-02
3.7018782e-02
3.6424870e-02
3.2381223e-02
2.5256537e-02
1.8420202e-02
1.3891457e-02
1.1388508e-02
1.1510281e-02
1.5962557e-02
2.3187515e-02
2.8803368e-02
3.0522842e-02
2.9917739e-02
3.0887664e-02
3.6194903e-02
4.4005238e-02
4.9576423e-02
4.7887777e-02
3.2967839e-02
8.5275076e-03
-1.1696307e-02
-2.5536037e-02
-3.6980390e-02
-4.4214677e-02
-4.6800849e-02
-4.5460509e-02
-3.9805445e-02
-3.2452221e-02
-2.6280341e-02
-2.0338709e-02
-1.4790034e-02
-1.1236781e-02
-8.0633866e-03
-2.1216044e-03
5.1918560e-03
1.0421302e-02
1.4207950e-02
1.8641226e-02
2.2983670e-02
2.4537008e-02
2.1717125e-02
1.5192113e-02
7.0271667e-03
-2.8473050e-03
-1.3780666e-02
-2.1306971e-02
-2.4430559e-02
-2.4586060e-02
-2.0885379e-02
-1.4926498e-02
-1.0681478e-02
-8.6998368e-03
-6.6937313e-03
-2.6018229e-03
3.8055930e-03
9.3628380e-03
1.1450518e-02
1.1147306e-02
1.0922877e-02
1.0787110e-02
6.5464049e-03
-2.1597955e-03
-1.0848348e-02
-1.6824396e-02
-2.0232290e-02
-2.2966006e-02
-2.4417329e-02
-2.1277830e-02
-1.2589776e-02
-2.0398735e-03
6.7392089e-03
1.2088280e-02
1.4287577e-02
1.6832588e-02
1.9791966e-02
1.9928224e-02
1.7527275e-02
1.4504711e-02
1.1333337e-02
8.0805252e-03
4.0995032e-03
-1.3998156e-03
-6.8921884e-03
-1.0003700e-02
-1.1764538e-02
-1.4238787e-02
-1.6546839e-02
-1.6697510e-02
-1.4231301e-02
-1.0944513e-02
-8.0182474e-03
-5.0500413e-03
-1.2343911e-03
4.9829085e-03
1.2968439e-02
1.9296479e-02
2.1645065e-02
2.0166038e-02
1.6054353e-02
1.0879134e-02
5.2447692e-03
-2.5996804e-03
-1.0676560e-02
-1.3731608e-02
-1.2264974e-02
-1.1278778e-02
-1.3106335e-02
-1.5423469e-02
-1.4340688e-02
-8.6975892e-03
-1.1745331e-03
5.4279409e-03
1.1150976e-02
1.6155324e-02
1.7979090e-02
1.4726207e-02
7.4359712e-03
-3.1748125e-04
-3.1802206e-03
-1.2684472e-03
-1.0732903e-03
-4.0681952e-03
-6.4533331e-03
-6.8091294e-03
-5.9991708e-03
-5.3820432e-03
-5.5148440e-03
-5.3187170e-03
-3.4462827e-03
1.0444018e-03
6.0384139e-03
9.1980943e-03
1.2662015e-02
1.6905104e-02
1.9197593e-02
1.7507687e-02
1.1613690e-02
3.9577191e-03
-3.1560594e-03
-9.9869577e-03
-1.6374236e-02
-2.0546413e-02
-2.0108678e-02
-1.4265921e-02
-6.5276435e-03
-9.5692557e-04
1.3589747e-03
2.0948999e-03
4.2445263e-03
8.7591514e-03
1.3106363e-02
1.4974421e-02
1.5069004e-02
1.4454223e-02
1.1710588e-02
5.8097321e-03
-1.8488197e-03
-1.0486187e-02
-1.7473637e-02
-1.9242016e-02
-1.7595858e-02
-1.5544537e-02
-1.4069553e-02
-1.3291308e-02
-1.1578959e-02
-8.7350536e-03
-6.6054082e-03
-4.5778314e-03
6.8363006e-04
8.8947813e-03
1.5037164e-02
1.7050987e-02
1.6589187e-02
1.4159294e-02
1.0060974e-02
4.6436149e-03
-2.4339625e-03
-8.8793055e-03
-1.2043291e-02
-1.2888724e-02
-1.2996875e-02
-1.1775626e-02
-8.8177346e-03
-5.1979323e-03
-3.8045079e-04
6.0216135e-03
1.1462340e-02
1.4200268e-02
1.6944906e-02
2.2476415e-02
2.6999100e-02
2.6125213e-02
2.0825224e-02
1.3002768e-02
5.5285565e-03
7.3339899e-04
-3.0710758e-03
-6.9550551e-03
-9.4764101e-03
-9.7494404e-03
-9.4194573e-03
-1.0795518e-02
-1.2119361e-02
-9.7160056e-03
-4.8624416e-03
-7.6490371e-04
1.7582926e-03
2.5823595e-03
3.5398091e-03
5.4737241e-03
5.4094066e-03
1.1142267e-03
-6.9755497e-03
-1.5611800e-02
-2.1790122e-02
-2.7805590e-02
-3.4431612e-02
-3.5929075e-02
-2.6830731e-02
-1.1048607e-02
1.0061157e-03
6.1622717e-03
7.0374206e-03
7.1190195e-03
8.5676010e-03
1.0256614e-02
1.2320176e-02
1.5438097e-02
1.8442401e-02
2.0509479e-02
2.1741563e-02
1.9678164e-02
1.3341962e-02
7.2050915e-03
4.3965467e-03
4.9714854e-03
7.4393432e-03
9.4019418e-03
1.1076273e-02
1.4552197e-02
1.9775421e-02
2.2714605e-02
1.9575164e-02
8.6422969e-03
-5.7207509e-03
-1.3456289e-02
-1.3815375e-02
-1.1342372e-02
-6.0079814e-03
6.1893073e-04
4.2400679e-03
2.8480297e-03
-2.5090536e-03
-8.1096263e-03
-1.0934291e-02
-1.3339452e-02
-1.7617146e-02
-2.1565717e-02
-2.2071010e-02
-1.7884845e-02
-1.1732299e-02
-7.3711246e-03
-5.3633294e-03
-4.0745909e-03
-1.4323391e-03
2.6884595e-03
7.3685176e-03
1.2406193e-02
1.7505394e-02
2.2061741e-02
2.4205539e-02
2.2021396e-02
1.5452173e-02
6.6515815e-03
-9.4527577e-04
-7.0258121e-03
-1.2750345e-02
-1.7438554e-02
-2.0215946e-02
-1.9729897e-02
-1.6304224e-02
-1.2549828e-02
-8.8363466e-03
-4.0957824e-03
2.3908623e-03
9.0997832e-03
1.2705089e-02
1.4207471e-02
1.5864563e-02
1.7505385e-02
1.8455015e-02
1.6887024e-02
1.2073485e-02
5.3194775e-03
-2.5499215e-03
-1.0412663e-02
-1.6483746e-02
-2.0198976e-02
-2.0699122e-02
-1.7001980e-02
-1.2354169e-02
-1.0810215e-02
-1.1940889e-02
-1.3021316e-02
-1.1969426e-02
-7.5852846e-03
-8.8031598e-04
4.8367450e-03
9.4483299e-03
1.5185567e-02
2.1582062e-02
2.5732489e-02
2.5118525e-02
2.0282941e-02
1.4274334e-02
8.9108794e-03
2.9691825e-03
-4.6110555e-03
-1.2941697e-02
-1.8348103e-02
-1.8329513e-02
-1.5933484e-02
-1.4409815e-02
-1.3384584e-02
-1.0637830e-02
-5.9810900e-03
-1.2985990e-03
3.2216333e-03
7.4026069e-03
1.1168761e-02
1.4797436e-02
1.4887357e-02
1.0254656e-02
4.4851008e-03
-6.1654423e-04
-4.3448915e-03
-7.7061453e-03
-1.2582163e-02
-1.6951952e-02
-1.7165683e-02
-1.4113932e-02
-1.1965884e-02
-1.1230422e-02
-8.5031686e-03
-1.2555172e-03
7.6138518e-03
1.3793565e-02
1.6128960e-02
1.6200880e-02
1.7424294e-02
1.9489620e-02
1.8560781e-02
1.3580325e-02
7.1451332e-03
1.4117100e-03
-3.9625149e-03
-1.0433455e-02
-1.6786506e-02
-1.9303137e-02
-1.7220453e-02
-1.2843663e-02
-7.9086835e-03
-3.4480730e-03
-1.7609027e-04
2.5515994e-03
4.6586827e-03
5.6007223e-03
6.1526732e-03
6.7519258e-03
8.8558101e-03
1.2129275e-02
1.3393868e-02
1.0917818e-02
5.0793012e-03
-8.2833867e-04
-4.6170851e-03
-7.7589442e-03
-1.1724577e-02
-1.5539262e-02
-1.6862812e-02
-1.5323306e-02
-1.3229605e-02
-1.2071334e-02
-1.1078720e-02
-9.2688065e-03
-6.0898153e-03
-1.6614900e-03
2.6276028e-03
5.6284814e-03
7.8742817e-03
9.0848786e-03
8.0208385e-03
5.6921171e-03
6.8975888e-03
1.2973596e-02
1.7638007e-02
1.5959619e-02
7.9405803e-03
-1.2860173e-03
-5.4528900e-03
-5.7304291e-03
-6.7546310e-03
-8.8975834e-03
-1.1127133e-02
-1.1914606e-02
-8.5542991e-03
-2.4360379e-03
2.6269042e-03
6.1173162e-03
1.0499977e-02
1.6393564e-02
2.0585810e-02
1.9347679e-02
1.3432059e-02
6.9096287e-03
-2.0461476e-04
-9.2100627e-03
-1.7538856e-02
-2.1734561e-02
-2.1505823e-02
-1.9033889e-02
-1.7372629e-02
-1.8536124e-02
-1.9910713e-02
-1.9026985e-02
-1.5906113e-02
-1.0041008e-02
-3.6196512e-04
1.2836177e-02
2.6291608e-02
3.8301241e-02
4.8296904e-02
5.4515787e-02
5.8247588e-02
6.3655525e-02
7.1456836e-02
7.7926542e-02
8.2316204e-02
8.6097215e-02
9.0464486e-02
9.4071452e-02
9.0754670e-02
7.2388703e-02
2.4092792e-02
-4.2417078e-02
-8.5177545e-02
-9.5356054e-02
-8.8724957e-02
-7.3770883e-02
-5.7059238e-02
-4.2517448e-02
-3.1523151e-02
-2.3747148e-02
-1.8713039e-02
-1.6847727e-02
-1.8108159e-02
-2.1872621e-02
-2.7356687e-02
-3.2608740e-02
-3.5890361e-02
-3.9052561e-02
-4.5805433e-02
-5.6313642e-02
-6.4884121e-02
-6.5656797e-02
-5.9531254e-02
-4.9434075e-02
-3.4226807e-02
-6.2129756e-03
3.2655089e-02
6.1442380e-02
7.0297957e-02
6.5805487e-02
5.5198970e-02
4.2587355e-02
2.8161037e-02
1.1958182e-02
-4.2892224e-03
-1.6931546e-02
-2.3202420e-02
-2.3009882e-02
-2.0083168e-02
-1.8440659e-02
-1.8049491e-02
-1.9306992e-02
-2.3813348e-02
-3.1658520e-02
-4.0703562e-02
-4.9602386e-02
-5.8350177e-02
-6.5012967e-02
-6.7894139e-02
-5.9981758e-02
-2.4980835e-02
2.7025945e-02
5.8803382e-02
6.3150690e-02
5.6727297e-02
4.7823313e-02
3.8772615e-02
3.0705230e-02
2.3597448e-02
1.6363438e-02
1.1015346e-02
1.0301629e-02
1.2767705e-02
1.4753057e-02
1.4870605e-02
1.4942154e-02
1.6827044e-02
1.8684733e-02
1.7973967e-02
1.4360044e-02
9.1457573e-03
5.7313813e-03
4.8332942e-03
2.9969609e-03
-1.4989367e-03
-7.8873625e-03
-1.3486563e-02
-1.5722441e-02
-1.5473035e-02
-1.3872184e-02
-1.1168695e-02
-6.9724759e-03
-1.2372255e-03
3.9881124e-03
7.2047623e-03
1.0054996e-02
1.4397139e-02
1.7928454e-02
1.7244121e-02
1.2075814e-02
5.4576434e-03
-1.7649465e-04
-4.8898116e-03
-9.4312544e-03
-1.3793577e-02
-1.5743493e-02
-1.4364835e-02
-1.1703702e-02
-9.3663529e-03
-6.9875121e-03
-2.6926172e-03
4.3326079e-03
1.1144074e-02
1.5077427e-02
1.6238522e-02
1.5434041e-02
1.4330286e-02
1.2749093e-02
9.4772423e-03
5.2304078e-03
7.0011805e-04
-4.1667395e-03
-9.5113769e-03
-1.5695545e-02
-2.2738601e-02
-2.7631738e-02
-2.6670046e-02
-2.0876028e-02
-1.3878237e-02
-8.5375478e-03
-4.4811229e-03
7.7724263e-04
7.1699124e-03
1.2244952e-02
1.4843150e-02
1.5630720e-02
1.4729140e-02
1.2762288e-02
1.0013557e-02
5.1941723e-03
-4.9681760e-04
-3.6466125e-03
-5.6609480e-03
-9.2943077e-03
-1.2223219e-02
-1.2711655e-02
-1.0856360e-02
-7.5486549e-03
-5.0899962e-03
-1.7179638e-03
7.0761689e-03
1.9195987e-02
2.6902286e-02
2.7371607e-02
2.4017655e-02
2.0491177e-02
1.8503738e-02
1.6378615e-02
1.0879798e-02
2.3968520e-03
-6.0560213e-03
-1.3222916e-02
-1.9385449e-02
-2.3680275e-02
-2.5534920e-02
-2.5211455e-02
-2.1538984e-02
-1.5460294e-02
-1.0123362e-02
-6.7273226e-03
-5.3836830e-03
-4.5063730e-03
-1.6581513e-03
2.8731816e-03
9.1493656e-03
1.8191168e-02
2.6945311e-02
3.0992059e-02
2.9317320e-02
2.2693600e-02
1.4293371e-02
7.7155948e-03
1.5136518e-03
-6.6528040e-03
-1.5034545e-02
-2.1399157e-02
-2.4578072e-02
-2.3091440e-02
-1.8024032e-02
-1.0546897e-02
7.5400479e-04
1.3595245e-02
2.0798262e-02
1.9364373e-02
1.3662548e-02
6.9464852e-03
-8.0860146e-04
-8.6561112e-03
-1.4628346e-02
-1.6958287e-02
-1.5489573e-02
-1.2513795e-02
-9.9531893e-03
-7.2934619e-03
-2.5305868e-03
6.3355572e-03
1.7574262e-02
2.6080838e-02
2.9341389e-02
2.6974385e-02
1.8609235e-02
9.0543354e-03
4.8505662e-03
4.6259942e-03
4.3687032e-03
3.3423472e-03
-2.6881981e-04
-6.4728399e-03
-1.1606485e-02
-1.4810947e-02
-1.6068873e-02
-1.4897403e-02
-1.2967914e-02
-1.0743858e-02
-6.8247784e-03
3.4664758e-04
1.0892015e-02
2.2005696e-02
3.1432752e-02
4.0594927e-02
5.2224232e-02
6.6088044e-02
7.6536436e-02
7.6605200e-02
6.2746281e-02
2.9120044e-02
-1.6781332e-02
-5.0688233e-02
-6.6677110e-02
-7.1330805e-02
-6.5974405e-02
-5.5951854e-02
-4.8745676e-02
-4.4797599e-02
-3.9861101e-02
-3.1708525e-02
-2.1274833e-02
-1.1516748e-02
-4.8046361e-03
-1.2112007e-03
1.2148686e-03
4.2313289e-03
7.5954330e-03
1.0407698e-02
1.2033555e-02
1.2023686e-02
9.9735982e-03
4.6792275e-03
-2.9736749e-03
-8.7832359e-03
-1.0103729e-02
-8.1148688e-03
-5.5151253e-03
-3.9608220e-03
-2.2463639e-03
1.7102884e-03
6.5299910e-03
8.8938428e-03
8.5650653e-03
8.4170428e-03
1.0213396e-02
1.1969951e-02
1.1968471e-02
9.3560548e-03
2.9745215e-03
-5.4191800e-03
-1.5853506e-02
-3.0038175e-02
-4.5364045e-02
-5.7680759e-02
-6.6573817e-02
-7.4100562e-02
-8.1730057e-02
-8.6986839e-02
-7.9895445e-02
-4.6649377e-02
3.8669194e-03
4.0534280e-02
5.6015361e-02
6.3480608e-02
6.8410601e-02
6.8937921e-02
6.2187253e-02
4.8707792e-02
3.1394521e-02
1.4050686e-02
8.4155142e-05
-9.5733265e-03
-1.4585829e-02
-1.4314397e-02
-9.6660772e-03
-3.6161945e-03
-1.0416042e-03
-2.8667105e-03
-5.1956269e-03
-7.0953530e-03
-1.0446541e-02
-1.4296327e-02
-1.4900895e-02
-8.8942126e-03
5.3584748e-03
2.2076449e-02
3.1987128e-02
3.4676020e-02
3.3250361e-02
2.8657422e-02
2.2108956e-02
1.3750140e-02
4.9200716e-03
-1.1415560e-03
-3.5536577e-03
-4.2456674e-03
-5.3126519e-03
-5.5078677e-03
-2.2644098e-03
2.8784687e-03
7.2388332e-03
1.0652545e-02
1.5272242e-02
2.2489819e-02
2.9339375e-02
3.1733425e-02
2.9120213e-02
2.3890197e-02
1.5909261e-02
1.1973207e-03
-1.9113715e-02
-3.6453388e-02
-4.5287062e-02
-4.7095717e-02
-4.5114854e-02
-4.1781431e-02
-3.6603534e-02
-2.6393629e-02
-1.2005617e-02
1.2483789e-03
9.7261762e-03
1.5067998e-02
2.1436368e-02
2.8751098e-02
3.2878182e-02
3.3005516e-02
3.1476555e-02
2.9896291e-02
2.9725156e-02
3.0354592e-02
3.0415047e-02
2.9655382e-02
2.7916017e-02
2.3680175e-02
9.6392850e-03
-1.3395887e-02
-3.0596281e-02
-3.6240441e-02
-3.5454465e-02
-3.2199577e-02
-2.7741863e-02
-2.2321800e-02
-1.8043135e-02
-1.6623488e-02
-1.7376319e-02
-1.8722491e-02
-1.9292535e-02
-1.8349433e-02
-1.6322528e-02
-1.5944662e-02
-1.8777326e-02
-2.2862127e-02
-2.6905353e-02
-3.2585663e-02
-4.1515334e-02
-5.2389319e-02
-6.0739779e-02
-6.1707672e-02
-5.1925760e-02
-2.4992191e-02
1.1968471e-02
3.6846930e-02
4.5591129e-02
4.6176554e-02
4.1444572e-02
3.5080931e-02
3.1462838e-02
3.0409823e-02
2.9265052e-02
2.6174517e-02
2.0109794e-02
1.4427371e-02
1.3272087e-02
1.5378150e-02
1.7428132e-02
1.8899335e-02
2.0312965e-02
2.1406354e-02
2.1978417e-02
2.0711514e-02
1.6384575e-02
1.0101984e-02
3.9344592e-03
-1.7483064e-03
-6.0789539e-03
-7.7101816e-03
-8.5415074e-03
-9.9250942e-03
-1.0477317e-02
-9.5976304e-03
-7.6633402e-03
-5.3122948e-03
-3.7460473e-03
-3.4566515e-03
-3.0569484e-03
-6.3312968e-04
3.1975926e-03
6.1445976e-03
7.2636103e-03
6.5146297e-03
4.1065139e-03
1.4327221e-03
6.0266404e-04
1.9999318e-03
4.3406770e-03
7.2109277e-03
1.1009166e-02
1.5447402e-02
1.6464730e-02
8.8031598e-03
-3.9837054e-03
-1.3716094e-02
-1.8452390e-02
-2.0410175e-02
-2.0702656e-02
-1.7455366e-02
-9.9537854e-03
-1.5979549e-03
4.1211168e-03
6.4974140e-03
8.2180727e-03
1.0625144e-02
1.1185481e-02
8.5914557e-03
3.7357533e-03
-1.1267688e-03
-3.0538593e-03
-1.9328990e-03
-2.3513923e-04
1.0762175e-03
3.1078974e-03
6.1345252e-03
9.2115321e-03
1.0196755e-02
8.3605682e-03
7.1580922e-03
1.0995575e-02
1.8895099e-02
2.5396678e-02
2.8697163e-02
2.9340620e-02
2.4898961e-02
1.2272258e-02
-6.5279210e-03
-2.5212846e-02
-3.8620352e-02
-4.4931373e-02
-4.7156336e-02
-4.8570645e-02
-4.8134245e-02
-4.4614727e-02
-3.9065923e-02
-3.4093260e-02
-3.0302450e-02
-2.6213084e-02
-2.1214438e-02
-1.5668957e-02
-1.2067704e-02
-8.5788530e-03
5.0944839e-03
2.6843216e-02
3.8539460e-02
3.5937255e-02
2.9532766e-02
2.4895764e-02
2.1765871e-02
1.9304427e-02
1.6941993e-02
1.3664157e-02
9.6688186e-03
7.9493103e-03
9.5127950e-03
1.1718172e-02
1.2995370e-02
1.4557294e-02
1.9385598e-02
2.7367539e-02
3.4084725e-02
3.6735150e-02
3.6387620e-02
3.5316478e-02
3.3619860e-02
2.9175962e-02
1.9366692e-02
4.9582028e-04
-2.4881587e-02
-4.4957860e-02
-5.2688028e-02
-4.9918354e-02
-4.0756119e-02
-2.9160566e-02
-1.8138166e-02
-7.7266211e-03
4.5012651e-03
1.8742205e-02
2.8837588e-02
2.6737772e-02
1.2734932e-02
-3.3428823e-03
-1.2617505e-02
-1.5563101e-02
-1.5646038e-02
-1.2783825e-02
-6.6929535e-03
4.6824140e-04
5.2319556e-03
5.7613989e-03
3.1931592e-03
-5.5838621e-04
-7.5454277e-03
-1.7268585e-02
-2.1977474e-02
-1.9328252e-02
-1.2680657e-02
-3.5927522e-03
5.5353846e-03
1.1172738e-02
1.2768268e-02
1.2198906e-02
1.0912053e-02
7.5963540e-03
2.0063756e-03
-1.9706768e-03
-1.7560523e-03
1.8119338e-03
5.6466887e-03
8.8368802e-03
1.3658633e-02
2.2031809e-02
3.2417035e-02
3.9887119e-02
4.2862203e-02
4.2880950e-02
3.9130153e-02
2.5701428e-02
3.4094751e-03
-1.5146535e-02
-2.4645729e-02
-2.9199095e-02
-3.3562384e-02
-3.8898911e-02
-4.2153872e-02
-4.0943221e-02
-3.6602384e-02
-3.2395181e-02
-2.8273096e-02
-2.3220400e-02
-1.7837715e-02
-1.2600805e-02
-7.5660180e-03
-2.2211309e-03
3.0202728e-03
7.5534354e-03
1.1502770e-02
1.3667694e-02
1.2348863e-02
6.8317581e-03
-1.8209317e-03
-1.0454441e-02
-1.7071421e-02
-2.1642476e-02
-2.4413442e-02
-2.5095229e-02
-2.2938931e-02
-1.9642936e-02
-1.7781261e-02
-1.7269792e-02
-1.5211655e-02
-8.2953139e-03
1.6519633e-03
1.0627604e-02
1.7674087e-02
2.2365479e-02
2.4385732e-02
2.2905929e-02
1.7755408e-02
1.1345773e-02
4.8925116e-03
-1.9171623e-03
-8.0935479e-03
-1.1642902e-02
-1.1686975e-02
-8.5542685e-03
-3.5523861e-03
1.0011227e-03
4.3445511e-03
7.5640276e-03
1.1878674e-02
1.7245091e-02
2.1703054e-02
2.3373977e-02
2.2762384e-02
2.1486798e-02
1.8157782e-02
1.0902628e-02
2.3992620e-03
-5.5243000e-03
-1.2937584e-02
-1.8183048e-02
-2.1929514e-02
-2.5198281e-02
-2.6558991e-02
-2.7317578e-02
-3.0446925e-02
-3.5653102e-02
-4.0939826e-02
-4.4109628e-02
-4.1501232e-02
-2.9033689e-02
-1.9206477e-04
3.8599269e-02
6.4651784e-02
7.1777086e-02
6.6898049e-02
5.4386246e-02
4.0019550e-02
2.7134101e-02
1.4835108e-02
3.5909334e-04
-1.5575607e-02
-2.6395660e-02
-2.6366785e-02
-1.8007138e-02
-8.6106812e-03
-1.1606472e-03
6.3152582e-03
1.5586318e-02
2.4501466e-02
3.0157169e-02
3.3889071e-02
3.7802725e-02
4.0010967e-02
3.7406768e-02
2.9154511e-02
1.3210829e-02
-7.8936253e-03
-2.4233904e-02
-3.2743973e-02
-3.6890986e-02
-3.8217321e-02
-3.6504052e-02
-3.2187202e-02
-2.7031801e-02
-2.1660881e-02
-1.5701369e-02
-8.9918946e-03
-9.2096621e-04
5.7563367e-03
7.1591744e-03
5.5291588e-03
4.7438142e-03
4.5442308e-03
1.7719827e-03
-5.3090374e-03
-1.4330253e-02
-2.1413324e-02
-2.5210294e-02
-2.5954383e-02
-2.3611631e-02
-1.5903746e-02
-4.2761982e-03
3.5709418e-03
6.2626585e-03
7.4488225e-03
9.0301346e-03
1.0953265e-02
1.2947894e-02
1.5992488e-02
1.9013825e-02
1.9407954e-02
1.6380189e-02
1.0321113e-02
9.5850537e-04
-8.4786480e-03
-1.2702993e-02
-1.2123522e-02
-1.1512651e-02
-1.3608680e-02
-1.7187709e-02
-1.9011484e-02
-1.8733991e-02
-2.0181264e-02
-2.2775261e-02
-2.0735453e-02
-1.0530433e-02
4.7154829e-03
1.7180921e-02
2.3425167e-02
2.5803822e-02
2.7246707e-02
2.8246829e-02
2.6654043e-02
2.1451176e-02
1.4163875e-02
7.0097384e-03
1.5144434e-03
-3.2597737e-03
-7.5538821e-03
-8.8469913e-03
-6.5068776e-03
-2.1229446e-03
2.4274240e-03
6.3933741e-03
1.1160140e-02
1.8041727e-02
2.5452789e-02
2.9430066e-02
2.8691097e-02
2.3761726e-02
1.0763441e-02
-1.1525140e-02
-3.6844540e-02
-6.1687595e-02
-8.4843351e-02
-1.0231909e-01
-1.1187378e-01
-1.1427407e-01
-1.1129232e-01
-1.0429725e-01
-9.2539395e-02
-7.5535885e-02
-5.4901646e-02
-3.1376827e-02
-4.2797599e-03
2.6236929e-02
5.9796205e-02
9.4408563e-02
1.2890084e-01
1.6574482e-01
2.0402799e-01
2.3609670e-01
2.5244457e-01
2.4657686e-01
2.1362167e-01
1.3755379e-01
3.2156495e-02
-4.7100493e-02
-8.4172615e-02
-9.5612754e-02
-9.2126075e-02
-8.5208398e-02
-8.0147244e-02
-7.4445915e-02
-6.3100835e-02
-4.7502012e-02
-3.6292645e-02
-3.3741317e-02
-3.5949063e-02
-3.8084829e-02
-3.9112908e-02
-3.9051997e-02
-3.7135771e-02
-3.4542978e-02
-3.2939319e-02
-3.3878439e-02
-3.8985196e-02
-4.4885159e-02
-4.4146587e-02
-3.2642965e-02
-5.8353216e-03
2.8764746e-02
4.9110684e-02
5.2700962e-02
4.9934551e-02
4.4174561e-02
3.7119359e-02
2.9202574e-02
2.1574095e-02
1.4907591e-02
6.4259674e-03
-5.6971490e-03
-1.8151632e-02
-2.4943658e-02
-2.4862628e-02
-2.2397250e-02
-1.9677025e-02
-1.4121815e-02
-4.1100718e-03
9.3197568e-03
2.3541529e-02
3.5060295e-02
4.2258337e-02
4.4113742e-02
3.9374812e-02
2.9875747e-02
1.8807801e-02
9.0690689e-03
2.1665995e-03
-3.6934036e-03
-1.1374289e-02
-1.9324255e-02
-2.1821334e-02
-1.8686914e-02
-1.4280993e-02
-1.1093058e-02
-1.0024726e-02
-1.0357171e-02
-1.1553577e-02
-1.3069127e-02
-1.4165072e-02
-1.5248162e-02
-1.6467496e-02
-1.6725266e-02
-1.5503164e-02
-1.5163199e-02
-1.6713656e-02
-1.7801738e-02
-1.7529869e-02
-1.5490214e-02
-8.3334427e-03
1.9851291e-03
6.9943748e-03
4.7033530e-03
-1.0936721e-03
-6.1087350e-03
-6.1356627e-03
-9.9837952e-04
5.8484744e-03
1.1706452e-02
1.5345022e-02
1.7439957e-02
2.0386697e-02
2.3894515e-02
2.5978837e-02
2.7917756e-02
3.0981963e-02
3.3060043e-02
3.0083461e-02
1.8654120e-02
3.0160319e-03
-8.0887620e-03
-1.2404028e-02
-1.3481307e-02
-1.5058401e-02
-1.8000355e-02
-1.8500764e-02
-1.0760570e-02
5.5249948e-03
2.1705466e-02
2.9295201e-02
2.9094242e-02
2.3586617e-02
1.2098135e-02
-2.6266287e-03
-1.5582557e-02
-2.3782301e-02
-2.5998981e-02
-2.3891256e-02
-2.0424461e-02
-1.5371632e-02
-8.3055614e-03
-1.9138473e-03
2.0828890e-03
5.4782956e-03
1.1039273e-02
1.8803044e-02
2.5928398e-02
2.8385274e-02
2.3645909e-02
1.1626326e-02
-3.0314504e-03
-1.2240650e-02
-1.6139173e-02
-1.9951475e-02
-2.3977988e-02
-2.5602942e-02
-2.2890937e-02
-1.6863573e-02
-1.0627753e-02
-8.1550392e-03
-1.1571736e-02
-1.7052046e-02
-1.9222555e-02
-1.7346800e-02
-1.2095882e-02
-3.9706742e-03
2.5108005e-03
3.3298053e-03
1.3618203e-03
1.9424670e-03
4.9249215e-03
5.6889045e-03
3.7766229e-03
2.9878973e-03
6.9588524e-03
1.3952273e-02
1.6776570e-02
1.4649825e-02
1.1935994e-02
1.0144846e-02
7.9861038e-03
2.8185861e-03
-4.3576039e-03
-8.6719480e-03
-7.9670122e-03
-4.5098718e-03
-1.7146926e-03
-5.9494301e-05
2.7176403e-03
6.4333258e-03
8.8502795e-03
9.0973385e-03
6.9072494e-03
2.9194786e-03
-8.6162114e-04
-3.6736936e-03
-6.4998781e-03
-9.2066807e-03
-1.0099492e-02
-9.0279320e-03
-8.0694930e-03
-8.0360588e-03
-7.9026424e-03
-6.3792564e-03
-2.1086571e-03
3.1661177e-03
6.2799089e-03
7.4814444e-03
7.8596373e-03
7.5063977e-03
5.5329264e-03
1.0371686e-03
-4.0485797e-03
-8.1521292e-03
-1.1749196e-02
-1.5225453e-02
-1.8484352e-02
-1.9699682e-02
-1.7140590e-02
-1.1827940e-02
-6.0162383e-03
-2.2052895e-03
-2.4496198e-03
-3.9469545e-03
-8.8645404e-04
6.3507682e-03
1.4659247e-02
2.5202571e-02
3.4567351e-02
3.5043615e-02
2.6218569e-02
1.3467380e-02
3.2434622e-03
-5.0548758e-04
-2.6182954e-04
-1.0483131e-03
-3.6732454e-03
-4.9047341e-03
-2.6527507e-03
4.6369720e-04
3.7642728e-05
-2.6905277e-03
-2.5408987e-03
2.0820737e-03
8.4799919e-03
1.3643338e-02
1.7588437e-02
2.1690551e-02
2.4413547e-02
1.9861787e-02
8.4744925e-03
-2.6523130e-04
-2.4874013e-03
-5.9927051e-04
1.0785968e-03
-2.2059189e-04
-3.2463766e-03
-6.7637666e-03
-1.0195786e-02
-1.3674917e-02
-1.7380480e-02
-2.0203460e-02
-2.0143690e-02
-1.6647740e-02
-1.3132913e-02
-1.2738356e-02
-1.3329137e-02
-1.2508374e-02
-1.1426571e-02
-1.2561219e-02
-1.6337961e-02
-2.0825725e-02
-2.4477762e-02
-2.3910681e-02
-1.4632329e-02
-1.2974300e-03
7.5191382e-03
1.3084769e-02
1.7673716e-02
1.9730854e-02
1.9451780e-02
1.7987872e-02
1.7377042e-02
1.8160981e-02
1.7662190e-02
1.4769483e-02
1.1195846e-02
7.6167582e-03
3.2577814e-03
-1.6573476e-03
-5.3225897e-03
-7.1187404e-03
-7.9705725e-03
-8.2534262e-03
-1.0126912e-02
-1.4468637e-02
-1.6781298e-02
-1.4180293e-02
-7.7177375e-03
-3.9308452e-04
5.2178193e-03
9.9448199e-03
1.4959244e-02
1.8888509e-02
1.8306037e-02
1.2150302e-02
3.4189662e-03
-4.9170819e-03
-1.2276625e-02
-1.9056522e-02
-2.4094380e-02
-2.4756480e-02
-2.0029540e-02
-1.3425373e-02
-8.5759055e-03
-5.3567794e-03
-2.5566537e-03
1.1228721e-03
6.0622143e-03
9.5019712e-03
9.1945476e-03
7.1205851e-03
5.7932306e-03
6.4778194e-03
9.3370927e-03
1.1354933e-02
9.6639039e-03
6.0804293e-03
3.4633712e-03
1.9408233e-03
1.2907817e-03
2.3641907e-03
5.6018791e-03
1.0001952e-02
1.3209129e-02
1.4403754e-02
1.5459782e-02
1.7088956e-02
1.6959110e-02
1.2529799e-02
5.2688445e-03
-4.9461456e-04
-4.7410621e-03
-1.0166383e-02
-1.6521316e-02
-2.2304254e-02
-2.5612069e-02
-2.5017908e-02
-2.0835764e-02
-1.2763498e-02
-2.2542173e-03
6.7956250e-03
1.2460323e-02
1.3497585e-02
9.9443329e-03
5.0868446e-03
3.8350921e-03
8.1231970e-03
1.3102271e-02
1.3798425e-02
1.1754845e-02
1.0006719e-02
8.3633026e-03
5.0691466e-03
-8.6719969e-04
-7.0875551e-03
-9.7107399e-03
-6.9152089e-03
-7.8656458e-04
4.7184376e-03
9.3289155e-03
1.4622937e-02
2.0097427e-02
2.1774157e-02
1.3158059e-02
-2.5679873e-03
-1.2227193e-02
-1.3845185e-02
-1.5293946e-02
-1.9642829e-02
-2.5115528e-02
-2.8370427e-02
-2.6585670e-02
-1.8165425e-02
-4.2675575e-03
8.9723597e-03
1.5317745e-02
1.5385669e-02
1.2440247e-02
8.4976729e-03
5.7055802e-03
4.6125352e-03
5.1168595e-03
7.2566318e-03
9.1443802e-03
1.0249729e-02
1.0553676e-02
8.5567844e-03
5.7863493e-03
2.7983132e-03
-2.4805341e-03
-8.5516768e-03
-1.2951858e-02
-1.5288544e-02
-1.6060073e-02
-1.6535028e-02
-1.6543253e-02
-1.4839072e-02
-1.1927055e-02
-9.7447698e-03
-9.0064547e-03
-7.0486440e-03
-1.4734729e-03
5.2992104e-03
9.1980506e-03
9.5317850e-03
9.2094966e-03
9.9908653e-03
9.5668758e-03
5.7335478e-03
3.7552551e-05
-4.7190674e-03
-8.0632648e-03
-1.0446737e-02
-1.0581109e-02
-8.0587350e-03
-4.8717842e-03
-2.1611341e-03
-2.3524404e-04
6.4131076e-04
1.0084810e-03
1.9217471e-03
4.1334228e-03
7.0816859e-03
9.7041199e-03
1.0807149e-02
1.1300656e-02
1.2923308e-02
1.3142525e-02
9.8248273e-03
4.8318356e-03
7.2627966e-04
-1.0552633e-03
-1.1592279e-03
-1.2836207e-03
-2.0492039e-03
-1.2064781e-03
1.8785212e-03
2.0585118e-03
-4.4091002e-03
-1.2490241e-02
-1.4687094e-02
-1.0751579e-02
-5.4358103e-03
-2.8449232e-03
-2.7244832e-03
-1.3540124e-03
1.6982647e-03
3.4406107e-03
2.8400950e-03
6.3886390e-04
-2.0477054e-03
-3.6855189e-03
-5.6461924e-03
-1.0762480e-02
-1.7824464e-02
-2.3473493e-02
-2.6636075e-02
-2.9275080e-02
-3.3827056e-02
-3.9976561e-02
-4.4883130e-02
-4.5291665e-02
-3.8018596e-02
-1.7708153e-02
1.2778303e-02
3.8006201e-02
5.1736526e-02
5.7609446e-02
5.7885560e-02
5.4966207e-02
5.0139145e-02
4.3356028e-02
3.3812379e-02
2.1716090e-02
1.0186513e-02
2.7191912e-03
-8.0030810e-04
-3.4956604e-03
-5.8378620e-03
-5.1597767e-03
-7.1705884e-04
6.6991898e-03
1.6218002e-02
2.4559944e-02
2.9033312e-02
3.1510054e-02
3.2932743e-02
2.9920360e-02
1.5218386e-02
-1.0668178e-02
-3.3492651e-02
-4.4804533e-02
-4.6982972e-02
-4.3309434e-02
-3.4810489e-02
-2.3869793e-02
-1.4371003e-02
-7.2440935e-03
-2.3014044e-03
7.1773511e-04
2.6540837e-03
5.1493244e-03
9.0126402e-03
1.3979647e-02
1.9760978e-02
2.3825435e-02
2.3192837e-02
1.7092136e-02
7.8589923e-03
-1.4594945e-03
-9.6758517e-03
-1.3364485e-02
-1.0922391e-02
-7.8178182e-03
-9.6253925e-03
-1.4542688e-02
-1.6439080e-02
-1.3771166e-02
-9.2484007e-03
-5.0909261e-03
-8.9347040e-04
4.2263681e-03
7.4308733e-03
6.8419751e-03
4.8972923e-03
3.5270716e-03
3.3234894e-03
3.3465749e-03
2.1560155e-03
1.5456904e-03
3.1005208e-03
5.7043087e-03
6.7014322e-03
5.4160715e-03
5.3245614e-03
7.9907804e-03
1.1978039e-02
1.4901160e-02
1.2978931e-02
7.1626099e-03
2.3831873e-03
-5.9418119e-04
-3.7394980e-03
-8.3763089e-03
-1.3760014e-02
-1.7714774e-02
-1.8847782e-02
-1.7842037e-02
-1.7025801e-02
-1.6843437e-02
-1.6411295e-02
-1.5423412e-02
-1.4100494e-02
-1.3817642e-02
-1.4100481e-02
-1.3205514e-02
-1.1491732e-02
-9.8313516e-03
-1.0378377e-02
-1.2831504e-02
-1.3286882e-02
-1.0839837e-02
-5.6474387e-03
3.8296697e-03
1.5408502e-02
2.3238867e-02
2.4513193e-02
2.0927301e-02
1.5510466e-02
9.5644571e-03
4.8880322e-03
2.0727154e-03
-3.7255748e-04
-2.2113680e-03
-3.4380032e-03
-4.0744528e-03
-3.1929042e-03
-8.8539776e-04
2.3451660e-03
5.9142710e-03
9.4869230e-03
1.3988931e-02
1.8330430e-02
1.8947701e-02
1.5525751e-02
1.1681934e-02
9.0548168e-03
6.0093951e-03
-6.1761047e-04
-1.0049305e-02
-1.6431508e-02
-1.7605841e-02
-1.5812711e-02
-1.3023040e-02
-9.8808119e-03
-6.8149966e-03
-3.5129857e-03
8.7826916e-04
5.1639197e-03
7.5924757e-03
8.8124478e-03
9.9807505e-03
9.7357405e-03
6.3733234e-03
8.7716474e-04
-4.5149954e-03
-8.2500922e-03
-9.4162933e-03
-9.6095689e-03
-1.1212457e-02
-1.2486449e-02
-1.1556942e-02
-9.2199670e-03
-4.7405205e-03
1.8976927e-03
7.4884252e-03
1.0832667e-02
1.3060153e-02
1.3330642e-02
1.2942408e-02
1.5827061e-02
2.1454017e-02
2.6342148e-02
2.5649748e-02
1.6398177e-02
2.8036432e-03
-9.2325334e-03
-1.7243489e-02
-2.1715776e-02
-2.3182107e-02
-2.0742057e-02
-1.5322752e-02
-9.7338836e-03
-6.6197972e-03
-6.0399547e-03
-4.4188886e-03
1.0216942e-03
8.2076785e-03
1.0761571e-02
6.8206626e-03
1.4762112e-03
-1.9364517e-03
-3.5920339e-03
-4.5462603e-03
-4.4153041e-03
5.8088707e-04
1.1783995e-02
2.2032206e-02
2.3988366e-02
1.7458168e-02
7.7176118e-03
1.5713267e-03
8.3113161e-06
-4.5151701e-04
-1.4284517e-03
-2.1039434e-03
-2.2302995e-03
-3.1825579e-03
-5.0921549e-03
-6.8829206e-03
-7.8026171e-03
-6.5316361e-03
-1.8635618e-03
4.5463753e-03
9.7295242e-03
1.1821096e-02
9.0892605e-03
2.1101237e-03
-4.7875297e-03
-8.6175865e-03
-1.0029985e-02
-9.3058627e-03
-5.9950455e-03
-2.0417085e-03
6.5744821e-05
8.5370141e-04
2.9290945e-03
5.6581801e-03
4.9203364e-03
1.1651234e-03
-5.8095291e-04
8.6425201e-04
3.1625793e-03
5.0021507e-03
6.3768457e-03
8.6728633e-03
1.1997151e-02
1.2086611e-02
3.9332473e-03
-9.7304543e-03
-1.9826747e-02
-2.1536095e-02
-1.6163592e-02
-8.3687717e-03
-2.7262758e-03
4.3345177e-04
3.5767742e-03
6.2092847e-03
5.2708168e-03
1.5139707e-03
-2.6826417e-03
-6.5345646e-03
-9.0392264e-03
-1.0721740e-02
-1.3851400e-02
-1.8385774e-02
-2.2553768e-02
-2.7118626e-02
-3.2750120e-02
-3.7800923e-02
-3.9684618e-02
-3.5585904e-02
-2.4316113e-02
-4.8426062e-03
1.8752501e-02
3.6868650e-02
4.7578411e-02
5.2839100e-02
5.1472756e-02
4.3977713e-02
3.3024417e-02
2.1195429e-02
9.6399750e-03
-6.8319004e-04
-7.8545925e-03
-9.4467326e-03
-5.6032406e-03
-7.7059935e-04
1.8682433e-03
1.8491001e-03
-5.0597737e-04
-2.9135836e-03
-3.4667421e-03
-2.6209781e-03
-1.9271089e-03
-1.4148792e-03
-6.1265187e-04
-1.0329204e-03
-5.8635580e-03
-1.2571914e-02
-1.1424602e-02
-2.9130310e-03
4.3728489e-03
8.5264793e-03
1.0872248e-02
1.2308064e-02
1.4038370e-02
1.5153695e-02
1.2765541e-02
7.4528798e-03
2.9163739e-03
7.5285557e-04
-1.6336811e-03
-7.4783948e-03
-1.4338370e-02
-1.8084794e-02
-1.8704036e-02
-1.8076665e-02
-1.6247341e-02
-1.2658947e-02
-9.4552370e-03
-6.1025413e-03
-5.9747080e-04
2.2834585e-03
-3.5362955e-04
-2.4502861e-03
-2.8770113e-04
4.0795302e-03
7.7752200e-03
9.2458071e-03
9.6589065e-03
1.0119513e-02
1.0028936e-02
8.1403462e-03
4.1245960e-03
-7.6747661e-04
-4.3791865e-03
-5.3848536e-03
-5.3278842e-03
-6.1877959e-03
-6.8790716e-03
-6.3759360e-03
-5.3619439e-03
-4.6783214e-03
-5.6031463e-03
-7.3005366e-03
-7.7086740e-03
-6.5111990e-03
-3.8253567e-03
-2.3053678e-03
-4.5233129e-03
-8.4112824e-03
-1.2232638e-02
-1.6765697e-02
-2.2425073e-02
-2.6513567e-02
-2.6642273e-02
-2.2985482e-02
-1.7442283e-02
-1.2354261e-02
-5.7948776e-03
3.9353886e-03
1.3480917e-02
1.8900294e-02
1.9477720e-02
1.6875099e-02
1.2309605e-02
6.1255094e-03
-8.5036484e-04
-7.5609107e-03
-1.2851081e-02
-1.4414793e-02
-9.9397984e-03
1.7337875e-03
1.5957442e-02
2.4418102e-02
2.6343729e-02
2.5913710e-02
2.5277152e-02
2.3746692e-02
2.1414451e-02
1.9792437e-02
1.8142010e-02
1.6305943e-02
1.5101654e-02
1.3807262e-02
1.2091024e-02
1.0721119e-02
9.5473689e-03
7.5019838e-03
5.3943008e-03
4.6772789e-03
4.5031781e-03
4.2933481e-03
4.1406698e-03
4.3825603e-03
5.6745682e-03
6.4678314e-03
2.5215598e-03
-6.7268042e-03
-1.4405612e-02
-1.5681005e-02
-1.2495981e-02
-8.4260535e-03
-5.6338122e-03
-4.8470184e-03
-4.9311777e-03
-5.0552887e-03
-6.5088406e-03
-9.4942530e-03
-1.2432599e-02
-1.3351273e-02
-1.2285550e-02
-1.1826225e-02
-1.3479430e-02
-1.5254212e-02
-1.3911637e-02
-9.9092558e-03
-6.5503470e-03
-6.9490376e-03
-8.9895437e-03
-7.0359557e-03
-1.4790667e-03
4.7089618e-03
1.0030885e-02
1.3183503e-02
1.4734814e-02
1.5413339e-02
1.3871310e-02
8.8029248e-03
1.5863063e-03
-3.9696430e-03
-5.9994766e-03
-6.3102141e-03
-6.1550482e-03
-5.3559723e-03
-4.1880022e-03
-3.0802981e-03
-1.6657340e-03
1.0607887e-03
4.9041782e-03
9.1544591e-03
1.3293302e-02
1.5293077e-02
1.3513844e-02
1.0187760e-02
8.2489329e-03
7.3244207e-03
6.0828243e-03
3.8190957e-03
1.3790924e-03
1.2059012e-03
3.3213694e-03
5.5970183e-03
7.6327360e-03
1.0229061e-02
1.3933171e-02
1.8236401e-02
2.1041362e-02
2.0965762e-02
1.7890159e-02
1.1342884e-02
2.5654362e-03
-6.7069756e-03
-1.7125465e-02
-2.7117444e-02
-3.1193360e-02
-2.7113267e-02
-1.9419585e-02
-1.2580406e-02
-7.0452820e-03
-2.7895743e-03
-6.1612943e-05
-9.9800521e-04
-5.7081493e-03
-8.3588349e-03
-7.3241835e-03
-6.0885148e-03
-6.1863958e-03
-7.1148207e-03
-7.2562861e-03
-5.7205960e-03
-3.8618942e-03
-3.5017014e-03
-5.0903656e-03
-6.8018188e-03
-5.6895490e-03
-1.1288144e-03
4.0283921e-03
6.7694429e-03
9.0962375e-03
1.4069716e-02
2.0447116e-02
2.5374838e-02
2.6703033e-02
2.4937360e-02
2.2427855e-02
2.0038769e-02
1.4553892e-02
4.6336001e-03
-3.9249120e-03
-8.1919938e-03
-1.0865231e-02
-1.2531220e-02
-1.2635015e-02
-1.3035125e-02
-1.4218903e-02
-1.4687822e-02
-1.4170055e-02
-1.2575607e-02
-1.0496663e-02
-8.9517428e-03
-6.5666122e-03
-2.9458475e-03
-1.4664643e-05
2.1543210e-03
5.9426018e-03
1.1828503e-02
1.7471508e-02
2.0524629e-02
1.9785280e-02
1.6062821e-02
1.0809508e-02
3.1199833e-03
-7.2054033e-03
-1.5145798e-02
-1.7360514e-02
-1.5811462e-02
-1.3714140e-02
-1.2577309e-02
-1.1059933e-02
-8.1882603e-03
-4.3580890e-03
-1.5732472e-04
3.5969812e-03
6.7247185e-03
9.4839901e-03
1.1114848e-02
1.0729561e-02
8.7423922e-03
5.0187899e-03
1.3710004e-04
-3.5223175e-03
-6.1273212e-03
-9.1491727e-03
-1.1138636e-02
-1.0383578e-02
-8.1546852e-03
-6.5227406e-03
-5.3583261e-03
-3.3009617e-03
4.1076425e-04
5.0598082e-03
9.1357496e-03
1.1670912e-02
1.2596599e-02
1.2716674e-02
1.0979591e-02
5.7935088e-03
-2.3193183e-03
-1.1559297e-02
-1.8994378e-02
-2.2847487e-02
-2.3635575e-02
-2.2262980e-02
-1.9727167e-02
-1.6079987e-02
-1.0687683e-02
-5.7926207e-03
-3.9887090e-03
-3.2741364e-03
-8.5532254e-04
3.5124394e-03
9.7030922e-03
1.5033475e-02
1.6582194e-02
1.5687163e-02
1.3249040e-02
8.4252071e-03
1.5311343e-03
-4.4901850e-03
-6.6229129e-03
-5.2464577e-03
-2.9285614e-03
-2.4213905e-03
-3.0643687e-03
-1.5915634e-03
2.0853195e-03
5.6708285e-03
7.4500132e-03
7.7531567e-03
1.0080408e-02
1.5054461e-02
1.8626254e-02
1.8446836e-02
1.5001525e-02
9.9366371e-03
4.2163406e-03
-2.5963666e-03
-1.0283449e-02
-1.6581437e-02
-1.8540108e-02
-1.6150639e-02
-1.2962282e-02
-1.0482612e-02
-7.0191419e-03
-1.9776321e-03
3.4306726e-03
7.1719507e-03
8.8705809e-03
9.3040701e-03
8.3296016e-03
6.9266171e-03
4.6862451e-03
-2.1534024e-04
-5.8195036e-03
-1.0094451e-02
-1.3513200e-02
-1.6209387e-02
-1.7873476e-02
-1.8627177e-02
-1.8577969e-02
-1.5696052e-02
-7.6183358e-03
3.1663187e-03
1.0962468e-02
1.5143018e-02
1.8654711e-02
2.0985920e-02
2.0373963e-02
1.7020599e-02
1.3271150e-02
1.0839015e-02
8.2022643e-03
3.4279534e-03
-3.4671577e-03
-1.0189334e-02
-1.3283614e-02
-1.2188721e-02
-1.0575158e-02
-1.0175352e-02
-8.4360641e-03
-3.9358738e-03
8.0796382e-04
2.5346405e-03
2.1867444e-03
2.9843796e-03
5.9281603e-03
9.5152459e-03
1.0619874e-02
8.2737800e-03
5.2942589e-03
3.2805595e-03
1.3425480e-03
-1.5491804e-03
-5.0966130e-03
-7.8117714e-03
-8.9566715e-03
-9.0019970e-03
-8.8984779e-03
-8.2941028e-03
-5.2064291e-03
5.9541292e-04
6.3276928e-03
1.0821454e-02
1.5347659e-02
1.9601394e-02
2.1648586e-02
2.0267513e-02
1.6570513e-02
1.2324825e-02
7.9779270e-03
3.7234612e-03
-1.3039743e-03
-7.6339785e-03
-1.2764490e-02
-1.5691675e-02
-1.8031054e-02
-1.9534819e-02
-1.9185994e-02
-1.6651251e-02
-1.0763661e-02
-6.6996359e-04
1.2069771e-02
2.1944667e-02
2.4193751e-02
1.9623435e-02
1.0851174e-02
6.5801693e-04
-9.0816664e-03
-1.7128750e-02
-2.1145530e-02
-2.0108018e-02
-1.6535472e-02
-1.4250807e-02
-1.3658307e-02
-1.2750670e-02
-1.0825202e-02
-7.3848010e-03
-4.2757149e-03
-2.9387844e-03
6.6681450e-04
8.1696787e-03
1.5761354e-02
1.9542648e-02
1.9459258e-02
1.7219755e-02
1.3425070e-02
7.9695055e-03
7.2528151e-04
-5.6299706e-03
-8.6153816e-03
-9.0023723e-03
-8.9873119e-03
-1.0330447e-02
-1.1657314e-02
-1.0123288e-02
-5.2148878e-03
-1.8079730e-04
1.9187700e-03
2.7468105e-03
4.8679103e-03
8.2517984e-03
1.1480271e-02
1.2520303e-02
1.1668881e-02
1.0827235e-02
7.9317816e-03
1.8279682e-03
-5.2817861e-03
-1.2824849e-02
-1.8643259e-02
-2.0346420e-02
-1.9571189e-02
-1.7838372e-02
-1.4940248e-02
-1.0597034e-02
-5.1357717e-03
1.9942850e-03
1.1966316e-02
2.3985377e-02
3.8336143e-02
5.5880834e-02
7.3066207e-02
8.5613408e-02
9.3817680e-02
9.5940873e-02
8.3897236e-02
4.6969221e-02
-6.9029885e-03
-4.8436073e-02
-6.5888612e-02
-6.8269971e-02
-6.4642988e-02
-5.8376348e-02
-5.0222389e-02
-4.3205269e-02
-3.7539272e-02
-3.0742128e-02
-2.3713928e-02
-1.8930420e-02
-1.6074121e-02
-1.4652550e-02
-1.8225933e-02
-3.0265619e-02
-4.7142273e-02
-6.3872795e-02
-8.0309850e-02
-9.6598882e-02
-1.1047744e-01
-1.1881047e-01
-1.1726916e-01
-9.8471894e-02
-4.9326092e-02
1.8970325e-02
6.6478930e-02
8.2411424e-02
8.2728619e-02
7.6253836e-02
6.6769263e-02
5.8642536e-02
5.5302464e-02
5.5272241e-02
5.5112173e-02
5.3893738e-02
5.3988925e-02
5.5650366e-02
5.5868846e-02
5.3543368e-02
4.7691788e-02
3.7973826e-02
2.7436644e-02
1.8791511e-02
1.1299694e-02
4.6172841e-03
3.2400108e-03
9.0067470e-03
1.5058751e-02
1.5716480e-02
1.1115669e-02
2.6661059e-03
-7.3786469e-03
-1.6886530e-02
-2.3567692e-02
-2.5070344e-02
-2.2046592e-02
-1.7310292e-02
-1.3772384e-02
-1.4921456e-02
-2.1993113e-02
-2.9354153e-02
-3.0729721e-02
-2.6736931e-02
-1.9036823e-02
-8.2367098e-03
4.6225276e-03
1.8500355e-02
3.0438147e-02
3.9240940e-02
4.6932269e-02
5.5234300e-02
6.2591722e-02
6.0989065e-02
3.8657905e-02
1.2802016e-03
-2.7420142e-02
-3.9435442e-02
-4.4632741e-02
-5.0828473e-02
-5.6871514e-02
-5.8028129e-02
-5.3414085e-02
-4.5122911e-02
-3.5749293e-02
-2.5957840e-02
-1.4752100e-02
-1.2644024e-03
1.3742732e-02
2.8256458e-02
4.0616687e-02
4.8608274e-02
4.8593899e-02
4.1467862e-02
3.2489100e-02
2.3873774e-02
1.7394396e-02
1.3731156e-02
8.4404917e-03
-3.0745601e-03
-1.7886239e-02
-2.8342536e-02
-3.2909899e-02
-3.6451505e-02
-4.1944382e-02
-4.7999709e-02
-5.1542758e-02
-5.0869989e-02
-4.6981952e-02
-4.0614959e-02
-3.1251160e-02
-1.6696609e-02
3.0795139e-03
2.2377474e-02
3.7682368e-02
4.9620092e-02
5.7495329e-02
6.0362015e-02
5.7476211e-02
4.7119054e-02
3.1979123e-02
1.7669136e-02
5.3675481e-03
-7.3637896e-03
-2.2948669e-02
-3.6834303e-02
-4.0674396e-02
-3.4093883e-02
-2.2842127e-02
-1.2733141e-02
-5.3225657e-03
1.6121500e-03
8.9644496e-03
1.4989443e-02
1.8646436e-02
2.1394297e-02
2.4019257e-02
2.6274677e-02
2.6437106e-02
2.2469829e-02
1.5868365e-02
9.4396685e-03
2.8051398e-03
-6.6033973e-03
-1.8656006e-02
-3.0183447e-02
-3.7478020e-02
-3.8863269e-02
-3.5571636e-02
-2.7456834e-02
-1.6685790e-02
-7.9316390e-03
-1.0427720e-03
4.5535238e-03
8.0060813e-03
1.0079008e-02
1.2517641e-02
1.5984855e-02
1.7578537e-02
1.3940516e-02
6.6345890e-03
3.6073587e-04
-2.4826760e-03
-3.2235379e-03
-4.0689290e-03
-4.0717816e-03
-8.7773076e-04
4.7514625e-03
9.7510439e-03
1.3391684e-02
1.8384415e-02
2.5267516e-02
3.1008912e-02
3.0916800e-02
2.0898169e-02
5.2811673e-03
-5.4765702e-03
-9.4389167e-03
-1.2022359e-02
-1.5964641e-02
-2.1109121e-02
-2.5463846e-02
-2.7998390e-02
-2.9661090e-02
-3.0176133e-02
-2.9504056e-02
-2.8012754e-02
-2.4857842e-02
-1.8835338e-02
-9.7795773e-03
6.4614871e-04
1.0166431e-02
1.7412014e-02
2.2292368e-02
2.3602618e-02
2.1112287e-02
1.7542879e-02
1.5080205e-02
1.3336796e-02
1.2380770e-02
1.2605370e-02
1.0907278e-02
6.9456993e-03
3.4320235e-03
-4.8728564e-04
-4.4114251e-03
-5.0892490e-03
-2.8590333e-03
-1.0188904e-03
-2.0661348e-04
2.2889175e-03
7.1740251e-03
1.1582340e-02
1.3168742e-02
1.1040276e-02
6.3419094e-03
1.4543445e-03
-3.6112587e-03
-9.3501106e-03
-1.4814858e-02
-1.7843623e-02
-1.6650080e-02
-1.3528674e-02
-1.1353427e-02
-8.6446170e-03
-4.4855158e-03
-1.4227558e-04
4.4996489e-03
8.7375118e-03
1.1486607e-02
1.3531227e-02
1.5440060e-02
1.6285356e-02
1.4823578e-02
1.0328090e-02
4.1493878e-03
-5.7783257e-04
-3.3858859e-03
-7.0807044e-03
-1.2339866e-02
-1.5563843e-02
-1.5183088e-02
-1.3755880e-02
-1.3222440e-02
-1.3345125e-02
-1.2040696e-02
-8.9544593e-03
-6.1855450e-03
-3.9820688e-03
1.1130090e-04
7.3999679e-03
1.4071749e-02
1.5943548e-02
1.2794921e-02
6.8689496e-03
1.4928669e-03
-1.8880233e-03
-4.1937665e-03
-7.2134200e-03
-1.0207008e-02
-9.4030964e-03
-4.5973660e-03
4.3283972e-04
3.7860233e-03
6.9018777e-03
1.1312635e-02
1.5902356e-02
1.7736918e-02
1.5337458e-02
1.0469855e-02
6.4264328e-03
4.6452421e-03
3.1126933e-03
-5.0540832e-04
-5.9191200e-03
-8.9433522e-03
-6.5733819e-03
-1.7421711e-03
2.2414701e-03
3.6961278e-03
2.7993195e-03
8.2284602e-04
-3.5322058e-03
-1.0264384e-02
-1.5635623e-02
-1.6555012e-02
-1.3680183e-02
-1.0549600e-02
-7.8159131e-03
-4.2439363e-03
1.5272671e-04
5.5231640e-03
9.7770324e-03
1.0398205e-02
7.7617139e-03
2.6694039e-03
-4.3885422e-03
-1.2053924e-02
-1.8510897e-02
-1.9976206e-02
-1.5309296e-02
-1.0096723e-02
-8.3544449e-03
-7.3649440e-03
-3.9134674e-03
3.4643739e-04
3.3632657e-03
4.7157889e-03
4.7272694e-03
5.2309849e-03
7.0097006e-03
8.5831127e-03
8.1993616e-03
6.9168541e-03
7.5307838e-03
1.0370643e-02
1.2377635e-02
1.0744824e-02
5.8048733e-03
-8.8158937e-04
-7.0930857e-03
-1.0406719e-02
-1.0905334e-02
-1.0978227e-02
-1.1692304e-02
-1.0598460e-02
-7.0520888e-03
-5.1852494e-03
-6.7543135e-03
-8.4410312e-03
-7.3062160e-03
-3.9586742e-03
-6.9387196e-04
1.3584969e-03
3.8186179e-03
8.6250469e-03
1.3464899e-02
1.4930195e-02
1.4826728e-02
1.4972882e-02
1.3545898e-02
1.1279914e-02
9.2695206e-03
5.9231560e-03
2.1626277e-03
3.0127264e-04
-8.2473034e-04
-3.4045252e-03
-7.0512525e-03
-9.9894528e-03
-1.1129557e-02
-1.0424022e-02
-8.9630291e-03
-7.4175934e-03
-4.9596751e-03
-1.1482777e-03
3.1083917e-03
6.5129844e-03
8.8675910e-03
1.1368164e-02
1.4466638e-02
1.6053893e-02
1.3114605e-02
6.5050751e-03
8.3926892e-04
-2.2618696e-03
-4.3057652e-03
-6.2443435e-03
-8.6468597e-03
-1.0765182e-02
-1.0777617e-02
-8.4635992e-03
-5.8318398e-03
-4.9786378e-03
-4.2740209e-03
-1.3032614e-03
1.3607079e-03
1.3915643e-03
6.0215911e-04
1.1890908e-03
3.5241413e-03
6.2773206e-03
8.5582175e-03
1.0100024e-02
9.9166630e-03
8.2668802e-03
5.9231664e-03
1.9761554e-03
-2.7103580e-03
-5.3709644e-03
-4.7864817e-03
-2.2807724e-03
-6.3644273e-04
2.4087536e-04
2.1869196e-03
5.3981777e-03
8.8168702e-03
1.0221110e-02
8.6651796e-03
3.9370582e-03
-1.4149225e-03
-2.6739071e-03
-2.4624986e-04
3.0866378e-03
6.5230706e-03
1.0291489e-02
1.2702144e-02
1.0815556e-02
5.4265083e-03
-6.6987221e-04
-6.1799289e-03
-1.0992397e-02
-1.5400616e-02
-1.9041807e-02
-2.0510384e-02
-1.8412939e-02
-1.3424383e-02
-7.9776233e-03
-3.4770525e-03
8.0853482e-04
4.7521377e-03
5.9840392e-03
3.9625581e-03
1.9021379e-03
2.4190097e-03
4.9789429e-03
7.8298837e-03
8.9876924e-03
7.3453208e-03
3.6673053e-03
-7.0559880e-05
-3.5804569e-03
-8.1825247e-03
-1.2086140e-02
-1.2949016e-02
-1.2670737e-02
-1.4083238e-02
-1.5787995e-02
-1.3779629e-02
-8.0565588e-03
-2.1086984e-03
1.2121857e-03
1.2805644e-03
3.2220199e-04
1.2171641e-03
4.1821204e-03
6.5226777e-03
6.6409932e-03
5.5809652e-03
5.6501122e-03
6.7342631e-03
5.9970115e-03
3.5257766e-03
1.2472755e-03
-8.0347854e-05
-1.2608851e-03
-4.2628677e-03
-8.2003041e-03
-1.0030987e-02
-8.5854289e-03
-5.2443239e-03
-3.1326385e-03
-3.3738463e-03
-3.8949669e-03
-3.9582399e-03
-5.0145995e-03
-7.1462561e-03
-9.4396419e-03
-1.0587902e-02
-8.7112354e-03
-4.6567772e-03
-8.8544912e-04
