3.9695580e-04
-4.2497563e-05
-3.1595332e-04
-3.2696247e-04
-2.4822983e-06
7.0002945e-04
1.7043758e-03
2.7734055e-03
3.6358153e-03
4.1168784e-03
4.0694230e-03
3.3038972e-03
1.7336609e-03
-4.7978963e-04
-2.9867033e-03
-5.4043632e-03
-7.4451441e-03
-8.9603188e-03
-9.7999608e-03
-9.6749638e-03
-8.3274690e-03
-5.7250095e-03
-1.9526986e-03
2.8226906e-03
8.0902574e-03
1.2986315e-02
1.6652320e-02
1.8329531e-02
1.7451156e-02
1.4087734e-02
8.9626709e-03
2.9480936e-03
-3.2702524e-03
-9.1693779e-03
-1.4057876e-02
-1.7018387e-02
-1.7618766e-02
-1.6467121e-02
-1.4591723e-02
-1.2356463e-02
-9.2753538e-03
-4.7443913e-03
1.2418279e-03
7.9099898e-03
1.4050170e-02
1.8532878e-02
2.0619878e-02
1.9958795e-02
1.6492877e-02
1.0677507e-02
3.6548964e-03
-3.2355477e-03
-9.0308042e-03
-1.3151797e-02
-1.5415586e-02
-1.6227072e-02
-1.6200620e-02
-1.5381376e-02
-1.3070396e-02
-8.4427202e-03
-1.3761373e-03
7.0733416e-03
1.4979326e-02
2.0580068e-02
2.3139854e-02
2.2793525e-02
1.9791074e-02
1.4258581e-02
6.6614177e-03
-1.8828863e-03
-9.9966467e-03
-1.6680541e-02
-2.1356709e-02
-2.3449829e-02
-2.2505036e-02
-1.8793095e-02
-1.3312296e-02
-7.1027489e-03
-7.7022019e-04
5.4106072e-03
1.1183094e-02
1.6173085e-02
1.9808219e-02
2.1256294e-02
1.9669565e-02
1.4676405e-02
6.9820113e-03
-1.4732429e-03
-8.4626371e-03
-1.2658609e-02
-1.3962745e-02
-1.3163366e-02
-1.1379834e-02
-9.4658965e-03
-7.5854899e-03
-5.4535465e-03
-2.9934850e-03
-4.0509927e-04
2.2536975e-03
5.1182980e-03
8.2772626e-03
1.1590322e-02
1.4348975e-02
1.5229475e-02
1.3212692e-02
8.5675271e-03
2.6515719e-03
-3.1283948e-03
-7.9019481e-03
-1.1152750e-02
-1.2640151e-02
-1.2763663e-02
-1.2407478e-02
-1.1781468e-02
-9.9968254e-03
-6.3963648e-03
-1.5427776e-03
3.5620426e-03
8.4613012e-03
1.3018342e-02
1.6722298e-02
1.8592230e-02
1.7729253e-02
1.3920829e-02
7.8306715e-03
7.6083579e-04
-5.9032697e-03
-1.1156755e-02
-1.4416016e-02
-1.5447123e-02
-1.4487541e-02
-1.2194791e-02
-9.1155687e-03
-5.4130367e-03
-1.3522025e-03
2.3249466e-03
4.9020295e-03
6.3963165e-03
7.2815207e-03
7.5602037e-03
6.6947924e-03
4.4453199e-03
1.3527644e-03
-1.6011046e-03
-3.7378526e-03
-5.0172802e-03
-5.6486772e-03
-5.7569169e-03
-5.4491100e-03
-4.8957908e-03
-4.2360650e-03
-3.2563678e-03
-1.3278961e-03
1.9169527e-03
6.1445033e-03
1.0839188e-02
1.5469882e-02
1.8861152e-02
1.9354388e-02
1.6033573e-02
9.4427944e-03
1.1826783e-03
-6.7338097e-03
-1.2455781e-02
-1.5072098e-02
-1.5054187e-02
-1.3770925e-02
-1.2350382e-02
-1.0809175e-02
-8.2554824e-03
-3.9840276e-03
1.5843149e-03
7.0501250e-03
1.0999841e-02
1.2637880e-02
1.1654788e-02
8.0750615e-03
2.5433077e-03
-3.5633628e-03
-8.5933449e-03
-1.1341732e-02
-1.1512357e-02
-9.6377755e-03
-6.6765670e-03
-3.4956566e-03
-6.6883057e-04
1.2634497e-03
1.9815648e-03
2.0175203e-03
2.5380353e-03
4.2766524e-03
7.1131851e-03
1.0584828e-02
1.3958752e-02
1.5860095e-02
1.4873057e-02
1.0737659e-02
4.5490105e-03
-2.0938486e-03
-7.9323739e-03
-1.2288181e-02
-1.4877664e-02
-1.5622796e-02
-1.4600969e-02
-1.2136610e-02
-8.8853095e-03
-5.6499302e-03
-2.9257480e-03
-6.1730633e-04
1.6497219e-03
4.0983592e-03
6.8348227e-03
9.9416490e-03
1.3245192e-02
1.6095954e-02
1.7433458e-02
1.6195717e-02
1.1952053e-02
5.1776881e-03
-2.9525387e-03
-1.0886467e-02
-1.7121913e-02
-2.0687757e-02
-2.1367946e-02
-1.9454629e-02
-1.5384316e-02
-9.8003601e-03
-3.6199288e-03
2.4744332e-03
8.3002565e-03
1.3585348e-02
1.7629514e-02
1.9761945e-02
1.9609492e-02
1.6980916e-02
1.2004855e-02
5.3049779e-03
-2.0526572e-03
-8.7806041e-03
-1.3873254e-02
-1.6856370e-02
-1.7491229e-02
-1.5735233e-02
-1.2132976e-02
-7.8652753e-03
-4.0726516e-03
-1.0406600e-03
1.8026513e-03
5.1525808e-03
9.1979062e-03
1.3429307e-02
1.6794674e-02
1.8111213e-02
1.6672455e-02
1.2642672e-02
6.7567456e-03
-1.9615535e-04
-7.2391987e-03
-1.2873326e-02
-1.5792686e-02
-1.6127510e-02
-1.5246147e-02
-1.4109534e-02
-1.2369459e-02
-9.1852165e-03
-4.4159655e-03
1.1968959e-03
6.7043598e-03
1.1399937e-02
1.4643477e-02
1.5746365e-02
1.4347828e-02
1.0897496e-02
6.6682451e-03
2.9630466e-03
1.7454189e-04
-2.0808906e-03
-4.0764610e-03
-5.7161748e-03
-7.0270759e-03
-8.3739324e-03
-9.9212565e-03
-1.1124483e-02
-1.1049448e-02
-9.0218337e-03
-4.8927038e-03
8.6905245e-04
7.1671653e-03
1.2585073e-02
1.5894170e-02
1.6489959e-02
1.4491160e-02
1.0539982e-02
5.4540705e-03
-1.2182886e-04
-5.6007438e-03
-1.0084022e-02
-1.2702054e-02
-1.3375999e-02
-1.2729327e-02
-1.1297583e-02
-9.2140999e-03
-6.4418662e-03
-2.9378450e-03
1.1771122e-03
5.4269356e-03
9.1488836e-03
1.1883179e-02
1.3438305e-02
1.3589506e-02
1.2068124e-02
8.8991093e-03
4.4458463e-03
-6.7032638e-04
-5.5604758e-03
-9.4204913e-03
-1.1936518e-02
-1.3091825e-02
-1.2798219e-02
-1.0926403e-02
-7.5596599e-03
-3.3000737e-03
7.2967976e-04
3.7340741e-03
5.9604559e-03
8.0260003e-03
9.9974792e-03
1.1524502e-02
1.2225197e-02
1.1662807e-02
9.3968540e-03
5.3215628e-03
6.5727869e-05
-5.0149582e-03
-8.6985986e-03
-1.0844597e-02
-1.2092026e-02
-1.2798272e-02
-1.2786829e-02
-1.1799154e-02
-9.7393109e-03
-6.7019726e-03
-2.8373181e-03
1.8563066e-03
7.3411469e-03
1.3057088e-02
1.7852765e-02
2.0454354e-02
1.9960741e-02
1.6221212e-02
1.0016764e-02
2.6634528e-03
-4.5728632e-03
-1.0560572e-02
-1.4322307e-02
-1.5549300e-02
-1.4918787e-02
-1.3350473e-02
-1.1058310e-02
-7.9274512e-03
-4.4055995e-03
-1.1291895e-03
1.8895805e-03
5.0546477e-03
8.5357075e-03
1.1854542e-02
1.3860482e-02
1.3462015e-02
1.0525079e-02
5.9281151e-03
9.1368924e-04
-3.5106417e-03
-6.7509906e-03
-8.6912912e-03
-9.6718267e-03
-9.9946181e-03
-9.5937277e-03
-8.3893121e-03
-6.5161133e-03
-4.0970106e-03
-1.1657627e-03
2.1394517e-03
5.5042335e-03
8.5812502e-03
1.1144046e-02
1.3037553e-02
1.3832905e-02
1.2739689e-02
9.4128846e-03
4.6874748e-03
-2.0492159e-05
-3.8682698e-03
-6.9555035e-03
-9.8136271e-03
-1.2592554e-02
-1.4728532e-02
-1.5560400e-02
-1.4980376e-02
-1.3042605e-02
-9.4180118e-03
-3.8221420e-03
3.2532272e-03
1.0463469e-02
1.6385062e-02
2.0288747e-02
2.1886991e-02
2.0910274e-02
1.7331507e-02
1.1527078e-02
4.2199055e-03
-3.6117323e-03
-1.0939933e-02
-1.6765981e-02
-2.0162885e-02
-2.0591376e-02
-1.8318719e-02
-1.4445110e-02
-1.0252583e-02
-6.4071913e-03
-2.8028384e-03
9.4622177e-04
4.9565957e-03
8.9513165e-03
1.2571274e-02
1.5624955e-02
1.7824213e-02
1.8448824e-02
1.6746446e-02
1.2778742e-02
7.5308935e-03
2.0296056e-03
-3.2927194e-03
-8.2252127e-03
-1.2331273e-02
-1.5141682e-02
-1.6486973e-02
-1.6521781e-02
-1.5384144e-02
-1.2936019e-02
-9.0946381e-03
-4.2969757e-03
5.8841024e-04
4.9039724e-03
8.5932561e-03
1.1721324e-02
1.3977636e-02
1.4916300e-02
1.4371492e-02
1.2470032e-02
9.3018973e-03
4.8263010e-03
-6.4254038e-04
-6.0805938e-03
-1.0184188e-02
-1.2151369e-02
-1.2156412e-02
-1.1124154e-02
-9.9037272e-03
-8.7253416e-03
-7.3161714e-03
-5.1775114e-03
-1.8941841e-03
2.4961397e-03
7.4724703e-03
1.2355122e-02
1.6436041e-02
1.8907286e-02
1.8985885e-02
1.6224032e-02
1.0826962e-02
3.6850782e-03
-4.0716487e-03
-1.1413396e-02
-1.7206173e-02
-2.0294472e-02
-2.0367823e-02
-1.8349076e-02
-1.5488106e-02
-1.2301191e-02
-8.4253632e-03
-3.3174128e-03
2.9101846e-03
9.3556833e-03
1.4855944e-02
1.8534579e-02
2.0052275e-02
1.9471062e-02
1.6999910e-02
1.2991677e-02
7.9482803e-03
2.4161823e-03
-3.0005760e-03
-7.7913468e-03
-1.1709773e-02
-1.4486968e-02
-1.5835990e-02
-1.6061475e-02
-1.5840492e-02
-1.5022435e-02
-1.2432561e-02
-7.2614353e-03
-2.1572304e-04
6.9732743e-03
1.2867179e-02
1.6956882e-02
1.9269987e-02
1.9713495e-02
1.8040201e-02
1.4249104e-02
8.7362580e-03
2.1350113e-03
-4.8853391e-03
-1.1480363e-02
-1.6431626e-02
-1.8651604e-02
-1.7905779e-02
-1.4825240e-02
-1.0402078e-02
-5.5544245e-03
-1.0289744e-03
2.5434302e-03
4.8904848e-03
6.3827448e-03
7.6660267e-03
9.1076602e-03
1.0690142e-02
1.1881246e-02
1.1686430e-02
9.4327484e-03
5.5070044e-03
1.1173223e-03
-2.6170396e-03
-5.2064845e-03
-6.7113135e-03
-7.4594021e-03
-7.7863651e-03
-8.0323869e-03
-8.5380698e-03
-9.2463155e-03
-9.5357183e-03
-8.7207803e-03
-6.4947314e-03
-2.9240498e-03
1.5738501e-03
6.2984015e-03
1.0555441e-02
1.3800178e-02
1.5663584e-02
1.6020723e-02
1.4828418e-02
1.1873470e-02
6.9223024e-03
2.7907893e-04
-6.8199594e-03
-1.2563901e-02
-1.5690263e-02
-1.6282122e-02
-1.5184092e-02
-1.3033212e-02
-1.0164506e-02
-6.8502851e-03
-3.3834673e-03
-1.4043453e-04
2.7167557e-03
5.7140538e-03
9.6684130e-03
1.4504714e-02
1.8820397e-02
2.0797789e-02
1.9384500e-02
1.4707812e-02
7.7012340e-03
-3.3485578e-04
-7.8767307e-03
-1.3483869e-02
-1.6441545e-02
-1.7328894e-02
-1.7686641e-02
-1.8395707e-02
-1.8529896e-02
-1.6372424e-02
-1.1188714e-02
-3.6143756e-03
5.1760993e-03
1.3907004e-02
2.1153149e-02
2.5783856e-02
2.7171121e-02
2.4893424e-02
1.9171606e-02
1.1222162e-02
2.3809192e-03
-6.4096152e-03
-1.4178517e-02
-2.0035588e-02
-2.3575732e-02
-2.4764555e-02
-2.3680829e-02
-2.0506000e-02
-1.5773880e-02
-1.0343185e-02
-4.7909497e-03
1.0045832e-03
7.4065352e-03
1.4258450e-02
2.0747775e-02
2.5745358e-02
2.8247937e-02
2.7865348e-02
2.4977418e-02
2.0423075e-02
1.4953140e-02
8.7993785e-03
1.8353883e-03
-5.7560922e-03
-1.3261778e-02
-1.9984059e-02
-2.5490865e-02
-2.9187181e-02
-3.0243806e-02
-2.8254361e-02
-2.3528273e-02
-1.6698783e-02
-8.4107151e-03
8.3693428e-04
1.0387429e-02
1.8863289e-02
2.4612277e-02
2.6534411e-02
2.4068813e-02
1.7254085e-02
7.5032710e-03
-2.2838284e-03
-9.0988395e-03
-1.1600318e-02
-1.0717072e-02
-8.5389939e-03
-6.6499385e-03
-5.2402996e-03
-3.4371148e-03
-5.9447045e-04
2.7018027e-03
4.9616135e-03
5.0519839e-03
3.1830893e-03
7.2391610e-04
-8.7930733e-04
-7.0081294e-04
1.8486572e-03
6.5031925e-03
1.1268749e-02
1.3324480e-02
1.1144740e-02
5.3468474e-03
-2.0757198e-03
-8.8081025e-03
-1.3166445e-02
-1.4814782e-02
-1.4525270e-02
-1.3122302e-02
-1.0840848e-02
-7.6235161e-03
-3.5497966e-03
1.3024562e-03
6.9881317e-03
1.3092484e-02
1.8218585e-02
2.0544100e-02
1.8930585e-02
1.3728525e-02
6.6216123e-03
-5.8644526e-04
-6.9109001e-03
-1.1902989e-02
-1.5155142e-02
-1.6546751e-02
-1.6467907e-02
-1.5392813e-02
-1.3516037e-02
-1.0717866e-02
-6.7253214e-03
-1.5319574e-03
4.4818629e-03
1.0822965e-02
1.6887555e-02
2.1661216e-02
2.3778517e-02
2.2204726e-02
1.6970050e-02
9.3195771e-03
9.7421910e-04
-6.8957869e-03
-1.3658344e-02
-1.8447931e-02
-2.0379623e-02
-1.9574517e-02
-1.7148461e-02
-1.4158830e-02
-1.0848402e-02
-6.6733392e-03
-1.1613723e-03
5.2013405e-03
1.1300526e-02
1.6334614e-02
2.0030442e-02
2.2087701e-02
2.1722068e-02
1.8255404e-02
1.2096215e-02
4.4388285e-03
-3.7011413e-03
-1.1431755e-02
-1.7569624e-02
-2.1088679e-02
-2.1814242e-02
-2.0408564e-02
-1.7734145e-02
-1.4238122e-02
-9.7221101e-03
-3.5893930e-03
4.2438614e-03
1.2534060e-02
1.9307139e-02
2.3185378e-02
2.3851695e-02
2.1694550e-02
1.7305009e-02
1.1308645e-02
4.6937511e-03
-1.2390459e-03
-5.7752616e-03
-9.3491049e-03
-1.2763746e-02
-1.6058372e-02
-1.8490861e-02
-1.9421608e-02
-1.8796194e-02
-1.6550145e-02
-1.2001828e-02
-4.5968102e-03
4.8450456e-03
1.4079515e-02
2.0600029e-02
2.2960623e-02
2.1424269e-02
1.7409906e-02
1.2203657e-02
6.4044903e-03
3.7251887e-04
-5.3606828e-03
-1.0037227e-02
-1.2801275e-02
-1.3121350e-02
-1.1308297e-02
-8.4372037e-03
-5.7408479e-03
-4.1900880e-03
-4.2051937e-03
-5.4918762e-03
-7.1395823e-03
-7.6820571e-03
-5.5030641e-03
1.9115279e-04
8.6708777e-03
1.7584370e-02
2.3546957e-02
2.3795922e-02
1.7907078e-02
8.0787816e-03
-2.1211479e-03
-9.8416087e-03
-1.4212608e-02
-1.5604721e-02
-1.4541471e-02
-1.1666115e-02
-7.7027424e-03
-3.0585391e-03
2.1050353e-03
7.4115416e-03
1.2059724e-02
1.5017947e-02
1.5472845e-02
1.3395902e-02
9.5815707e-03
4.8007810e-03
-6.4987217e-04
-6.3238026e-03
-1.1304425e-02
-1.4778626e-02
-1.6586873e-02
-1.7176438e-02
-1.7010762e-02
-1.5922708e-02
-1.3096042e-02
-7.9655731e-03
-1.1750298e-03
5.7275360e-03
1.1418337e-02
1.5345965e-02
1.7583792e-02
1.8441466e-02
1.8064785e-02
1.6456390e-02
1.3771796e-02
1.0273283e-02
6.1015130e-03
1.2310893e-03
-4.2601613e-03
-9.7618940e-03
-1.4331784e-02
-1.7397597e-02
-1.8874915e-02
-1.8816832e-02
-1.7181558e-02
-1.3834088e-02
-8.9889451e-03
-3.4469115e-03
2.1385942e-03
7.8370015e-03
1.3755836e-02
1.9165026e-02
2.2649049e-02
2.2940633e-02
1.9596648e-02
1.3172209e-02
5.0203706e-03
-3.1466020e-03
-9.7054945e-03
-1.3396250e-02
-1.3930469e-02
-1.2620375e-02
-1.1512397e-02
-1.1534140e-02
-1.1972915e-02
-1.1507662e-02
-9.2855935e-03
-5.3950712e-03
-6.1517309e-04
4.3069696e-03
8.9874500e-03
1.3104447e-02
1.6095781e-02
1.7280841e-02
1.6206077e-02
1.2869334e-02
7.6799404e-03
1.3610613e-03
-4.9565171e-03
-9.8170761e-03
-1.2055138e-02
-1.1524544e-02
-9.2869042e-03
-6.9503678e-03
-5.5597093e-03
-5.0277233e-03
-4.5482874e-03
-3.4183181e-03
-1.4366629e-03
1.3133713e-03
4.5989018e-03
7.8617094e-03
1.0300483e-02
1.1183276e-02
1.0165442e-02
7.4199295e-03
3.4102677e-03
-1.1037157e-03
-4.9539248e-03
-7.1528595e-03
-7.5782893e-03
-6.9427688e-03
-6.2826422e-03
-6.2539357e-03
-6.7309931e-03
-7.2035211e-03
-7.3414895e-03
-6.6987215e-03
-4.0369892e-03
1.9975407e-03
1.1107719e-02
2.0899323e-02
2.8193152e-02
3.0356109e-02
2.6097735e-02
1.6093456e-02
2.8765780e-03
-1.0281159e-02
-2.0601506e-02
-2.6467305e-02
-2.7681194e-02
-2.5471894e-02
-2.1749655e-02
-1.7757401e-02
-1.3640202e-02
-9.1420216e-03
-4.0332672e-03
1.8514242e-03
8.2710836e-03
1.4426441e-02
1.9464871e-02
2.2922251e-02
2.4649297e-02
2.4384562e-02
2.1467221e-02
1.5398971e-02
6.6976074e-03
-3.1650048e-03
-1.2454726e-02
-1.9691594e-02
-2.4003233e-02
-2.5262518e-02
-2.3681676e-02
-1.9271837e-02
-1.2115577e-02
-3.0140741e-03
6.6722545e-03
1.5573117e-02
2.2562007e-02
2.6840660e-02
2.7897968e-02
2.5543146e-02
2.0075764e-02
1.2221894e-02
2.8394619e-03
-7.1588345e-03
-1.6498430e-02
-2.3496216e-02
-2.6922332e-02
-2.6954114e-02
-2.4947645e-02
-2.2234655e-02
-1.9117199e-02
-1.4946832e-02
-9.2092393e-03
-2.3128176e-03
4.9850532e-03
1.2516214e-02
2.0260435e-02
2.7074696e-02
3.0729044e-02
2.9541728e-02
2.3799426e-02
1.5474590e-02
6.6178237e-03
-1.6713212e-03
-8.7975915e-03
-1.4046645e-02
-1.6784259e-02
-1.6986490e-02
-1.5229271e-02
-1.2016177e-02
-7.4804544e-03
-1.8734784e-03
4.0495459e-03
9.1973225e-03
1.2527174e-02
1.3276489e-02
1.1034569e-02
6.0076238e-03
-6.2398096e-04
-6.9387619e-03
-1.1142326e-02
-1.2385891e-02
-1.1133286e-02
-8.8523240e-03
-6.9132898e-03
-5.6021121e-03
-4.3737062e-03
-2.7461606e-03
-5.4571091e-04
2.3942580e-03
6.2547054e-03
1.0770025e-02
1.4865874e-02
1.7107536e-02
1.6701727e-02
1.3897386e-02
9.3517710e-03
3.4788786e-03
-3.2759965e-03
-9.8387223e-03
-1.4745035e-02
-1.6983471e-02
-1.6442142e-02
-1.3961095e-02
-1.0961580e-02
-8.3803223e-03
-6.0722221e-03
-3.3958855e-03
1.5045386e-04
4.6850449e-03
9.6389322e-03
1.3744633e-02
1.5657949e-02
1.4773095e-02
1.1596998e-02
7.2803727e-03
2.8066166e-03
-1.1440310e-03
-3.9262994e-03
-5.3002438e-03
-5.7654106e-03
-5.7981745e-03
-5.2295262e-03
-3.8629901e-03
-2.1220930e-03
-8.4111411e-04
-6.1701095e-04
-1.1475146e-03
-1.3539369e-03
-3.9636951e-04
1.6878614e-03
4.0573012e-03
5.4435192e-03
4.8745375e-03
2.3157776e-03
-1.3033048e-03
-4.5961314e-03
-6.4707091e-03
-6.5580175e-03
-4.9704355e-03
-2.0798190e-03
1.1642829e-03
3.2043443e-03
2.8754304e-03
4.3247382e-04
-2.7786339e-03
-5.4540483e-03
-6.8196342e-03
-6.2696240e-03
-3.2298957e-03
2.0510418e-03
8.0456067e-03
1.2947738e-02
1.5697445e-02
1.5828874e-02
1.3153205e-02
7.9302631e-03
1.0393078e-03
-6.0272254e-03
-1.1534484e-02
-1.4310701e-02
-1.4214870e-02
-1.1882063e-02
-8.3324501e-03
-4.7338791e-03
-2.0536265e-03
-7.1387990e-04
-4.7989957e-04
-5.2137249e-04
2.0979303e-04
2.4510387e-03
6.2757186e-03
1.0872063e-02
1.4722575e-02
1.6233611e-02
1.4308195e-02
8.8677495e-03
1.4153326e-03
-5.3450805e-03
-9.2253288e-03
-9.9027241e-03
-8.6559345e-03
-7.2179915e-03
-6.7073937e-03
-7.1380946e-03
-7.8104688e-03
-8.0303257e-03
-7.3119460e-03
-5.3196317e-03
-2.0577714e-03
1.9280118e-03
5.7518129e-03
8.8088636e-03
1.1053571e-02
1.2358966e-02
1.2042157e-02
9.5510516e-03
5.2801197e-03
4.7348320e-04
-3.5020178e-03
-6.0472025e-03
-7.7028135e-03
-9.3704140e-03
-1.1058362e-02
-1.1649415e-02
-9.9682885e-03
-5.8759628e-03
-4.3623539e-04
4.9255810e-03
9.4160524e-03
1.2683173e-02
1.4092730e-02
1.3069708e-02
9.9404559e-03
5.9575848e-03
2.5572389e-03
5.1746184e-04
-6.0846481e-04
-2.4225251e-03
-6.5396185e-03
-1.2990054e-02
-1.9852906e-02
-2.4509864e-02
-2.4964500e-02
-2.0284027e-02
-1.0617776e-02
2.8697408e-03
1.8042399e-02
3.1694611e-02
3.9849665e-02
3.9339161e-02
3.0045163e-02
1.5452707e-02
4.8731087e-04
-1.1218519e-02
-1.8240096e-02
-2.0753411e-02
-1.9829731e-02
-1.7060165e-02
-1.4143660e-02
-1.2209089e-02
-1.1315167e-02
-1.0798283e-02
-1.0082623e-02
-8.6693036e-03
-5.6431252e-03
-1.4828382e-04
7.5968409e-03
1.5912797e-02
2.2161126e-02
2.4207494e-02
2.1876799e-02
1.6648136e-02
1.0140934e-02
3.4460665e-03
-2.6499149e-03
-7.5160661e-03
-1.0706461e-02
-1.2172359e-02
-1.2408037e-02
-1.1969867e-02
-1.0909313e-02
-9.0021144e-03
-6.3145160e-03
-3.2449410e-03
-8.4720928e-05
3.1467078e-03
6.3579949e-03
9.1527049e-03
1.0987610e-02
1.1493568e-02
1.0591057e-02
8.3180217e-03
4.8520748e-03
7.0062708e-04
-3.4741800e-03
-7.2248873e-03
-1.0352849e-02
-1.2553871e-02
-1.3248180e-02
-1.2030164e-02
-9.0449778e-03
-4.7610121e-03
3.5006940e-04
5.8835731e-03
1.1299091e-02
1.5662598e-02
1.7826859e-02
1.6986701e-02
1.3047839e-02
6.7264401e-03
-4.3152059e-04
-6.4180169e-03
-9.6914447e-03
-1.0060926e-02
-8.6639601e-03
-6.9411380e-03
-5.8047570e-03
-5.7242312e-03
-6.8406276e-03
-8.6269071e-03
-9.8019059e-03
-9.1308734e-03
-6.4048504e-03
-2.3191840e-03
2.2303146e-03
6.5072900e-03
1.0159796e-02
1.3113789e-02
1.5128498e-02
1.5587157e-02
1.3704437e-02
9.3254161e-03
3.5725817e-03
-1.9146848e-03
-6.2539934e-03
-9.4526205e-03
-1.1646795e-02
-1.2579510e-02
-1.1736615e-02
-8.8619278e-03
-4.3666916e-03
7.0627034e-04
5.2649625e-03
8.7983416e-03
1.1276099e-02
1.2553669e-02
1.2148472e-02
9.7175301e-03
5.6307864e-03
9.0471307e-04
-3.2626664e-03
-6.1101882e-03
-7.8022768e-03
-9.0518986e-03
-1.0361814e-02
-1.1864333e-02
-1.3484392e-02
-1.4886040e-02
-1.5323305e-02
-1.3785326e-02
-9.5226049e-03
-2.4822722e-03
6.5267346e-03
1.5788517e-02
2.3285612e-02
2.7730245e-02
2.8740560e-02
2.6404986e-02
2.1128501e-02
1.3456490e-02
3.8665257e-03
-6.8064441e-03
-1.6721485e-02
-2.3467334e-02
-2.5540300e-02
-2.3296686e-02
-1.8469814e-02
-1.2885402e-02
-7.5829460e-03
-2.8810699e-03
1.1501793e-03
4.5253948e-03
7.4172828e-03
1.0069709e-02
1.2467934e-02
1.4029603e-02
1.3880338e-02
1.1627646e-02
7.6452109e-03
2.5566226e-03
-3.1870268e-03
-9.0670241e-03
-1.4179874e-02
-1.7382779e-02
-1.7704815e-02
-1.4710169e-02
-8.7359556e-03
-9.4107057e-04
7.0110521e-03
1.3466499e-02
1.7187978e-02
1.7778325e-02
1.5857146e-02
1.2445517e-02
8.0811897e-03
2.7939158e-03
-3.0511299e-03
-8.3636532e-03
-1.2009519e-02
-1.3548276e-02
-1.3142428e-02
-1.1137528e-02
-8.1391658e-03
-5.1858810e-03
-3.1330395e-03
-1.8097889e-03
-1.0914181e-04
3.0539473e-03
7.6572929e-03
1.2266853e-02
1.5006174e-02
1.4802457e-02
1.1831857e-02
7.2451530e-03
2.4496292e-03
-1.6685546e-03
-4.9571828e-03
-7.6255046e-03
-9.7958915e-03
-1.1326895e-02
-1.1958835e-02
-1.1503353e-02
-9.8724780e-03
-7.1885566e-03
-3.9181590e-03
-6.6848148e-04
2.1531341e-03
4.4185397e-03
6.1451866e-03
7.4741050e-03
8.7957451e-03
1.0517857e-02
1.2464183e-02
1.3740911e-02
1.3254680e-02
1.0323351e-02
5.0859944e-03
-1.4426247e-03
-7.8232415e-03
-1.2810604e-02
-1.5630841e-02
-1.6150279e-02
-1.4997924e-02
-1.3177051e-02
-1.1352625e-02
-9.3428853e-03
-6.2941861e-03
-1.5451050e-03
4.6962218e-03
1.1458118e-02
1.7573063e-02
2.2000394e-02
2.3707621e-02
2.1824210e-02
1.6198288e-02
7.5286144e-03
-2.7884223e-03
-1.2608492e-02
-1.9612012e-02
-2.2644449e-02
-2.2236337e-02
-1.9779169e-02
-1.6517838e-02
-1.3067063e-02
-9.3395075e-03
-4.8279336e-03
8.3322962e-04
7.5364244e-03
1.4813793e-02
2.1879322e-02
2.7614000e-02
3.0999738e-02
3.1379525e-02
2.7995921e-02
2.0164640e-02
8.4787333e-03
-5.0525538e-03
-1.8235901e-02
-2.9356863e-02
-3.7194485e-02
-4.1067137e-02
-4.0558662e-02
-3.5301055e-02
-2.5277983e-02
-1.1272318e-02
4.8948601e-03
2.0541584e-02
3.2745881e-02
3.9213438e-02
3.9107591e-02
3.3353526e-02
2.4101769e-02
1.3813126e-02
4.6154167e-03
-2.1174857e-03
-6.1992633e-03
-8.6947789e-03
-1.1157570e-02
-1.4454569e-02
-1.8170875e-02
-2.1020536e-02
-2.1811476e-02
-2.0312732e-02
-1.7391958e-02
-1.4049880e-02
-1.0366520e-02
-5.7347155e-03
3.1108095e-04
7.8210019e-03
1.6352610e-02
2.4659170e-02
3.0409524e-02
3.0791064e-02
2.4448097e-02
1.2989246e-02
-6.6563199e-05
-1.1602672e-02
-1.9655496e-02
-2.3062526e-02
-2.1678276e-02
-1.6413145e-02
-8.6934380e-03
-1.9063396e-04
7.5301286e-03
1.3559100e-02
1.7469256e-02
1.8721215e-02
1.6734660e-02
1.1681785e-02
4.9667065e-03
-1.5939307e-03
-6.9542803e-03
-1.0621546e-02
-1.1888013e-02
-1.0394294e-02
-7.1234392e-03
-3.9433493e-03
-2.1806216e-03
-1.9579044e-03
-2.7121883e-03
-3.8863125e-03
-5.0051080e-03
-5.3910983e-03
-4.2028975e-03
-1.1497817e-03
2.8309333e-03
6.1365981e-03
7.9243240e-03
8.6677468e-03
9.2800329e-03
1.0071836e-02
1.0551022e-02
9.5563615e-03
5.5248803e-03
-2.4440154e-03
-1.3458166e-02
-2.4959642e-02
-3.3689173e-02
-3.6749318e-02
-3.2724663e-02
-2.2282663e-02
-7.7503906e-03
7.9354301e-03
2.2330457e-02
3.3879619e-02
4.1636867e-02
4.5389995e-02
4.5591971e-02
4.2229526e-02
3.4219031e-02
2.0454209e-02
1.5735722e-03
-1.9108012e-02
-3.6911917e-02
-4.8442452e-02
-5.2685873e-02
-5.0054166e-02
-4.1138268e-02
-2.6377496e-02
-6.9942599e-03
1.3756379e-02
3.0855243e-02
3.9913075e-02
3.9627920e-02
3.1799059e-02
1.9673800e-02
6.6821801e-03
-4.2788400e-03
-1.1474242e-02
-1.4773436e-02
-1.5467212e-02
-1.5160780e-02
-1.4576097e-02
-1.3522044e-02
-1.1670462e-02
-8.9790124e-03
-5.6494748e-03
-1.9682203e-03
1.7043410e-03
4.7839127e-03
6.7666734e-03
7.8375232e-03
8.7421060e-03
1.0021159e-02
1.1520460e-02
1.2419008e-02
1.1746146e-02
9.3386735e-03
6.2470806e-03
3.7870010e-03
2.2584198e-03
6.5830923e-04
-2.4119547e-03
-7.2458790e-03
-1.2281127e-02
-1.5129526e-02
-1.4293487e-02
-9.9270324e-03
-3.8101559e-03
1.3800629e-03
3.8219132e-03
3.6991366e-03
2.3735552e-03
8.5407225e-04
-6.6064717e-04
-1.9869893e-03
-2.3103999e-03
-9.0722028e-04
1.6170553e-03
3.6110374e-03
4.1062921e-03
3.4998797e-03
2.4167727e-03
7.8358602e-04
-1.6037936e-03
-4.2543392e-03
-6.1929312e-03
-6.6420349e-03
-5.4214532e-03
-2.8931401e-03
6.0596252e-04
5.0013492e-03
9.8437364e-03
1.3922890e-02
1.5828046e-02
1.4810906e-02
1.1147398e-02
5.6550063e-03
-8.4362642e-04
-7.3408226e-03
-1.2565650e-02
-1.5631244e-02
-1.6561979e-02
-1.6085516e-02
-1.4842377e-02
-1.2571171e-02
-8.3154485e-03
-1.6995059e-03
6.3104207e-03
1.4029601e-02
1.9988072e-02
2.3206492e-02
2.3136896e-02
1.9704220e-02
1.3447054e-02
5.3632739e-03
-3.7880812e-03
-1.3629576e-02
-2.3088795e-02
-2.9857090e-02
-3.1501705e-02
-2.7056301e-02
-1.7881307e-02
-7.2239514e-03
1.4710306e-03
6.5361301e-03
9.0045755e-03
1.1624090e-02
1.6763509e-02
2.4868991e-02
3.3702065e-02
3.8525474e-02
3.4638737e-02
2.1153165e-02
2.0080090e-03
-1.6858909e-02
-3.1110598e-02
-3.9479338e-02
-4.2681338e-02
-4.1388969e-02
-3.5483800e-02
-2.5129002e-02
-1.1926263e-02
1.6255850e-03
1.3862159e-02
2.4508695e-02
3.3509494e-02
4.0170365e-02
4.3601316e-02
4.3360574e-02
3.9129712e-02
3.0150905e-02
1.6190587e-02
-9.1887252e-04
-1.7720254e-02
-3.1136983e-02
-3.9816765e-02
-4.3842341e-02
-4.3509544e-02
-3.8891858e-02
-3.0452437e-02
-1.9414840e-02
-7.5523107e-03
3.3093543e-03
1.2032547e-02
1.8587885e-02
2.3382966e-02
2.6246327e-02
2.6518527e-02
2.3910516e-02
1.8753859e-02
1.1521652e-02
2.7583518e-03
-6.3500806e-03
-1.3975279e-02
-1.8462263e-02
-1.9047877e-02
-1.6147483e-02
-1.1114335e-02
-5.3695472e-03
2.1547051e-04
5.0338664e-03
8.5159126e-03
1.0453739e-02
1.1118589e-02
1.0885236e-02
9.8524498e-03
7.8968776e-03
4.8599370e-03
5.9172454e-04
-4.5953267e-03
-9.4310698e-03
-1.2273197e-02
-1.2057158e-02
-8.6200417e-03
-2.9228172e-03
2.9552132e-03
6.8812513e-03
8.1461563e-03
7.6739671e-03
6.7173331e-03
5.6598982e-03
4.1636253e-03
2.0624641e-03
-1.8887223e-04
-1.8428358e-03
-2.6237258e-03
-3.0675199e-03
-3.8856332e-03
-5.1618178e-03
-6.4306506e-03
-7.3781191e-03
-7.9776879e-03
-8.0633514e-03
-7.4796428e-03
-6.5716906e-03
-5.8261324e-03
-5.0026034e-03
-3.1893303e-03
2.7604637e-04
5.1968582e-03
1.0401579e-02
1.4210205e-02
1.5567132e-02
1.4657364e-02
1.2244815e-02
8.6201652e-03
3.5392983e-03
-2.5869156e-03
-8.0467411e-03
-1.1087810e-02
-1.1407351e-02
-9.9278225e-03
-7.5738845e-03
-4.7137134e-03
-1.5771573e-03
1.2411401e-03
3.1874180e-03
4.7006610e-03
6.8576224e-03
9.7574991e-03
1.2043332e-02
1.2237643e-02
1.0222483e-02
7.0009295e-03
3.1531570e-03
-1.4336329e-03
-6.3499584e-03
-1.0262361e-02
-1.2036832e-02
-1.1907108e-02
-1.1232849e-02
-1.1190520e-02
-1.1799881e-02
-1.2070757e-02
-1.0888001e-02
-7.7395122e-03
-3.0103195e-03
2.3694132e-03
7.7473986e-03
1.2661186e-02
1.6170529e-02
1.7313670e-02
1.6029560e-02
1.3102207e-02
9.2314617e-03
4.2593519e-03
-2.3200776e-03
-9.8352937e-03
-1.5890636e-02
-1.7797194e-02
-1.4418588e-02
-6.6245140e-03
3.4333994e-03
1.3073855e-02
1.9580458e-02
2.0848993e-02
1.6525533e-02
8.7370105e-03
6.2633470e-04
-6.2961942e-03
-1.2637230e-02
-1.9165649e-02
-2.5072898e-02
-2.7925078e-02
-2.5065002e-02
-1.5678793e-02
-2.2024631e-03
1.0449487e-02
1.7757002e-02
1.8224746e-02
1.3656523e-02
7.5061534e-03
2.9161737e-03
1.5576117e-03
3.5475767e-03
7.7778091e-03
1.2525033e-02
1.6363880e-02
1.8291391e-02
1.7312198e-02
1.2830749e-02
5.4043949e-03
-3.1448813e-03
-1.0523434e-02
-1.5407938e-02
-1.8152603e-02
-1.9907014e-02
-2.1364511e-02
-2.2359932e-02
-2.2272365e-02
-2.0629097e-02
-1.7273550e-02
-1.1964617e-02
-4.2788733e-03
5.3797457e-03
1.5071191e-02
2.2525397e-02
2.6801439e-02
2.8167105e-02
2.6655851e-02
2.1801409e-02
1.4138452e-02
5.7879463e-03
-1.1935732e-03
-6.3615613e-03
-1.0463213e-02
-1.4101771e-02
-1.7021565e-02
-1.8302998e-02
-1.7249582e-02
-1.4263346e-02
-1.0534074e-02
-6.6735709e-03
-2.1556967e-03
3.5390819e-03
9.8025947e-03
1.5341863e-02
1.9283473e-02
2.1379068e-02
2.1079847e-02
1.7361843e-02
1.0289679e-02
1.7673773e-03
-5.8516647e-03
-1.1357215e-02
-1.4961320e-02
-1.7255667e-02
-1.8099548e-02
-1.6926449e-02
-1.3982004e-02
-1.0540633e-02
-7.6476869e-03
-5.0621470e-03
-1.8216560e-03
2.2841470e-03
6.3165924e-03
9.3900771e-03
1.1737275e-02
1.4020613e-02
1.5925555e-02
1.6288721e-02
1.4397799e-02
1.0502755e-02
5.4470354e-03
9.9009537e-05
-5.1546358e-03
-1.0153222e-02
-1.4272405e-02
-1.6636266e-02
-1.6853703e-02
-1.5055328e-02
-1.1498323e-02
-6.4755672e-03
-5.2675650e-04
5.5127112e-03
1.0916273e-02
1.5298970e-02
1.8239939e-02
1.9127355e-02
1.7593942e-02
1.3774872e-02
8.2383978e-03
1.8302110e-03
-4.7736063e-03
-1.1306803e-02
-1.7420455e-02
-2.2250139e-02
-2.4702157e-02
-2.4099006e-02
-2.0661264e-02
-1.5407902e-02
-9.4203297e-03
-3.2926907e-03
2.7154627e-03
8.4591088e-03
1.3865360e-02
1.8917934e-02
2.3778631e-02
2.8428455e-02
3.1831073e-02
3.1979437e-02
2.7060883e-02
1.6976385e-02
4.0255323e-03
-8.5121714e-03
-1.8438056e-02
-2.4934405e-02
-2.7837344e-02
-2.7591956e-02
-2.5356265e-02
-2.2340918e-02
-1.9244207e-02
-1.6351925e-02
-1.3400951e-02
-9.1876614e-03
-2.1682528e-03
7.9415006e-03
1.9178848e-02
2.8100557e-02
3.1768417e-02
2.9375755e-02
2.2378923e-02
1.3305920e-02
4.5048267e-03
-2.3739989e-03
-6.7922650e-03
-9.6262618e-03
-1.2113309e-02
-1.4250675e-02
-1.5119179e-02
-1.4477313e-02
-1.2911495e-02
-1.0610138e-02
-6.9043820e-03
-1.4389410e-03
4.7464247e-03
9.9820779e-03
1.3120739e-02
1.3670616e-02
1.1938899e-02
9.1844631e-03
7.1228118e-03
7.0084712e-03
8.5601750e-03
9.8014164e-03
8.4570428e-03
3.6098612e-03
-3.7908401e-03
-1.1732043e-02
-1.8397521e-02
-2.2883933e-02
-2.4907889e-02
-2.3987573e-02
-1.9436963e-02
-1.1416501e-02
-1.4848562e-03
8.1669004e-03
1.5683826e-02
1.9836244e-02
2.0302513e-02
1.8039627e-02
1.4626507e-02
1.1083311e-02
7.6552745e-03
4.1454272e-03
1.9857236e-04
-4.0843094e-03
-7.8517389e-03
-1.0144596e-02
-1.0665484e-02
-9.9355286e-03
-8.7640744e-03
-7.3740039e-03
-5.2336031e-03
-2.0382303e-03
1.5655836e-03
4.5466369e-03
6.3930415e-03
7.1656447e-03
7.0041553e-03
5.9371800e-03
3.8024460e-03
3.7057409e-04
-3.9705481e-03
-8.0740011e-03
-1.0801683e-02
-1.1527649e-02
-1.0024728e-02
-6.2670322e-03
-5.2727316e-04
6.3100878e-03
1.2640246e-02
1.6771954e-02
1.7992480e-02
1.6665631e-02
1.3253063e-02
7.8674666e-03
9.9876558e-04
-5.9462025e-03
-1.1362920e-02
-1.4406389e-02
-1.5235187e-02
-1.4680352e-02
-1.3379328e-02
-1.1210469e-02
-7.8628395e-03
-3.6364010e-03
6.1213993e-04
4.2170663e-03
7.0966243e-03
9.3024349e-03
1.0736081e-02
1.1486421e-02
1.1837197e-02
1.1771496e-02
1.0748594e-02
8.0727973e-03
3.5710149e-03
-1.9250248e-03
-6.8578102e-03
-1.0081025e-02
-1.1682206e-02
-1.2389468e-02
-1.2537560e-02
-1.2084806e-02
-1.1193906e-02
-1.0083190e-02
-8.5313842e-03
-6.0451271e-03
-2.3614193e-03
2.3062581e-03
7.4998291e-03
1.3063984e-02
1.8996451e-02
2.4563739e-02
2.7771365e-02
2.5932028e-02
1.7641279e-02
4.5261153e-03
-9.4012999e-03
-2.0039290e-02
-2.4926774e-02
-2.3614833e-02
-1.7498063e-02
-9.4394572e-03
-2.4833442e-03
1.8168314e-03
3.8775755e-03
5.0395896e-03
6.0711205e-03
6.4010528e-03
4.6284496e-03
5.8897939e-05
-6.2111983e-03
-1.1938933e-02
-1.5093636e-02
-1.4407791e-02
-9.1862793e-03
4.7778441e-04
1.2511145e-02
2.2510126e-02
2.6054914e-02
2.1902521e-02
1.2784350e-02
3.0316487e-03
-4.3479348e-03
-8.4476993e-03
-9.6071753e-03
-8.5916343e-03
-6.3181337e-03
-3.8351971e-03
-2.0568385e-03
-1.2123234e-03
-5.3662520e-04
1.0666660e-03
3.7546328e-03
6.4045668e-03
7.2300203e-03
4.5286132e-03
-2.0273716e-03
-1.0355034e-02
-1.7152211e-02
-2.0263758e-02
-1.9290867e-02
-1.4495784e-02
-6.3976217e-03
3.5017627e-03
1.2727750e-02
1.9225685e-02
2.2272949e-02
2.1836810e-02
1.8063884e-02
1.1861410e-02
4.9066836e-03
-1.4721180e-03
-6.8104827e-03
-1.0859419e-02
-1.3115947e-02
-1.3294856e-02
-1.1967574e-02
-1.0394987e-02
-9.4963307e-03
-8.8890632e-03
-7.0991387e-03
-2.7931394e-03
3.9505543e-03
1.1195743e-02
1.6203294e-02
1.7476280e-02
1.5650794e-02
1.2236710e-02
8.4034370e-03
5.1111209e-03
3.1334996e-03
2.6931107e-03
3.3016328e-03
3.8187924e-03
3.0091469e-03
1.5381969e-04
-4.9024554e-03
-1.1756905e-02
-1.9259184e-02
-2.5597350e-02
-2.8664168e-02
-2.6752009e-02
-1.9567325e-02
-8.6250182e-03
3.2945871e-03
1.3203315e-02
1.9121952e-02
2.0535165e-02
1.7932158e-02
1.2394014e-02
5.3969475e-03
-1.5539051e-03
-7.1504273e-03
-1.0074291e-02
-9.1020977e-03
-4.0440733e-03
3.4244032e-03
1.0410370e-02
1.4598072e-02
1.5235148e-02
1.2926170e-02
9.1992212e-03
5.5895412e-03
2.5915272e-03
-1.3848402e-04
-3.0260894e-03
-6.5048580e-03
-1.0797588e-02
-1.5010897e-02
-1.6776175e-02
-1.3940970e-02
-7.2284570e-03
-1.3908296e-04
4.2621039e-03
5.5660499e-03
5.2215330e-03
4.5593921e-03
3.8701040e-03
3.1169310e-03
2.8147140e-03
3.5153172e-03
4.7337760e-03
5.0425505e-03
3.5201987e-03
7.8615049e-04
-1.8749516e-03
-3.8167675e-03
-4.8958134e-03
-5.0522450e-03
-4.6655129e-03
-4.3467644e-03
-4.2657852e-03
-4.4968900e-03
-5.3458587e-03
-6.4502096e-03
-6.4149804e-03
-4.1496282e-03
-6.8477027e-05
4.3087195e-03
7.5158611e-03
8.8152235e-03
8.2791611e-03
6.6188122e-03
4.6410928e-03
2.6401589e-03
5.9038111e-04
-1.3333954e-03
-2.9507967e-03
-4.2804436e-03
-5.0938553e-03
-4.6944361e-03
-2.4907085e-03
1.3479694e-03
5.9024395e-03
1.0018360e-02
1.2924278e-02
1.4461030e-02
1.4680721e-02
1.3389617e-02
1.0212682e-02
5.0840452e-03
-1.4357217e-03
-8.5210185e-03
-1.5660711e-02
-2.2343884e-02
-2.7478598e-02
-2.9952902e-02
-2.9364251e-02
-2.5779236e-02
-1.9212371e-02
-9.8012814e-03
1.2968776e-03
1.1843635e-02
1.9931438e-02
2.5018793e-02
2.7546398e-02
2.8077397e-02
2.6704294e-02
2.3010108e-02
1.6812548e-02
8.8792444e-03
6.9036587e-04
-6.3810894e-03
-1.1682928e-02
-1.5223917e-02
-1.7180343e-02
-1.7605982e-02
-1.6407624e-02
-1.3502893e-02
-9.0503121e-03
-3.5054613e-03
2.3071899e-03
7.3230905e-03
1.0816510e-02
1.2538808e-02
1.2307665e-02
1.0090282e-02
6.3747480e-03
1.9284728e-03
-2.5842013e-03
-6.4663394e-03
-9.0247848e-03
-9.9661835e-03
-9.3924350e-03
-7.5908390e-03
-5.0155215e-03
-2.2940812e-03
-2.3034622e-04
5.2931743e-04
3.0908073e-04
5.2823560e-04
2.3484142e-03
5.4700151e-03
8.6728986e-03
1.0932427e-02
1.1695620e-02
1.0687461e-02
7.7144827e-03
2.8083364e-03
-3.1073394e-03
-8.2077042e-03
-1.1074980e-02
-1.1776335e-02
-1.1327482e-02
-1.0320528e-02
-8.4549229e-03
-5.3830383e-03
-1.5502702e-03
2.0165976e-03
4.5546682e-03
6.1014800e-03
7.0951462e-03
7.6976626e-03
8.0341329e-03
8.5036014e-03
9.1986619e-03
9.4825605e-03
8.3349166e-03
4.9783861e-03
-5.4768875e-04
-7.0938087e-03
-1.2746717e-02
-1.5894094e-02
-1.6193011e-02
-1.4427825e-02
-1.1482130e-02
-7.6853139e-03
-3.1662399e-03
1.4884900e-03
5.2554339e-03
7.4529441e-03
8.3019974e-03
8.4562920e-03
8.2173925e-03
7.5852979e-03
6.7409960e-03
5.9277993e-03
5.0883476e-03
4.0851974e-03
3.0168328e-03
1.9654579e-03
7.3420940e-04
-8.3798036e-04
-2.4547131e-03
-3.4831249e-03
-3.3915020e-03
-2.0631684e-03
-4.0168367e-05
1.6243921e-03
2.0835137e-03
9.5688904e-04
-1.9462711e-03
-6.3275703e-03
-1.1100497e-02
-1.4871535e-02
-1.6335619e-02
-1.4458183e-02
-8.9771435e-03
-7.7179994e-04
8.1714801e-03
1.5215946e-02
1.8329095e-02
1.7153281e-02
1.2755778e-02
6.9421056e-03
1.5340765e-03
-2.5846506e-03
-5.5999525e-03
-7.8342962e-03
-8.9226315e-03
-8.0637346e-03
-5.1763823e-03
-1.4424567e-03
1.5364097e-03
2.8283691e-03
2.5082560e-03
1.3415815e-03
1.1243926e-04
-7.9169204e-04
-1.0126674e-03
-1.1797325e-04
1.6411074e-03
3.2495577e-03
3.8023365e-03
3.0838483e-03
1.6580397e-03
4.9448280e-04
2.7802692e-04
1.0644989e-03
2.3718363e-03
3.4995930e-03
3.9115408e-03
3.3824573e-03
2.0094954e-03
9.3942848e-05
-2.1655095e-03
-4.5373758e-03
-6.3483335e-03
-6.8289358e-03
-5.9125227e-03
-4.4268505e-03
-3.4280177e-03
-3.3195655e-03
-3.7654407e-03
-4.1701528e-03
-3.7869186e-03
-1.8482590e-03
1.8184351e-03
6.3923560e-03
1.0372588e-02
1.2220291e-02
1.1047719e-02
7.1476041e-03
1.7437856e-03
-3.6450351e-03
-7.5321042e-03
-9.0710333e-03
-8.7128930e-03
-7.7168707e-03
-6.8009658e-03
-5.5885931e-03
-3.4249394e-03
-1.3329123e-04
4.0157524e-03
8.3787062e-03
1.1976606e-02
1.3876901e-02
1.3652494e-02
1.1534106e-02
8.2371267e-03
4.5253697e-03
8.3497982e-04
-2.8185698e-03
-6.7555257e-03
-1.1064290e-02
-1.4946830e-02
-1.7132962e-02
-1.6944870e-02
-1.4632389e-02
-1.0855833e-02
-6.1848873e-03
-1.0265712e-03
4.2294968e-03
9.0548446e-03
1.2934086e-02
1.5747478e-02
1.7531436e-02
1.7829924e-02
1.5888076e-02
1.1438700e-02
4.9655876e-03
-2.5039062e-03
-9.7264771e-03
-1.5588786e-02
-1.9225789e-02
-1.9983902e-02
-1.7602762e-02
-1.2753566e-02
-6.9798629e-03
-1.3786694e-03
4.1400275e-03
9.7533767e-03
1.4806042e-02
1.8340231e-02
1.9704604e-02
1.8534820e-02
1.4641861e-02
8.2782371e-03
5.0077125e-04
-7.1393786e-03
-1.3307000e-02
-1.7270357e-02
-1.8911963e-02
-1.8527749e-02
-1.6473392e-02
-1.2781254e-02
-7.3978110e-03
-1.0050700e-03
5.0188534e-03
9.7199400e-03
1.3178279e-02
1.5787223e-02
1.7273244e-02
1.6934726e-02
1.4549591e-02
1.0432769e-02
5.0163706e-03
-1.0858107e-03
-7.0085153e-03
-1.1972368e-02
-1.5422515e-02
-1.7023283e-02
-1.6881363e-02
-1.5335786e-02
-1.2334383e-02
-7.5439446e-03
-1.1479024e-03
5.7871797e-03
1.1793554e-02
1.5786675e-02
1.7359732e-02
1.6627638e-02
1.3984268e-02
9.9063011e-03
5.1376318e-03
5.8194228e-04
-3.4593795e-03
-7.2501397e-03
-1.0687044e-02
-1.3080408e-02
-1.3875530e-02
-1.3106089e-02
-1.1113546e-02
-8.2004127e-03
-4.5739568e-03
-4.1191895e-04
4.0414207e-03
8.4165443e-03
1.2290110e-02
1.5173829e-02
1.6317356e-02
1.4950054e-02
1.1036791e-02
5.4947916e-03
-5.0632360e-04
-6.0633684e-03
-1.0345507e-02
-1.2755621e-02
-1.3533299e-02
-1.3453102e-02
-1.2804191e-02
-1.1207741e-02
-8.3547039e-03
-4.4062836e-03
2.6854099e-04
5.2686409e-03
1.0041047e-02
1.3947571e-02
1.6383551e-02
1.6726044e-02
1.4580842e-02
1.0149944e-02
4.1855541e-03
-2.1786654e-03
-7.6551143e-03
-1.1298832e-02
-1.2790762e-02
-1.2337621e-02
-1.0579090e-02
-8.3068535e-03
-5.9084740e-03
-3.2884453e-03
-3.9007480e-04
2.6128003e-03
5.5739648e-03
8.4131723e-03
1.0937766e-02
1.2704373e-02
1.3150985e-02
1.2034231e-02
9.4919085e-03
5.7278817e-03
1.0467590e-03
-4.1081700e-03
-9.4103042e-03
-1.4583338e-02
-1.9168930e-02
-2.2642173e-02
-2.4434296e-02
-2.3623280e-02
-1.8982086e-02
-9.6700314e-03
3.8032490e-03
1.8883401e-02
3.1466281e-02
3.7772915e-02
3.6197940e-02
2.7773316e-02
1.5327837e-02
2.3053036e-03
-8.1761338e-03
-1.4216452e-02
-1.5802942e-02
-1.4549283e-02
-1.2565089e-02
-1.1265641e-02
-1.0859798e-02
-1.0755219e-02
-1.0357876e-02
-9.3014039e-03
-7.0000782e-03
-2.7147427e-03
3.6129675e-03
1.0919617e-02
1.7305907e-02
2.0769517e-02
2.0220901e-02
1.6015313e-02
9.5482806e-03
2.5893261e-03
-3.3001598e-03
-7.4689480e-03
-1.0385669e-02
-1.2790570e-02
-1.4776990e-02
-1.5901020e-02
-1.5811275e-02
-1.4449384e-02
-1.1813127e-02
-7.7101988e-03
-1.8076044e-03
5.7666698e-03
1.3738285e-02
2.0079732e-02
2.3342916e-02
2.3324793e-02
2.0457506e-02
1.5172715e-02
8.0444518e-03
-9.3118295e-05
-8.2607403e-03
-1.5301980e-02
-2.0116935e-02
-2.2067176e-02
-2.1090513e-02
-1.7604387e-02
-1.2229385e-02
-5.4838799e-03
2.1297419e-03
9.7011396e-03
1.5972533e-02
1.9966350e-02
2.1186680e-02
1.9529383e-02
1.5619430e-02
1.0667271e-02
5.3304913e-03
-5.9693128e-04
-7.0785931e-03
-1.3236118e-02
-1.7895921e-02
-2.0263532e-02
-2.0285002e-02
-1.8553330e-02
-1.5788260e-02
-1.2477360e-02
-8.6848746e-03
-3.9424763e-03
2.2692719e-03
9.8238007e-03
1.7862650e-02
2.5096102e-02
2.9900295e-02
3.0471472e-02
2.5809393e-02
1.6769620e-02
5.3241653e-03
-6.8904379e-03
-1.8371917e-02
-2.7155685e-02
-3.1463542e-02
-3.0455046e-02
-2.4331051e-02
-1.4419982e-02
-3.3775601e-03
5.7383174e-03
1.1498527e-02
1.4589254e-02
1.6269242e-02
1.7255499e-02
1.7760770e-02
1.7548939e-02
1.5950628e-02
1.2517131e-02
7.7121920e-03
2.4942883e-03
-2.6987270e-03
-7.9882051e-03
-1.3447162e-02
-1.8962502e-02
-2.3962320e-02
-2.7230640e-02
-2.7619375e-02
-2.4367179e-02
-1.6623764e-02
-4.0505919e-03
1.1245032e-02
2.4258683e-02
3.0133693e-02
2.7882107e-02
2.0387184e-02
1.1393045e-02
3.5714976e-03
-1.4493645e-03
-3.0050265e-03
-1.7343162e-03
5.7762129e-04
1.7374176e-03
1.2743267e-04
-4.1270247e-03
-8.9441234e-03
-1.1895513e-02
-1.1919020e-02
-9.4385154e-03
-5.6183979e-03
-1.8539720e-03
4.1234706e-04
1.6620576e-04
-2.1113862e-03
-4.1470180e-03
-3.3784901e-03
1.0712794e-03
7.8699386e-03
1.4852187e-02
2.0634911e-02
2.4570979e-02
2.5584134e-02
2.2006104e-02
1.3102269e-02
4.4809797e-04
-1.2708225e-02
-2.3417961e-02
-3.0257222e-02
-3.3109697e-02
-3.2473323e-02
-2.8776091e-02
-2.1929155e-02
-1.1915240e-02
1.6078035e-04
1.2052207e-02
2.1263158e-02
2.6071360e-02
2.6472456e-02
2.4106662e-02
2.0758539e-02
1.6987406e-02
1.1955460e-02
4.4715676e-03
-5.1919756e-03
-1.4464275e-02
-1.9978367e-02
-2.0080885e-02
-1.5850801e-02
-9.9362514e-03
-4.6278364e-03
-9.4162146e-04
9.1516496e-04
9.8020233e-04
-3.1926479e-04
-1.8910562e-03
-2.2928289e-03
-7.1104776e-04
2.5428082e-03
6.7044756e-03
1.1099041e-02
1.4927841e-02
1.7141732e-02
1.6704305e-02
1.3256346e-02
7.7278460e-03
1.6402670e-03
-4.3625733e-03
-1.0695579e-02
-1.7486863e-02
-2.3410034e-02
-2.6178938e-02
-2.4302479e-02
-1.8329509e-02
-1.0287522e-02
-1.9860777e-03
5.6307814e-03
1.1862743e-02
1.6227423e-02
1.9013397e-02
2.0898013e-02
2.2017271e-02
2.1844194e-02
1.9720873e-02
1.5395042e-02
9.2950120e-03
2.2016968e-03
-5.5370582e-03
-1.4049525e-02
-2.2738418e-02
-2.9781644e-02
-3.3389281e-02
-3.2946697e-02
-2.8753472e-02
-2.1354487e-02
-1.1595530e-02
-7.2717869e-04
9.9782261e-03
1.9241074e-02
2.5704926e-02
2.8691205e-02
2.8682421e-02
2.6348186e-02
2.1668680e-02
1.4508101e-02
5.3999310e-03
-4.3303127e-03
-1.2864752e-02
-1.8559567e-02
-2.0514266e-02
-1.8540717e-02
-1.3042839e-02
-5.2325356e-03
3.0084600e-03
9.9385136e-03
1.4558799e-02
1.6421559e-02
1.5202815e-02
1.0771244e-02
3.7693470e-03
-4.0079986e-03
-1.0458133e-02
-1.4777863e-02
-1.7574775e-02
-1.9249658e-02
-1.9200133e-02
-1.6711897e-02
-1.1802291e-02
-4.9405525e-03
3.4471687e-03
1.2586003e-02
2.0754906e-02
2.5762674e-02
2.6108931e-02
2.1678355e-02
1.3742992e-02
4.5321119e-03
-3.6860822e-03
-9.7554677e-03
-1.3819579e-02
-1.6276449e-02
-1.7080719e-02
-1.6036508e-02
-1.3112869e-02
-8.6167215e-03
-3.4944225e-03
9.7988127e-04
4.0416652e-03
5.5488124e-03
5.6971802e-03
5.1848895e-03
5.0364495e-03
5.7584558e-03
7.0036072e-03
8.1665386e-03
8.8306280e-03
8.5937925e-03
7.1310279e-03
4.6466639e-03
1.8879832e-03
-4.1139732e-04
-2.0768756e-03
-3.5507981e-03
-5.3249414e-03
-7.2958854e-03
-8.8550447e-03
-9.6418738e-03
-9.9783239e-03
-1.0317263e-02
-1.0428191e-02
-9.4631177e-03
-6.7263918e-03
-2.1851079e-03
3.5507237e-03
9.5037064e-03
1.4666388e-02
1.8182910e-02
1.9348144e-02
1.7695633e-02
1.3299181e-02
7.0404676e-03
3.3423107e-04
-5.6863443e-03
-1.0549254e-02
-1.3973300e-02
-1.5633019e-02
-1.5618026e-02
-1.4421669e-02
-1.2211298e-02
-8.6768750e-03
-3.6959926e-03
2.1028992e-03
7.4496347e-03
1.1291184e-02
1.3519517e-02
1.4463649e-02
1.3942038e-02
1.1452356e-02
6.9959042e-03
1.3516466e-03
-4.1125052e-03
-8.0254691e-03
-9.8792162e-03
-1.0165602e-02
-9.4413230e-03
-7.7601588e-03
-5.2719404e-03
-2.5708901e-03
-9.5822875e-05
2.2166568e-03
4.4720697e-03
6.2859155e-03
6.8975362e-03
5.9259983e-03
3.8726096e-03
1.5206405e-03
-9.4471729e-04
-3.5751285e-03
-5.7580090e-03
-6.3956517e-03
-4.7559098e-03
-1.0562437e-03
3.4996959e-03
7.3300276e-03
9.2378576e-03
8.7013032e-03
5.6399182e-03
4.0761368e-04
-5.6455241e-03
-1.0318299e-02
-1.2008505e-02
-1.0809294e-02
-7.8534556e-03
-3.9323291e-03
7.7701305e-04
6.0407023e-03
1.1197554e-02
1.5276298e-02
1.7283289e-02
1.6474607e-02
1.2574167e-02
6.0269156e-03
-1.8691663e-03
-9.2677048e-03
-1.4635394e-02
-1.7565418e-02
-1.8486489e-02
-1.7605894e-02
-1.4731792e-02
-1.0151525e-02
-4.9689593e-03
-4.5914843e-04
2.5422718e-03
3.9082187e-03
4.1374507e-03
3.9085607e-03
3.8473580e-03
4.5884831e-03
6.7911730e-03
1.0825716e-02
1.5940977e-02
1.9925702e-02
2.0371365e-02
1.6387892e-02
9.0640033e-03
7.6179041e-04
-6.1435805e-03
-1.0538111e-02
-1.2747349e-02
-1.3494030e-02
-1.3203492e-02
-1.2458784e-02
-1.2199462e-02
-1.2677617e-02
-1.2807047e-02
-1.1332504e-02
-8.2409996e-03
-4.4025510e-03
-2.6787267e-04
4.2910085e-03
9.0667955e-03
1.3272064e-02
1.6373559e-02
1.8500299e-02
1.9683482e-02
1.9421552e-02
1.7186075e-02
1.2696183e-02
6.1147267e-03
-1.5882530e-03
-9.1835136e-03
-1.6064188e-02
-2.1861722e-02
-2.5574905e-02
-2.5983052e-02
-2.2909190e-02
-1.7505736e-02
-1.1196847e-02
-4.7609748e-03
1.5373434e-03
7.4698419e-03
1.2682393e-02
1.6816856e-02
1.9815240e-02
2.1952082e-02
2.3066423e-02
2.2010652e-02
1.7748316e-02
1.0875510e-02
3.2448005e-03
-3.7862471e-03
-9.9918621e-03
-1.5253060e-02
-1.8766175e-02
-1.9606820e-02
-1.7655463e-02
-1.3806018e-02
-9.4125031e-03
-5.3809082e-03
-1.7924412e-03
1.2679077e-03
3.0577562e-03
3.1233574e-03
2.2750819e-03
2.0146453e-03
3.3243802e-03
6.0458318e-03
9.1498707e-03
1.1454752e-02
1.2147354e-02
1.0962082e-02
8.0439088e-03
3.7250986e-03
-1.3236593e-03
-5.9046142e-03
-8.8018807e-03
-9.6788432e-03
-9.2262504e-03
-8.3904667e-03
-7.7738291e-03
-7.5849100e-03
-7.6747170e-03
-7.4914075e-03
-6.2456794e-03
-3.5321199e-03
3.1479201e-04
4.5942894e-03
8.6342713e-03
1.1993626e-02
1.4656438e-02
1.6756346e-02
1.7889483e-02
1.7072555e-02
1.3660484e-02
8.1953113e-03
2.0032353e-03
-4.0857773e-03
-1.0000579e-02
-1.5432980e-02
-1.9381497e-02
-2.0805263e-02
-1.9437016e-02
-1.5995295e-02
-1.1615819e-02
-7.1701843e-03
-3.2639077e-03
-3.1364829e-04
1.9255134e-03
4.4956524e-03
8.3426503e-03
1.3245799e-02
1.7831783e-02
2.0541597e-02
2.0415151e-02
1.7359932e-02
1.2001169e-02
5.1937506e-03
-2.1755452e-03
-9.0656496e-03
-1.4618856e-02
-1.8611662e-02
-2.0964554e-02
-2.0973257e-02
-1.7850543e-02
-1.2004811e-02
-5.0866872e-03
1.1948907e-03
6.0059855e-03
9.4540984e-03
1.2032239e-02
1.4001945e-02
1.5139300e-02
1.4883127e-02
1.2813545e-02
9.0699827e-03
4.3045793e-03
-6.0423425e-04
-4.7756014e-03
-7.5919580e-03
-8.9479908e-03
-9.1755266e-03
-8.6731917e-03
-7.5972873e-03
-5.9154392e-03
-3.7506838e-03
-1.5332555e-03
3.0095028e-04
1.6410952e-03
2.5961841e-03
3.2036505e-03
3.4254945e-03
3.3111720e-03
2.9785998e-03
2.5050726e-03
1.9281251e-03
1.2857045e-03
6.2510174e-04
