1.2670366e-01
2.1050467e-01
3.1850905e-01
4.5948992e-01
6.3091706e-01
8.1711550e-01
9.9095199e-01
1.1186811e+00
1.1668316e+00
1.1095873e+00
9.3508213e-01
6.4920988e-01
2.7584358e-01
-1.4692186e-01
-5.7355206e-01
-9.5866792e-01
-1.2630693e+00
-1.4569251e+00
-1.5204985e+00
-1.4438817e+00
-1.2272650e+00
-8.8246355e-01
-4.3531467e-01
7.2562231e-02
5.8491099e-01
1.0368383e+00
1.3657434e+00
1.5245697e+00
1.4929187e+00
1.2818426e+00
9.3049615e-01
4.9599621e-01
4.0176173e-02
-3.8246944e-01
-7.3234903e-01
-9.8646810e-01
-1.1350203e+00
-1.1754840e+00
-1.1077859e+00
-9.3342195e-01
-6.5904608e-01
-3.0223219e-01
1.0428814e-01
5.1295974e-01
8.6743625e-01
1.1132906e+00
1.2105670e+00
1.1442177e+00
9.2856824e-01
6.0365845e-01
2.2430059e-01
-1.5422401e-01
-4.8837883e-01
-7.5207633e-01
-9.3456038e-01
-1.0327560e+00
-1.0428997e+00
-9.5662707e-01
-7.6439617e-01
-4.6492966e-01
-7.5595273e-02
3.6232310e-01
7.8719815e-01
1.1291134e+00
1.3263484e+00
1.3406311e+00
1.1663875e+00
8.3171400e-01
3.9148758e-01
-8.5001292e-02
-5.2840638e-01
-8.8198769e-01
-1.1097185e+00
-1.1986472e+00
-1.1560771e+00
-1.0032863e+00
-7.6804002e-01
-4.7824638e-01
-1.5865257e-01
1.6872053e-01
4.8141427e-01
7.5319421e-01
9.5363272e-01
1.0526108e+00
1.0291174e+00
8.8074416e-01
6.2879153e-01
3.1527625e-01
-7.9760456e-03
-2.9374723e-01
-5.1103865e-01
-6.4917825e-01
-7.1374874e-01
-7.1759742e-01
-6.7193985e-01
-5.8162139e-01
-4.4593476e-01
-2.6366955e-01
-3.9571566e-02
2.1068505e-01
4.5914295e-01
6.6884920e-01
8.0146354e-01
8.2729063e-01
7.3443392e-01
5.3344180e-01
2.5528302e-01
-5.6719115e-02
-3.5775654e-01
-6.1096040e-01
-7.9216262e-01
-8.8926548e-01
-8.9814762e-01
-8.1848621e-01
-6.5232530e-01
-4.0607393e-01
-9.4405229e-02
2.5638085e-01
6.0761559e-01
9.1148628e-01
1.1186722e+00
1.1893029e+00
1.1041482e+00
8.7176119e-01
5.2821158e-01
1.2898706e-01
-2.6400953e-01
-5.9569221e-01
-8.2725268e-01
-9.4006028e-01
-9.3444601e-01
-8.2525924e-01
-6.3659622e-01
-3.9754639e-01
-1.3934878e-01
1.0697360e-01
3.1348666e-01
4.5864374e-01
5.3006830e-01
5.2602217e-01
4.5529845e-01
3.3540064e-01
1.8883903e-01
3.7947573e-02
-1.0027329e-01
-2.1713653e-01
-3.1155273e-01
-3.8579962e-01
-4.3969509e-01
-4.6595253e-01
-4.4923753e-01
-3.7025559e-01
-2.1429335e-01
1.8608929e-02
3.0626194e-01
6.0383219e-01
8.5201433e-01
9.9224480e-01
9.8420060e-01
8.1915433e-01
5.2370705e-01
1.5216457e-01
-2.2935622e-01
-5.6065163e-01
-8.0023758e-01
-9.2923132e-01
-9.4680647e-01
-8.6175565e-01
-6.8601391e-01
-4.3382544e-01
-1.2598320e-01
2.0505160e-01
5.1414192e-01
7.4931013e-01
8.6348953e-01
8.2829652e-01
6.4476257e-01
3.4664515e-01
-5.8577028e-03
-3.4088836e-01
-5.9377424e-01
-7.2366612e-01
-7.2241089e-01
-6.1302766e-01
-4.3888664e-01
-2.4772467e-01
-7.6091904e-02
6.0470083e-02
1.6816196e-01
2.6655832e-01
3.7487319e-01
4.9893845e-01
6.2461126e-01
7.2055911e-01
7.4949498e-01
6.8332115e-01
5.1570804e-01
2.6658167e-01
-2.3327193e-02
-3.0523201e-01
-5.3683842e-01
-6.9314267e-01
-7.7010944e-01
-7.8082675e-01
-7.4630595e-01
-6.8467576e-01
-6.0291911e-01
-4.9442312e-01
-3.4347980e-01
-1.3506066e-01
1.3406580e-01
4.4736180e-01
7.6690190e-01
1.0390811e+00
1.2064438e+00
1.2226779e+00
1.0665240e+00
7.5000791e-01
3.1784065e-01
-1.6207647e-01
-6.1386691e-01
-9.6978235e-01
-1.1827702e+00
-1.2328469e+00
-1.1267938e+00
-8.9260400e-01
-5.7123833e-01
-2.0828888e-01
1.5264271e-01
4.7412183e-01
7.2683701e-01
8.9016706e-01
9.5229805e-01
9.1054010e-01
7.7199004e-01
5.5402424e-01
2.8353955e-01
-6.0641902e-03
-2.8018554e-01
-5.0921740e-01
-6.7338180e-01
-7.6435700e-01
-7.8331924e-01
-7.3657514e-01
-6.3085803e-01
-4.7052404e-01
-2.5831304e-01
1.5161975e-04
2.9007399e-01
5.8297717e-01
8.3745188e-01
1.0065562e+00
1.0501063e+00
9.4747028e-01
7.0577132e-01
3.6005002e-01
-3.4874880e-02
-4.1792310e-01
-7.3587691e-01
-9.5332955e-01
-1.0554407e+00
-1.0437205e+00
-9.2852796e-01
-7.2340730e-01
-4.4444689e-01
-1.1381970e-01
2.3647063e-01
5.6482657e-01
8.2604393e-01
9.8155372e-01
1.0100051e+00
9.1364498e-01
7.1744113e-01
4.6106286e-01
1.8712219e-01
-6.9459472e-02
-2.8730361e-01
-4.5876324e-01
-5.8586024e-01
-6.7415360e-01
-7.2657538e-01
-7.3915205e-01
-7.0038158e-01
-5.9515905e-01
-4.1238735e-01
-1.5358511e-01
1.6102315e-01
4.9182352e-01
7.8569182e-01
9.8743543e-01
1.0537953e+00
9.6572152e-01
7.3476696e-01
4.0126361e-01
2.4746765e-02
-3.3044581e-01
-6.1020172e-01
-7.8202143e-01
-8.3944668e-01
-7.9831226e-01
-6.8664024e-01
-5.3266906e-01
-3.5616104e-01
-1.6624380e-01
3.4301345e-02
2.4139542e-01
4.4301128e-01
6.1699064e-01
7.3452469e-01
7.6805305e-01
7.0063143e-01
5.3323525e-01
2.8715895e-01
4.3472263e-04
-2.8069303e-01
-5.1254020e-01
-6.6358762e-01
-7.1999561e-01
-6.8569456e-01
-5.7771940e-01
-4.1900857e-01
-2.3148783e-01
-3.1869931e-02
1.6856590e-01
3.6066468e-01
5.3279200e-01
6.6803770e-01
7.4546027e-01
7.4540074e-01
6.5669573e-01
4.8255134e-01
2.4230407e-01
-3.1959957e-02
-3.0274593e-01
-5.3565307e-01
-7.0597142e-01
-8.0142887e-01
-8.2094169e-01
-7.7073262e-01
-6.5990071e-01
-4.9740967e-01
-2.9160979e-01
-5.2179699e-02
2.0666924e-01
4.6350250e-01
6.8948934e-01
8.5221951e-01
9.2323514e-01
8.8668005e-01
7.4523430e-01
5.2044501e-01
2.4718126e-01
-3.5366803e-02
-2.9248297e-01
-4.9951379e-01
-6.4309780e-01
-7.1885125e-01
-7.2764155e-01
-6.7272865e-01
-5.5897292e-01
-3.9377436e-01
-1.8858835e-01
3.9934155e-02
2.6968977e-01
4.7424406e-01
6.2593783e-01
7.0106975e-01
6.8596882e-01
5.8159997e-01
4.0442866e-01
1.8281864e-01
-4.9783953e-02
-2.6246037e-01
-4.3276251e-01
-5.4920003e-01
-6.0966876e-01
-6.1686874e-01
-5.7324427e-01
-4.7834042e-01
-3.3031896e-01
-1.3117714e-01
1.0696923e-01
3.5817103e-01
5.8435674e-01
7.4310087e-01
7.9937337e-01
7.3716551e-01
5.6639854e-01
3.2180508e-01
5.3276145e-02
-1.8925840e-01
-3.7057929e-01
-4.7856052e-01
-5.2310530e-01
-5.2696605e-01
-5.1312798e-01
-4.9410548e-01
-4.6686648e-01
-4.1468004e-01
-3.1498444e-01
-1.5053204e-01
8.0179094e-02
3.5713778e-01
6.4007671e-01
8.7669890e-01
1.0156130e+00
1.0202166e+00
8.7919215e-01
6.1010957e-01
2.5502635e-01
-1.3006585e-01
-4.8823017e-01
-7.7329924e-01
-9.5775017e-01
-1.0352769e+00
-1.0175122e+00
-9.2580560e-01
-7.8100785e-01
-5.9559965e-01
-3.7183397e-01
-1.0678624e-01
1.9821801e-01
5.2851353e-01
8.5197665e-01
1.1224038e+00
1.2898381e+00
1.3144684e+00
1.1791695e+00
8.9608055e-01
5.0480470e-01
6.2996904e-02
-3.6713835e-01
-7.3184093e-01
-9.9455054e-01
-1.1387733e+00
-1.1656278e+00
-1.0881874e+00
-9.2524510e-01
-6.9667284e-01
-4.2142297e-01
-1.1791751e-01
1.9434308e-01
4.9327340e-01
7.5375341e-01
9.4882992e-01
1.0529179e+00
1.0468553e+00
9.2377061e-01
6.9383269e-01
3.8565571e-01
4.2734372e-02
-2.8520366e-01
-5.5393483e-01
-7.3564016e-01
-8.2449812e-01
-8.3420944e-01
-7.8822814e-01
-7.0709819e-01
-5.9893917e-01
-4.5766534e-01
-2.6965375e-01
-2.5439597e-02
2.6921040e-01
5.8786231e-01
8.8582860e-01
1.1094665e+00
1.2093594e+00
1.1536555e+00
9.3783685e-01
5.8784389e-01
1.5522894e-01
-2.9432353e-01
-6.9546170e-01
-9.9629638e-01
-1.1668906e+00
-1.2015340e+00
-1.1149231e+00
-9.3397912e-01
-6.8843380e-01
-4.0374721e-01
-9.8723414e-02
2.1218475e-01
5.1408073e-01
7.8741960e-01
1.0068999e+00
1.1444634e+00
1.1756424e+00
1.0869900e+00
8.8160818e-01
5.8035342e-01
2.1814999e-01
-1.6298948e-01
-5.2149934e-01
-8.2205133e-01
-1.0386546e+00
-1.1553294e+00
-1.1652177e+00
-1.0692443e+00
-8.7541832e-01
-5.9919622e-01
-2.6410488e-01
9.8863330e-02
4.5389178e-01
7.6439092e-01
9.9711820e-01
1.1256457e+00
1.1334924e+00
1.0173505e+00
7.8979963e-01
4.7988536e-01
1.3009515e-01
-2.1045365e-01
-4.9535517e-01
-6.9055494e-01
-7.8160434e-01
-7.7601333e-01
-6.9933948e-01
-5.8575349e-01
-4.6604930e-01
-3.5736368e-01
-2.5858851e-01
-1.5354423e-01
-2.1016359e-02
1.5214811e-01
3.6032202e-01
5.7572447e-01
7.5465577e-01
8.5149258e-01
8.3486967e-01
6.9920250e-01
4.6682779e-01
1.8043139e-01
-1.1042371e-01
-3.6304434e-01
-5.5087925e-01
-6.6601432e-01
-7.1524242e-01
-7.1211271e-01
-6.6847814e-01
-5.8897620e-01
-4.7050645e-01
-3.0655887e-01
-9.4195611e-02
1.5943902e-01
4.3370891e-01
6.9539572e-01
9.0367073e-01
1.0178901e+00
1.0065738e+00
8.5588644e-01
5.7589872e-01
2.0266374e-01
-2.0589086e-01
-5.8114380e-01
-8.6020137e-01
-1.0024595e+00
-9.9977364e-01
-8.7582497e-01
-6.7504898e-01
-4.4596494e-01
-2.2557674e-01
-3.0441440e-02
1.4295894e-01
3.0949168e-01
4.8227964e-01
6.6085374e-01
8.2583833e-01
9.4291236e-01
9.7463547e-01
8.9491006e-01
6.9962284e-01
4.0905804e-01
6.1609357e-02
-2.9791618e-01
-6.2997895e-01
-9.0688625e-01
-1.1120694e+00
-1.2340412e+00
-1.2601624e+00
-1.1753852e+00
-9.6782102e-01
-6.3842003e-01
-2.0928910e-01
2.7426143e-01
7.4977683e-01
1.1500518e+00
1.4176946e+00
1.5172929e+00
1.4418602e+00
1.2121991e+00
8.6988508e-01
4.6644072e-01
5.2286625e-02
-3.3145457e-01
-6.5686353e-01
-9.0899861e-01
-1.0826329e+00
-1.1774968e+00
-1.1937966e+00
-1.1297270e+00
-9.8213668e-01
-7.5034382e-01
-4.4161323e-01
-7.5664463e-02
3.1451333e-01
6.8691242e-01
9.9875093e-01
1.2153935e+00
1.3161898e+00
1.2953408e+00
1.1588143e+00
9.2022644e-01
5.9836529e-01
2.1716784e-01
-1.9304040e-01
-5.9511523e-01
-9.4707746e-01
-1.2069667e+00
-1.3398419e+00
-1.3251174e+00
-1.1616994e+00
-8.6884100e-01
-4.8254840e-01
-4.9513482e-02
3.7882543e-01
7.5088845e-01
1.0191357e+00
1.1456077e+00
1.1093538e+00
9.1388725e-01
5.9107982e-01
1.9807055e-01
-1.9392216e-01
-5.1629056e-01
-7.1949375e-01
-7.8316077e-01
-7.1669535e-01
-5.5175749e-01
-3.3110988e-01
-9.8294485e-02
1.0973585e-01
2.6719857e-01
3.6206502e-01
3.9668155e-01
3.8571229e-01
3.5092339e-01
3.1351813e-01
2.8615320e-01
2.6762621e-01
2.4299180e-01
1.9019993e-01
9.1322537e-02
-5.6619058e-02
-2.3690780e-01
-4.1729538e-01
-5.6116095e-01
-6.4020030e-01
-6.4278943e-01
-5.7475825e-01
-4.5324400e-01
-2.9752215e-01
-1.2175079e-01
6.6870801e-02
2.6406218e-01
4.6125519e-01
6.3985237e-01
7.7121513e-01
8.2381093e-01
7.7482974e-01
6.2058173e-01
3.8025197e-01
9.1127546e-02
-2.0218055e-01
-4.5953714e-01
-6.5353211e-01
-7.7186031e-01
-8.1420155e-01
-7.8614880e-01
-6.9369082e-01
-5.4105801e-01
-3.3271213e-01
-7.7980764e-02
2.0451592e-01
4.8537376e-01
7.2730445e-01
8.9221982e-01
9.5069690e-01
8.9070764e-01
7.2208152e-01
4.7444255e-01
1.8910871e-01
-9.1890431e-02
-3.3553757e-01
-5.2314358e-01
-6.5014197e-01
-7.2126680e-01
-7.4350317e-01
-7.1993604e-01
-6.4730202e-01
-5.1851272e-01
-3.2917442e-01
-8.5217789e-02
1.9195216e-01
4.6563474e-01
6.9034019e-01
8.2323750e-01
8.3690065e-01
7.2847258e-01
5.2116043e-01
2.5705945e-01
-1.5722935e-02
-2.5620012e-01
-4.3888088e-01
-5.5510275e-01
-6.0834078e-01
-6.0678193e-01
-5.5693377e-01
-4.6090396e-01
-3.1806736e-01
-1.2995726e-01
9.4143021e-02
3.3391140e-01
5.5918705e-01
7.3579422e-01
8.3384608e-01
8.3521575e-01
7.3740299e-01
5.5281093e-01
3.0441324e-01
1.9980306e-02
-2.7288615e-01
-5.4946702e-01
-7.8823071e-01
-9.6973393e-01
-1.0755552e+00
-1.0884349e+00
-9.9437451e-01
-7.8694742e-01
-4.7304036e-01
-7.7740057e-02
3.5477141e-01
7.6637873e-01
1.0955697e+00
1.2901471e+00
1.3183383e+00
1.1757328e+00
8.8704183e-01
5.0250813e-01
8.9112139e-02
-2.8261932e-01
-5.5402513e-01
-6.9229508e-01
-6.9872775e-01
-6.0777364e-01
-4.7586298e-01
-3.6259124e-01
-3.1002324e-01
-3.2722320e-01
-3.8602403e-01
-4.3069056e-01
-3.9927580e-01
-2.4962993e-01
1.9726427e-02
3.6264320e-01
6.9622746e-01
9.2659665e-01
9.8032756e-01
8.2971539e-01
5.0232404e-01
7.1966063e-02
-3.6407972e-01
-7.1208734e-01
-9.0391496e-01
-9.0894397e-01
-7.3555114e-01
-4.2465982e-01
-3.8706252e-02
3.5116171e-01
6.7780637e-01
8.8956489e-01
9.5912282e-01
8.8774677e-01
7.0277724e-01
4.4805891e-01
1.7013644e-01
-9.4612646e-02
-3.2708111e-01
-5.2467950e-01
-6.9391327e-01
-8.3984293e-01
-9.5703682e-01
-1.0262325e+00
-1.0188175e+00
-9.0776314e-01
-6.8035245e-01
-3.4694996e-01
5.7998915e-02
4.8277626e-01
8.6981446e-01
1.1675103e+00
1.3392327e+00
1.3681141e+00
1.2576302e+00
1.0287067e+00
7.1441994e-01
3.5354812e-01
-1.5736743e-02
-3.6090489e-01
-6.5799821e-01
-8.9204669e-01
-1.0551815e+00
-1.1433759e+00
-1.1533043e+00
-1.0808267e+00
-9.2190194e-01
-6.7570478e-01
-3.4898504e-01
3.9557704e-02
4.5634122e-01
8.5329251e-01
1.1734361e+00
1.3620875e+00
1.3811579e+00
1.2214287e+00
9.0742656e-01
4.9230021e-01
4.4303322e-02
-3.7021676e-01
-7.0140462e-01
-9.2345342e-01
-1.0335019e+00
-1.0438674e+00
-9.7230691e-01
-8.3508226e-01
-6.4496220e-01
-4.1298413e-01
-1.5120878e-01
1.2554039e-01
3.9915012e-01
6.4807974e-01
8.4739910e-01
9.7015013e-01
9.9156405e-01
8.9624135e-01
6.8605890e-01
3.8505001e-01
3.7949327e-02
-2.9859600e-01
-5.6997474e-01
-7.3789497e-01
-7.8948360e-01
-7.3768923e-01
-6.1333781e-01
-4.5270953e-01
-2.8574414e-01
-1.2876489e-01
1.6664509e-02
1.5910343e-01
3.0861541e-01
4.6723337e-01
6.2237682e-01
7.4649586e-01
8.0388253e-01
7.6244898e-01
6.0593573e-01
3.4166181e-01
6.8151326e-04
-3.6970194e-01
-7.1791194e-01
-9.9955874e-01
-1.1840729e+00
-1.2551930e+00
-1.2073254e+00
-1.0413115e+00
-7.6231985e-01
-3.8075277e-01
8.4218163e-02
5.9954787e-01
1.1138989e+00
1.5578370e+00
1.8526484e+00
1.9284712e+00
1.7468610e+00
1.3187123e+00
7.0868354e-01
2.2257055e-02
-6.2119205e-01
-1.1200358e+00
-1.4155529e+00
-1.5020896e+00
-1.4196278e+00
-1.2328825e+00
-1.0058361e+00
-7.8144935e-01
-5.7304168e-01
-3.6851133e-01
-1.4381870e-01
1.2042466e-01
4.2553262e-01
7.4879254e-01
1.0462135e+00
1.2623911e+00
1.3443534e+00
1.2559035e+00
9.8909934e-01
5.6981492e-01
5.5370603e-02
-4.7566718e-01
-9.3890966e-01
-1.2605674e+00
-1.3907421e+00
-1.3110735e+00
-1.0362384e+00
-6.1009247e-01
-9.7640775e-02
4.2583152e-01
8.8675905e-01
1.2243809e+00
1.3990214e+00
1.3963587e+00
1.2273146e+00
9.2392875e-01
5.3220981e-01
1.0347553e-01
-3.1407792e-01
-6.8203929e-01
-9.7554355e-01
-1.1833762e+00
-1.3042824e+00
-1.3406680e+00
-1.2925871e+00
-1.1555507e+00
-9.2401422e-01
-5.9905824e-01
-1.9617830e-01
2.5092846e-01
6.9263221e-01
1.0714078e+00
1.3336812e+00
1.4422659e+00
1.3853912e+00
1.1789990e+00
8.6154810e-01
4.8378888e-01
9.7797133e-02
-2.5108855e-01
-5.2816111e-01
-7.1009628e-01
-7.8447075e-01
-7.4951459e-01
-6.1464211e-01
-4.0140714e-01
-1.4369887e-01
1.1450465e-01
3.2511360e-01
4.4548487e-01
4.4949275e-01
3.3648178e-01
1.3408900e-01
-1.0760913e-01
-3.2992248e-01
-4.8297364e-01
-5.4027925e-01
-5.0482941e-01
-4.0442302e-01
-2.7851238e-01
-1.6222267e-01
-7.3904834e-02
-1.0549865e-02
4.7908691e-02
1.2745704e-01
2.4626529e-01
4.0357385e-01
5.7574446e-01
7.2147451e-01
7.9455266e-01
7.5947460e-01
6.0417263e-01
3.4535435e-01
2.4703025e-02
-3.0264274e-01
-5.8324396e-01
-7.7873159e-01
-8.7272435e-01
-8.6941817e-01
-7.8562142e-01
-6.4078105e-01
-4.5005241e-01
-2.2343783e-01
2.9433849e-02
2.9237340e-01
5.3824477e-01
7.3067110e-01
8.3236204e-01
8.1716452e-01
6.8083930e-01
4.4582081e-01
1.5760189e-01
-1.2633223e-01
-3.5137593e-01
-4.7966533e-01
-4.9872491e-01
-4.2262046e-01
-2.8569047e-01
-1.3093961e-01
3.3487199e-03
9.4405587e-02
1.3927787e-01
1.5108407e-01
1.4922070e-01
1.4836486e-01
1.5145880e-01
1.4945741e-01
1.2708891e-01
7.1363891e-02
-2.0960562e-02
-1.3976206e-01
-2.6294991e-01
-3.6238860e-01
-4.1253036e-01
-3.9911097e-01
-3.2495673e-01
-2.1036772e-01
-8.7060997e-02
1.2845939e-02
6.8925836e-02
8.0786970e-02
6.8984015e-02
6.7521142e-02
1.1022566e-01
2.1589968e-01
3.7810283e-01
5.6398665e-01
7.2304475e-01
8.0258195e-01
7.6429026e-01
5.9649432e-01
3.1858592e-01
-2.3405799e-02
-3.6886950e-01
-6.5895504e-01
-8.5227154e-01
-9.3469149e-01
-9.1967801e-01
-8.3899672e-01
-7.2750689e-01
-6.0813910e-01
-4.8309827e-01
-3.3493709e-01
-1.3740830e-01
1.2784582e-01
4.5540776e-01
8.0802915e-01
1.1209659e+00
1.3186534e+00
1.3386842e+00
1.1546464e+00
7.8894577e-01
3.0979531e-01
-1.8752961e-01
-6.0853811e-01
-8.8590317e-01
-9.9472871e-01
-9.5235505e-01
-8.0500874e-01
-6.0819846e-01
-4.0864565e-01
-2.3333666e-01
-8.7731322e-02
3.8196920e-02
1.5965855e-01
2.8674854e-01
4.1762101e-01
5.3692468e-01
6.1956492e-01
6.3855164e-01
5.7457532e-01
4.2396986e-01
2.0178207e-01
-6.1378583e-02
-3.2704479e-01
-5.5753029e-01
-7.2222355e-01
-8.0040222e-01
-7.8174418e-01
-6.6651634e-01
-4.6625021e-01
-2.0385415e-01
8.8530424e-02
3.7448960e-01
6.1996696e-01
7.9950127e-01
9.0005151e-01
9.2087723e-01
8.6898203e-01
7.5164680e-01
5.6987990e-01
3.1730861e-01
-1.3114782e-02
-4.1644063e-01
-8.6289748e-01
-1.2920880e+00
-1.6191448e+00
-1.7530099e+00
-1.6221190e+00
-1.1998963e+00
-5.2208386e-01
3.1056103e-01
1.1477159e+00
1.8220601e+00
2.1919679e+00
2.1817232e+00
1.8047725e+00
1.1600829e+00
4.0173997e-01
-3.0739048e-01
-8.4128261e-01
-1.1403489e+00
-1.2167239e+00
-1.1361853e+00
-9.8566232e-01
-8.3930763e-01
-7.3492653e-01
-6.6718190e-01
-5.9728697e-01
-4.7376716e-01
-2.5653605e-01
6.3534492e-02
4.5587155e-01
8.5550859e-01
1.1810361e+00
1.3589820e+00
1.3457816e+00
1.1397285e+00
7.7979056e-01
3.3328120e-01
-1.2237063e-01
-5.1774525e-01
-8.0448045e-01
-9.6050578e-01
-9.8765035e-01
-9.0436724e-01
-7.3727847e-01
-5.1438010e-01
-2.6107832e-01
1.0082831e-03
2.5305247e-01
4.7679661e-01
6.5269725e-01
7.6022957e-01
7.8117160e-01
7.0490490e-01
5.3343949e-01
2.8384075e-01
-1.3230911e-02
-3.1874624e-01
-5.9279442e-01
-8.0182899e-01
-9.2322280e-01
-9.4608852e-01
-8.6924693e-01
-6.9835252e-01
-4.4406907e-01
-1.2233746e-01
2.4337815e-01
6.1936664e-01
9.6112323e-01
1.2175556e+00
1.3406668e+00
1.2985419e+00
1.0870659e+00
7.3523006e-01
3.0063189e-01
-1.4457707e-01
-5.3287136e-01
-8.1859426e-01
-9.8673365e-01
-1.0503378e+00
-1.0384847e+00
-9.8035956e-01
-8.9217344e-01
-7.7221337e-01
-6.0575398e-01
-3.7711757e-01
-8.2944032e-02
2.5944743e-01
6.1191189e-01
9.2304094e-01
1.1402439e+00
1.2223824e+00
1.1496594e+00
9.2872422e-01
5.9215738e-01
1.9246036e-01
-2.0832854e-01
-5.5102255e-01
-7.9033222e-01
-9.0150833e-01
-8.8133845e-01
-7.4458911e-01
-5.1841837e-01
-2.3714220e-01
6.1577827e-02
3.3955994e-01
5.6112918e-01
6.9715724e-01
7.2979172e-01
6.5650633e-01
4.9177759e-01
2.6515494e-01
1.5525321e-02
-2.1731976e-01
-4.0162866e-01
-5.2056124e-01
-5.7477238e-01
-5.7958581e-01
-5.5736437e-01
-5.2754811e-01
-4.9800895e-01
-4.6120552e-01
-3.9695893e-01
-2.8106004e-01
-9.6510748e-02
1.5686976e-01
4.5801148e-01
7.6676892e-01
1.0317474e+00
1.2012155e+00
1.2341823e+00
1.1093493e+00
8.3064367e-01
4.2880350e-01
-4.1342222e-02
-5.0851645e-01
-8.9787278e-01
-1.1475498e+00
-1.2243783e+00
-1.1325205e+00
-9.1064195e-01
-6.1816440e-01
-3.1610893e-01
-4.9972765e-02
1.5952801e-01
3.1558859e-01
4.3583458e-01
5.3865108e-01
6.3097050e-01
7.0223951e-01
7.2667334e-01
6.7285883e-01
5.1732511e-01
2.5733336e-01
-8.1820162e-02
-4.4803035e-01
-7.7235193e-01
-9.8506995e-01
-1.0334317e+00
-8.9620553e-01
-5.9100163e-01
-1.7197074e-01
2.8201798e-01
6.8573070e-01
9.6718288e-01
1.0826901e+00
1.0232640e+00
8.1174536e-01
4.9353814e-01
1.2520424e-01
-2.3595943e-01
-5.4030886e-01
-7.5222001e-01
-8.5416335e-01
-8.4762650e-01
-7.5013912e-01
-5.8866358e-01
-3.9116394e-01
-1.7948842e-01
3.3339600e-02
2.4038940e-01
4.3473567e-01
6.0408188e-01
7.2955265e-01
7.8952489e-01
7.6666465e-01
6.5494588e-01
4.6362019e-01
2.1648210e-01
-5.3280267e-02
-3.1063214e-01
-5.2583927e-01
-6.7888813e-01
-7.6036692e-01
-7.6979441e-01
-7.1329692e-01
-6.0189360e-01
-4.5018770e-01
-2.7451530e-01
-9.0238675e-02
9.0964342e-02
2.6246039e-01
4.2176591e-01
5.6748650e-01
6.9525653e-01
7.9460186e-01
8.4867910e-01
8.3789944e-01
7.4667286e-01
5.7068544e-01
3.2139450e-01
2.5426339e-02
-2.8118942e-01
-5.6174200e-01
-7.8713754e-01
-9.4072395e-01
-1.0181341e+00
-1.0227853e+00
-9.5963404e-01
-8.3060685e-01
-6.3424297e-01
-3.6990877e-01
-4.4668690e-02
3.2038251e-01
6.8749504e-01
1.0055137e+00
1.2194658e+00
1.2846014e+00
1.1805573e+00
9.2011426e-01
5.4823252e-01
1.3062605e-01
-2.6435344e-01
-5.8355781e-01
-7.9964419e-01
-9.1088609e-01
-9.3169027e-01
-8.7935417e-01
-7.6374334e-01
-5.8455228e-01
-3.3683051e-01
-2.1449922e-02
3.4497695e-01
7.2561345e-01
1.0664185e+00
1.3055056e+00
1.3858287e+00
1.2680906e+00
9.4137055e-01
4.2931129e-01
-2.0988620e-01
-8.9022048e-01
-1.5102651e+00
-1.9688741e+00
-2.1817838e+00
-2.0969897e+00
-1.7067886e+00
-1.0539512e+00
-2.2932485e-01
6.4086364e-01
1.4173515e+00
1.9759589e+00
2.2347653e+00
2.1724986e+00
1.8319435e+00
1.3065953e+00
7.1441153e-01
1.6687638e-01
-2.5717164e-01
-5.2566968e-01
-6.5261122e-01
-6.8468382e-01
-6.8118050e-01
-6.9419869e-01
-7.5445807e-01
-8.6487040e-01
-1.0013051e+00
-1.1190246e+00
-1.1634832e+00
-1.0842154e+00
-8.4971891e-01
-4.6005882e-01
4.6651744e-02
5.9707031e-01
1.0959456e+00
1.4481215e+00
1.5839438e+00
1.4801146e+00
1.1680241e+00
7.2546462e-01
2.5416556e-01
-1.4872904e-01
-4.1534908e-01
-5.2052515e-01
-4.8134098e-01
-3.4511557e-01
-1.7145515e-01
-1.4879055e-02
8.7022762e-02
1.1794197e-01
8.0787328e-02
-7.9359862e-03
-1.2445502e-01
-2.4327110e-01
-3.4184520e-01
-4.0467979e-01
-4.2628615e-01
-4.1177424e-01
-3.7404289e-01
-3.2792304e-01
-2.8346657e-01
-2.4158065e-01
-1.9426764e-01
-1.2920230e-01
-3.6055153e-02
8.8599451e-02
2.3974096e-01
4.0575742e-01
5.7217153e-01
7.2505702e-01
8.5232156e-01
9.4222905e-01
9.8015017e-01
9.4594160e-01
8.1480849e-01
5.6344259e-01
1.8081659e-01
-3.1974165e-01
-8.9235390e-01
-1.4591848e+00
-1.9221223e+00
-2.1836904e+00
-2.1714067e+00
-1.8578545e+00
-1.2698004e+00
-4.8348946e-01
3.9181265e-01
1.2361846e+00
1.9404305e+00
2.4212417e+00
2.6280365e+00
2.5426433e+00
2.1753749e+00
1.5615615e+00
7.6063397e-01
-1.4374973e-01
-1.0466781e+00
-1.8316730e+00
-2.3873575e+00
-2.6277862e+00
-2.5113996e+00
-2.0536781e+00
-1.3294671e+00
-4.6243786e-01
3.9813257e-01
1.1090470e+00
1.5651514e+00
1.7218460e+00
1.6009054e+00
1.2780903e+00
8.5723935e-01
4.3963265e-01
9.8299111e-02
-1.3535887e-01
-2.6988275e-01
-3.3967805e-01
-3.8528336e-01
-4.3581299e-01
-4.9929580e-01
-5.6280405e-01
-6.0055334e-01
-5.8573398e-01
-5.0127297e-01
-3.4607602e-01
-1.3576359e-01
1.0093036e-01
3.2814242e-01
5.0977130e-01
6.1646497e-01
6.3180467e-01
5.5614836e-01
4.0647091e-01
2.1170467e-01
5.1827148e-03
-1.8260986e-01
-3.2811501e-01
-4.1511840e-01
-4.3367312e-01
-3.8038520e-01
-2.6091289e-01
-9.2576343e-02
9.6242294e-02
2.7156491e-01
4.0255035e-01
4.6948006e-01
4.6717184e-01
4.0273827e-01
2.8993086e-01
1.4377616e-01
-2.1953718e-02
-1.9427980e-01
-3.5916949e-01
-5.0038953e-01
-6.0060065e-01
-6.4494259e-01
-6.2569784e-01
-5.4552399e-01
-4.1715985e-01
-2.5936845e-01
-9.0972842e-02
7.4174191e-02
2.2905616e-01
3.7163502e-01
5.0046625e-01
6.1010652e-01
6.8882732e-01
7.2029470e-01
6.8907688e-01
5.8777030e-01
4.2233381e-01
2.1273997e-01
-1.1814154e-02
-2.2121672e-01
-3.9261488e-01
-5.1497090e-01
-5.8837752e-01
-6.1894180e-01
-6.1196844e-01
-5.6693229e-01
-4.7698464e-01
-3.3360685e-01
-1.3441726e-01
1.0955234e-01
3.7063971e-01
6.0717099e-01
7.7145411e-01
8.2097810e-01
7.2983444e-01
4.9736957e-01
1.5170957e-01
-2.5312175e-01
-6.4648225e-01
-9.5542561e-01
-1.1212083e+00
-1.1136720e+00
-9.3850316e-01
-6.3366305e-01
-2.5507847e-01
1.4312321e-01
5.2474502e-01
8.7551830e-01
1.1923330e+00
1.4635693e+00
1.6526262e+00
1.6966327e+00
1.5251734e+00
1.0927996e+00
4.1011721e-01
-4.4284635e-01
-1.3291534e+00
-2.0889779e+00
-2.5814085e+00
-2.7187484e+00
-2.4833906e+00
-1.9251577e+00
-1.1431905e+00
-2.5970174e-01
6.0629943e-01
1.3584348e+00
1.9318346e+00
2.2920798e+00
2.4282724e+00
2.3452233e+00
2.0582877e+00
1.5920408e+00
9.8201803e-01
2.7743630e-01
-4.5784189e-01
-1.1485448e+00
-1.7164349e+00
-2.0928047e+00
-2.2319417e+00
-2.1216217e+00
-1.7871505e+00
-1.2870425e+00
-7.0077833e-01
-1.1173241e-01
4.0967288e-01
8.1736403e-01
1.0924841e+00
1.2383201e+00
1.2710906e+00
1.2112419e+00
1.0782195e+00
8.8912323e-01
6.5991247e-01
4.0727758e-01
1.4953093e-01
-9.4353616e-02
-3.0726449e-01
-4.7667681e-01
-5.9588918e-01
-6.6291060e-01
-6.7779027e-01
-6.4048995e-01
-5.5119457e-01
-4.1333263e-01
-2.3776132e-01
-4.5617487e-02
1.3248772e-01
2.6207370e-01
3.1438621e-01
2.7700336e-01
1.6109042e-01
1.3499255e-03
-1.5283173e-01
-2.5280261e-01
-2.6698949e-01
-1.9139758e-01
-4.9701934e-02
1.1697120e-01
2.6582215e-01
3.6675505e-01
4.0967721e-01
4.0298574e-01
3.6571170e-01
3.1783294e-01
2.7258831e-01
2.3269196e-01
1.9081797e-01
1.3387637e-01
4.9700969e-02
-6.6333419e-02
-2.0759202e-01
-3.5698329e-01
-4.9174970e-01
-5.9001427e-01
-6.3643700e-01
-6.2502933e-01
-5.5848085e-01
-4.4489933e-01
-2.9413083e-01
-1.1598236e-01
7.8723119e-02
2.7550750e-01
4.5462826e-01
5.9259541e-01
6.6689006e-01
6.6197538e-01
5.7414691e-01
4.1369812e-01
2.0408964e-01
-2.1653169e-02
-2.2696564e-01
-3.7927780e-01
-4.5710215e-01
-4.5425903e-01
-3.7976009e-01
-2.5370952e-01
-1.0109705e-01
5.4178718e-02
1.9320813e-01
3.0311690e-01
3.7582601e-01
4.0618229e-01
3.9122700e-01
3.3122995e-01
2.3155066e-01
1.0366586e-01
-3.5796499e-02
-1.6817738e-01
-2.7737084e-01
-3.5443872e-01
-4.0022230e-01
-4.2408921e-01
-4.3841876e-01
-4.5079404e-01
-4.5777897e-01
-4.4404552e-01
-3.8806400e-01
-2.7205410e-01
-9.1676926e-02
1.3882769e-01
3.8819271e-01
6.1567668e-01
7.8162901e-01
8.5712920e-01
8.2958826e-01
7.0347393e-01
4.9765854e-01
2.4164353e-01
-2.8249581e-02
-2.7326637e-01
-4.5802603e-01
-5.5720867e-01
-5.6096683e-01
-4.7673882e-01
-3.2670896e-01
-1.4224854e-01
4.2169739e-02
1.9350068e-01
2.8266324e-01
2.8652280e-01
1.9160471e-01
7.1552301e-04
-2.5937099e-01
-5.3435046e-01
-7.4904405e-01
-8.2682892e-01
-7.1731980e-01
-4.2112512e-01
1.1423296e-03
4.4297474e-01
7.8613138e-01
9.4175561e-01
8.8135960e-01
6.4497930e-01
3.2412045e-01
2.7747447e-02
-1.5467305e-01
-1.7994248e-01
-6.0227345e-02
1.4599065e-01
3.5594553e-01
4.8945654e-01
4.9225986e-01
3.4943757e-01
8.6116010e-02
-2.4329163e-01
-5.7254899e-01
-8.4138705e-01
-1.0081455e+00
-1.0546946e+00
-9.8434871e-01
-8.1555627e-01
-5.7450523e-01
-2.8902351e-01
1.4925327e-02
3.1400166e-01
5.8657593e-01
8.1196128e-01
9.7113684e-01
1.0488608e+00
1.0360127e+00
9.3122544e-01
7.4172955e-01
4.8362233e-01
1.8130784e-01
-1.3452030e-01
-4.3064046e-01
-6.7626524e-01
-8.4791225e-01
-9.3265602e-01
-9.2872941e-01
-8.4354729e-01
-6.9034666e-01
-4.8507560e-01
-2.4469853e-01
1.2905409e-02
2.6820080e-01
4.9960079e-01
6.8441452e-01
8.0145905e-01
8.3490635e-01
7.7843048e-01
6.3839281e-01
4.3454210e-01
1.9697241e-01
-4.0550538e-02
-2.4876853e-01
-4.0930037e-01
-5.1658656e-01
-5.7498294e-01
-5.9282050e-01
-5.7635510e-01
-5.2633340e-01
-4.3878585e-01
-3.0980682e-01
-1.4185932e-01
5.2139247e-02
2.4965476e-01
4.2401377e-01
5.5151588e-01
6.1673037e-01
6.1430124e-01
5.4776701e-01
4.2691939e-01
2.6505011e-01
7.6923298e-02
-1.2207926e-01
-3.1565294e-01
-4.8583514e-01
-6.1313096e-01
-6.7848507e-01
-6.6691182e-01
-5.7149997e-01
-3.9632530e-01
-1.5739394e-01
1.1858493e-01
3.9740296e-01
6.4209353e-01
8.1851625e-01
9.0089276e-01
8.7628299e-01
7.4693073e-01
5.2965066e-01
2.5227491e-01
-5.1682521e-02
-3.4838864e-01
-6.0780298e-01
-8.0642240e-01
-9.2931147e-01
-9.7165458e-01
-9.3892395e-01
-8.4432776e-01
-7.0339946e-01
-5.2768794e-01
-3.2075733e-01
-7.9023665e-02
2.0224584e-01
5.1993033e-01
8.5486736e-01
1.1685096e+00
1.4071381e+00
1.5138557e+00
1.4455001e+00
1.1888856e+00
7.6981819e-01
2.5029361e-01
-2.8620930e-01
-7.5647549e-01
-1.0985966e+00
-1.2849628e+00
-1.3230733e+00
-1.2447734e+00
-1.0891102e+00
-8.8646669e-01
-6.5065371e-01
-3.8166904e-01
-7.6841650e-02
2.5571927e-01
5.8853294e-01
8.7605668e-01
1.0663703e+00
1.1186068e+00
1.0183956e+00
7.8432122e-01
4.6271086e-01
1.1344888e-01
-2.0693417e-01
-4.5831590e-01
-6.2206736e-01
-6.9797743e-01
-6.9638762e-01
-6.3034544e-01
-5.1139526e-01
-3.5000067e-01
-1.5909142e-01
4.2371483e-02
2.2919905e-01
3.7496798e-01
4.6084082e-01
4.8381695e-01
4.5939506e-01
4.1608079e-01
3.8323748e-01
3.7723435e-01
3.9213484e-01
3.9974178e-01
3.6002604e-01
2.3817436e-01
2.1016083e-02
-2.7437389e-01
-6.0329320e-01
-9.0540323e-01
-1.1207321e+00
-1.2040646e+00
-1.1341974e+00
-9.1705710e-01
-5.8328198e-01
-1.8151608e-01
2.3106641e-01
5.9915447e-01
8.7848091e-01
1.0418881e+00
1.0813511e+00
1.0063364e+00
8.3974835e-01
6.1276522e-01
3.5941242e-01
1.1136837e-01
-1.0644647e-01
-2.7871283e-01
-4.0020237e-01
-4.7360046e-01
-5.0528013e-01
-5.0070944e-01
-4.6170494e-01
-3.8709530e-01
-2.7660400e-01
-1.3592589e-01
1.9774127e-02
1.6608026e-01
2.7389165e-01
3.1719024e-01
2.8142009e-01
1.6941489e-01
2.6165716e-03
-1.8300979e-01
-3.4522016e-01
-4.4550113e-01
-4.5799819e-01
-3.7500968e-01
-2.0796693e-01
1.5703984e-02
2.5844878e-01
4.7956689e-01
6.4201439e-01
7.1819794e-01
6.9428779e-01
5.7268383e-01
3.7208367e-01
1.2446900e-01
-1.3111247e-01
-3.5674929e-01
-5.2342611e-01
-6.1588219e-01
-6.3332824e-01
-5.8643631e-01
-4.9220280e-01
-3.6857357e-01
-2.3029044e-01
-8.6778418e-02
5.7621190e-02
2.0124288e-01
3.4134714e-01
4.7057047e-01
5.7534699e-01
6.3747374e-01
6.3877681e-01
5.6749704e-01
4.2401677e-01
2.2339644e-01
-6.7669100e-03
-2.3273247e-01
-4.2302986e-01
-5.5592731e-01
-6.2358618e-01
-6.3190471e-01
-5.9635494e-01
-5.3508986e-01
-4.6148642e-01
-3.7888016e-01
-2.7981387e-01
-1.5049335e-01
2.0909923e-02
2.3500535e-01
4.7443886e-01
7.0272758e-01
8.7049541e-01
9.2874261e-01
8.4577783e-01
6.2171555e-01
2.9393401e-01
-7.0154676e-02
-3.9129848e-01
-6.0101601e-01
-6.6042552e-01
-5.6912579e-01
-3.6223055e-01
-9.8052981e-02
1.5825128e-01
3.4945410e-01
4.3589266e-01
3.9964657e-01
2.4523038e-01
-1.2700467e-03
-2.9458869e-01
-5.7580850e-01
-7.8229813e-01
-8.6124975e-01
-7.8375807e-01
-5.5511748e-01
-2.1706068e-01
1.6071295e-01
4.9882726e-01
7.3081747e-01
8.2146349e-01
7.7356747e-01
6.2129902e-01
4.1452323e-01
2.0182433e-01
1.8821948e-02
-1.1554820e-01
-1.9613990e-01
-2.2579284e-01
-2.1057175e-01
-1.5847161e-01
-8.1517048e-02
1.1348091e-03
6.2555958e-02
7.2592347e-02
7.8104054e-03
-1.3629956e-01
-3.3655257e-01
-5.4233474e-01
-6.8715037e-01
-7.0853302e-01
-5.6933756e-01
-2.7262766e-01
1.3522511e-01
5.7454618e-01
9.5254184e-01
1.1874774e+00
1.2294919e+00
1.0720895e+00
7.5156706e-01
3.3532114e-01
-9.6869326e-02
-4.7263542e-01
-7.4215955e-01
-8.8521557e-01
-9.0968354e-01
-8.4341863e-01
-7.2254072e-01
-5.7971014e-01
-4.3594288e-01
-2.9852059e-01
-1.6524769e-01
-3.2451264e-02
9.7718490e-02
2.1470191e-01
3.0300825e-01
3.4970375e-01
3.5178594e-01
3.1964406e-01
2.7485903e-01
2.4302946e-01
2.4426868e-01
2.8508610e-01
3.5513698e-01
4.3063160e-01
4.8349362e-01
4.9271872e-01
4.5310506e-01
3.7738469e-01
2.9046900e-01
2.1786477e-01
1.7293170e-01
1.4843986e-01
1.1641699e-01
3.7023707e-02
-1.2649686e-01
-3.9218346e-01
-7.4856712e-01
-1.1523814e+00
-1.5356052e+00
-1.8199028e+00
-1.9344918e+00
-1.8326850e+00
-1.5030600e+00
-9.7299185e-01
-3.0425071e-01
4.1817336e-01
1.1018065e+00
1.6637336e+00
2.0448781e+00
2.2178161e+00
2.1864871e+00
1.9791699e+00
1.6384253e+00
1.2120910e+00
7.4763780e-01
2.8941451e-01
-1.2356022e-01
-4.6129255e-01
-7.0791223e-01
-8.6575405e-01
-9.5505858e-01
-1.0072118e+00
-1.0526158e+00
-1.1076612e+00
-1.1665729e+00
-1.2020552e+00
-1.1748010e+00
-1.0482697e+00
-8.0331408e-01
-4.4763963e-01
-1.7063084e-02
4.3178520e-01
8.3490463e-01
1.1359637e+00
1.2980198e+00
1.3089293e+00
1.1804335e+00
9.4289096e-01
6.3791679e-01
3.1063626e-01
2.7510523e-03
-2.5275572e-01
-4.3477312e-01
-5.3487666e-01
-5.5607188e-01
-5.1027044e-01
-4.1539545e-01
-2.9257981e-01
-1.6353729e-01
-4.8199484e-02
3.7169380e-02
8.1287384e-02
7.8767804e-02
3.0865791e-02
-5.3961520e-02
-1.6008239e-01
-2.6586589e-01
-3.4630243e-01
-3.7684015e-01
-3.3781540e-01
-2.1876913e-01
-2.1941468e-02
2.3586386e-01
5.2386371e-01
8.0077120e-01
1.0208778e+00
1.1417417e+00
1.1320713e+00
9.7826116e-01
6.8806601e-01
2.9028621e-01
-1.6967725e-01
-6.3721535e-01
-1.0568307e+00
-1.3795621e+00
-1.5685721e+00
-1.6027317e+00
-1.4783590e+00
-1.2093206e+00
-8.2565062e-01
-3.7061268e-01
1.0415878e-01
5.4558732e-01
9.0726890e-01
1.1567090e+00
1.2794472e+00
1.2789641e+00
1.1728941e+00
9.8721779e-01
7.5033774e-01
4.8845167e-01
2.2292334e-01
-3.0179239e-02
-2.5867927e-01
-4.5198455e-01
-5.9938820e-01
-6.9023638e-01
-7.1612932e-01
-6.7412945e-01
-5.6939623e-01
-4.1593336e-01
-2.3494969e-01
-5.1265584e-02
1.1113722e-01
2.3315178e-01
3.0322775e-01
3.1832171e-01
2.8325592e-01
2.0899095e-01
1.1041842e-01
4.0586918e-03
-9.4230572e-02
-1.7143905e-01
-2.1917857e-01
-2.3458041e-01
-2.1990064e-01
-1.8076754e-01
-1.2359158e-01
-5.3221561e-02
2.7899762e-02
1.1837327e-01
2.1481563e-01
3.0897403e-01
3.8704163e-01
4.3210822e-01
4.2897276e-01
3.6937562e-01
2.5556358e-01
1.0080308e-01
-7.3367363e-02
-2.4209837e-01
-3.8251844e-01
-4.7754006e-01
-5.1744297e-01
-4.9987444e-01
-4.2946250e-01
-3.1745600e-01
-1.8056612e-01
-3.7996214e-02
9.3083753e-02
2.0184670e-01
2.8581500e-01
3.4952939e-01
4.0030689e-01
4.4260926e-01
4.7319470e-01
4.7937056e-01
4.4191966e-01
3.4250150e-01
1.7311795e-01
-5.6312224e-02
-3.1605934e-01
-5.6202209e-01
-7.4698894e-01
-8.3369573e-01
-8.0504392e-01
-6.6819381e-01
-4.5162890e-01
-1.9659737e-01
5.4081211e-02
2.6623112e-01
4.2044293e-01
5.1264731e-01
5.4992570e-01
5.4403814e-01
5.0554212e-01
4.4063788e-01
3.5155024e-01
2.3974467e-01
1.1006498e-01
-2.6424018e-02
-1.5237515e-01
-2.4716591e-01
-2.9225496e-01
-2.7751141e-01
-2.0662856e-01
-9.9426679e-02
1.0772620e-02
8.5113233e-02
9.0846278e-02
1.3144733e-02
-1.3712495e-01
-3.2307009e-01
-4.9003010e-01
-5.8061343e-01
-5.5216128e-01
-3.9110656e-01
-1.1926184e-01
2.1055599e-01
5.2845307e-01
7.6627651e-01
8.7506941e-01
8.3597468e-01
6.6228474e-01
3.9348454e-01
8.4252191e-02
-2.0808553e-01
-4.3493461e-01
-5.6515142e-01
-5.9022184e-01
-5.2488866e-01
-4.0225927e-01
-2.6371892e-01
-1.4632208e-01
-7.2120462e-02
-4.3465162e-02
-4.5627017e-02
-5.4806436e-02
-4.7773026e-02
-9.6937442e-03
6.1784065e-02
1.5675883e-01
2.5719331e-01
3.4341646e-01
4.0046496e-01
4.2169057e-01
4.0846527e-01
3.6687646e-01
3.0369488e-01
2.2381610e-01
1.3010346e-01
2.5079772e-02
-8.6954548e-02
-1.9880807e-01
-3.0101861e-01
-3.8396354e-01
-4.4053274e-01
-4.6822428e-01
-4.6960204e-01
-4.5046874e-01
-4.1609496e-01
-3.6714810e-01
-2.9767920e-01
-1.9690169e-01
-5.4764903e-02
1.3054132e-01
3.4623542e-01
5.6302118e-01
7.3966653e-01
8.3357873e-01
8.1395330e-01
6.7248137e-01
4.2737168e-01
1.1919151e-01
-1.9973069e-01
-4.7836241e-01
-6.7799377e-01
-7.7799112e-01
-7.7553786e-01
-6.8120410e-01
-5.1342938e-01
-2.9438410e-01
-4.7991649e-02
2.0062718e-01
4.2570937e-01
6.0259151e-01
7.1087960e-01
7.3813285e-01
6.8250391e-01
5.5309684e-01
3.6785033e-01
1.4979242e-01
-7.7024401e-02
-2.9076253e-01
-4.7362014e-01
-6.1228954e-01
-6.9755056e-01
-7.2362729e-01
-6.8789221e-01
-5.9128746e-01
-4.3933663e-01
-2.4307961e-01
-1.9171769e-02
2.1115895e-01
4.2407835e-01
5.9567340e-01
7.0485478e-01
7.3651248e-01
6.8452353e-01
5.5384153e-01
3.6082221e-01
1.3125654e-01
-1.0378955e-01
-3.1341012e-01
-4.7200240e-01
-5.6260974e-01
-5.7783104e-01
-5.1881897e-01
-3.9363842e-01
-2.1624488e-01
-6.5343908e-03
2.0936679e-01
4.0030566e-01
5.3416018e-01
5.8451558e-01
5.3795542e-01
3.9915141e-01
1.9146311e-01
-4.7757019e-02
-2.7613218e-01
-4.5681359e-01
-5.6698224e-01
-6.0115736e-01
-5.6832064e-01
-4.8474204e-01
-3.6627231e-01
-2.2359081e-01
-6.1879347e-02
1.1583054e-01
3.0364029e-01
4.8837476e-01
6.4787779e-01
7.5351032e-01
7.7692645e-01
6.9913735e-01
5.1836882e-01
2.5344562e-01
-5.8694487e-02
-3.7042379e-01
-6.3327815e-01
-8.0741929e-01
-8.6854041e-01
-8.1108255e-01
-6.4768259e-01
-4.0566001e-01
-1.2175739e-01
1.6384158e-01
4.1352586e-01
5.9759006e-01
6.9797845e-01
7.0969830e-01
6.3978073e-01
5.0432845e-01
3.2456391e-01
1.2286666e-01
-8.0359016e-02
-2.6847163e-01
-4.2895841e-01
-5.5271149e-01
-6.3277284e-01
-6.6317110e-01
-6.3849400e-01
-5.5470615e-01
-4.1120464e-01
-2.1338716e-01
2.5347541e-02
2.8302743e-01
5.3042350e-01
7.3445392e-01
8.6350877e-01
8.9379966e-01
8.1512085e-01
6.3431273e-01
3.7529972e-01
7.5380887e-02
-2.2175746e-01
-4.7490264e-01
-6.5365365e-01
-7.4351842e-01
-7.4612308e-01
-6.7503314e-01
-5.4951054e-01
-3.8886931e-01
-2.0915001e-01
-2.2632494e-02
1.6025434e-01
3.2796844e-01
4.6589117e-01
5.5719139e-01
5.8678576e-01
5.4660100e-01
4.3931921e-01
2.7864455e-01
8.6160481e-02
-1.1349419e-01
-2.9706490e-01
-4.4545627e-01
-5.4467883e-01
-5.8561155e-01
-5.6351932e-01
-4.7809551e-01
-3.3425227e-01
-1.4315866e-01
7.7441785e-02
3.0448022e-01
5.1259579e-01
6.7833737e-01
7.8413717e-01
8.2032897e-01
7.8415966e-01
6.7643690e-01
4.9814897e-01
2.4978544e-01
-6.5197154e-02
-4.3355654e-01
-8.2497919e-01
-1.1883271e+00
-1.4551027e+00
-1.5519459e+00
-1.4207339e+00
-1.0410683e+00
-4.4713962e-01
2.6913685e-01
9.7333716e-01
1.5202692e+00
1.7933353e+00
1.7383054e+00
1.3793171e+00
8.1120696e-01
1.7096653e-01
-4.0163474e-01
-8.0112550e-01
-9.7968622e-01
-9.5082825e-01
-7.7456188e-01
-5.3131523e-01
-2.9464934e-01
-1.1159360e-01
4.6068878e-03
6.9302713e-02
1.1259567e-01
1.6277890e-01
2.3332936e-01
3.1801789e-01
3.9516854e-01
4.3812676e-01
4.2664141e-01
3.5427905e-01
2.2958377e-01
7.1765692e-02
-9.6271755e-02
-2.5430962e-01
-3.8823845e-01
-4.8989543e-01
-5.5447555e-01
-5.7766004e-01
-5.5429068e-01
-4.7920310e-01
-3.4966925e-01
-1.6841870e-01
5.3752876e-02
2.9670391e-01
5.3185067e-01
7.2569333e-01
8.4553094e-01
8.6608084e-01
7.7540082e-01
5.7868956e-01
2.9887565e-01
-2.6576421e-02
-3.5226649e-01
-6.3330447e-01
-8.3324776e-01
-9.2932366e-01
-9.1392007e-01
-7.9296415e-01
-5.8286501e-01
-3.0759350e-01
3.4840577e-03
3.1743743e-01
6.0011974e-01
8.1950782e-01
9.4974739e-01
9.7503940e-01
8.9235912e-01
7.1226672e-01
4.5761687e-01
1.6040851e-01
-1.4293635e-01
-4.1751066e-01
-6.3609045e-01
-7.8362521e-01
-8.5796250e-01
-8.6603370e-01
-8.1708187e-01
-7.1638834e-01
-5.6304637e-01
-3.5348141e-01
-8.9433956e-02
2.1355894e-01
5.2192594e-01
7.8714115e-01
9.5614405e-01
9.8618193e-01
8.5918465e-01
5.9039376e-01
2.2768054e-01
-1.5875161e-01
-4.9338197e-01
-7.1420931e-01
-7.8789800e-01
-7.1659278e-01
-5.3427707e-01
-2.9406002e-01
-5.0880498e-02
1.5440773e-01
3.0426262e-01
4.0430008e-01
4.7473771e-01
5.3756815e-01
6.0478155e-01
6.7185263e-01
7.1814245e-01
7.1309396e-01
6.2534250e-01
4.3186756e-01
1.2563703e-01
-2.7866602e-01
-7.4140236e-01
-1.1988598e+00
-1.5705106e+00
-1.7738359e+00
-1.7449590e+00
-1.4596976e+00
-9.4745174e-01
-2.9114021e-01
3.8963342e-01
9.6887517e-01
1.3484868e+00
1.4841247e+00
1.3929724e+00
1.1413678e+00
8.1842949e-01
5.0646389e-01
2.5868739e-01
9.0870977e-02
-1.2244470e-02
-8.0588342e-02
-1.4081645e-01
-2.0493167e-01
-2.6958388e-01
-3.2428759e-01
-3.6232480e-01
-3.8747020e-01
-4.1274306e-01
-4.5192275e-01
-5.0823554e-01
-5.6616139e-01
-5.9134304e-01
-5.4031042e-01
-3.7723936e-01
-9.1333083e-02
2.9231899e-01
7.1303810e-01
1.0864870e+00
1.3249913e+00
1.3607111e+00
1.1651833e+00
7.5921597e-01
2.0956019e-01
-3.8683699e-01
-9.2565512e-01
-1.3176694e+00
-1.5048765e+00
-1.4678105e+00
-1.2247205e+00
-8.2467263e-01
-3.3664795e-01
1.6355387e-01
6.0655709e-01
9.4020066e-01
1.1352352e+00
1.1845575e+00
1.0972390e+00
8.9130953e-01
5.8988332e-01
2.2260175e-01
-1.7011254e-01
-5.3562876e-01
-8.1530775e-01
-9.5841195e-01
-9.3830344e-01
-7.6311547e-01
-4.7542602e-01
-1.4073083e-01
1.7069661e-01
4.0195810e-01
5.2201329e-01
5.2948252e-01
4.4787869e-01
3.1498772e-01
1.7055767e-01
4.6281678e-02
-3.9599504e-02
-8.2905919e-02
-9.0637943e-02
-7.6354177e-02
-5.5418561e-02
-4.1321845e-02
-4.3551863e-02
-6.6569342e-02
-1.0900741e-01
-1.6285839e-01
-2.1367770e-01
-2.4328320e-01
-2.3518824e-01
-1.8090903e-01
-8.4106056e-02
3.9693722e-02
1.6780793e-01
2.7739076e-01
3.5174002e-01
3.8367449e-01
3.7529571e-01
3.3498619e-01
2.7336587e-01
1.9985392e-01
1.2070115e-01
3.8478415e-02
-4.7409399e-02
-1.3945475e-01
-2.4003728e-01
-3.4890719e-01
-4.6095808e-01
-5.6523685e-01
-6.4561448e-01
-6.8294086e-01
-6.5837447e-01
-5.5767079e-01
-3.7595944e-01
-1.2185719e-01
1.8079451e-01
4.9500511e-01
7.7662023e-01
9.8260335e-01
1.0791948e+00
1.0481814e+00
8.9070240e-01
6.2840276e-01
3.0127172e-01
-3.8562135e-02
-3.3660816e-01
-5.4717981e-01
-6.4293970e-01
-6.2030698e-01
-4.9938751e-01
-3.1839132e-01
-1.2392292e-01
4.0119249e-02
1.4177249e-01
1.6595270e-01
1.1447122e-01
2.1778109e-03
-1.4877319e-01
-3.1437715e-01
-4.7222183e-01
-6.0211333e-01
-6.8449411e-01
-6.9875772e-01
-6.2414899e-01
-4.4478645e-01
-1.5783514e-01
2.1852075e-01
6.4146623e-01
1.0472567e+00
1.3625481e+00
1.5207858e+00
1.4791042e+00
1.2307636e+00
8.0924100e-01
2.8233190e-01
-2.6252985e-01
-7.3784088e-01
-1.0750634e+00
-1.2380121e+00
-1.2274257e+00
-1.0762186e+00
-8.3742409e-01
-5.6870442e-01
-3.1805640e-01
-1.1456659e-01
3.3997636e-02
1.3737847e-01
2.1507056e-01
2.8735900e-01
3.6755635e-01
4.5724326e-01
5.4553325e-01
6.1233769e-01
6.3461519e-01
5.9396461e-01
4.8353580e-01
3.1205132e-01
1.0320649e-01
-1.0987139e-01
-2.9354725e-01
-4.2299691e-01
-4.8864871e-01
-4.9748258e-01
-4.6875299e-01
-4.2562330e-01
-3.8564391e-01
-3.5361894e-01
-3.1982576e-01
-2.6461777e-01
-1.6776089e-01
-1.8730899e-02
1.7624926e-01
3.9321356e-01
5.9573086e-01
7.4433129e-01
8.0679758e-01
7.6622793e-01
6.2482584e-01
4.0276128e-01
1.3287769e-01
-1.4683395e-01
-4.0067763e-01
-6.0081651e-01
-7.3010999e-01
-7.8215533e-01
-7.5908346e-01
-6.6831582e-01
-5.1985223e-01
-3.2522945e-01
-9.8248583e-02
1.4337079e-01
3.7669299e-01
5.7399242e-01
7.0602781e-01
7.4832283e-01
6.8883848e-01
5.3383353e-01
3.0875533e-01
5.3099206e-02
-1.8893438e-01
-3.7839471e-01
-4.8891526e-01
-5.1001784e-01
-4.4674372e-01
-3.1677320e-01
-1.4628639e-01
3.4314787e-02
1.9416208e-01
3.0534515e-01
3.4674103e-01
3.0843479e-01
1.9558143e-01
2.9708345e-02
-1.5401248e-01
-3.1347092e-01
-4.0885418e-01
-4.1233639e-01
-3.1605351e-01
-1.3619675e-01
8.8651823e-02
3.0560166e-01
4.6044120e-01
5.1192800e-01
4.4303085e-01
2.6574749e-01
1.8220456e-02
-2.4480772e-01
-4.6527788e-01
-5.9494124e-01
-6.0484634e-01
-4.8951967e-01
-2.6635361e-01
2.8206272e-02
3.4448279e-01
6.2706031e-01
8.2378340e-01
8.9537581e-01
8.2378915e-01
6.1691456e-01
3.0782208e-01
-5.1859416e-02
-4.0295151e-01
-6.9111851e-01
-8.7718179e-01
-9.4289178e-01
-8.9161643e-01
-7.4496445e-01
-5.3668461e-01
-3.0485408e-01
-8.3551967e-02
1.0408771e-01
2.4942180e-01
3.5740494e-01
4.4168217e-01
5.1717336e-01
5.9219797e-01
6.6253734e-01
7.0997073e-01
7.0704512e-01
6.2757743e-01
4.5932829e-01
2.1330811e-01
-7.5110990e-02
-3.5474340e-01
-5.7393293e-01
-6.9671997e-01
-7.1352575e-01
-6.4252374e-01
-5.2168321e-01
-3.9476832e-01
-2.9638862e-01
-2.4134755e-01
-2.2189524e-01
-2.1329769e-01
-1.8478204e-01
-1.1126686e-01
1.8070846e-02
1.9643596e-01
4.0143433e-01
6.0123673e-01
7.6265843e-01
8.5858938e-01
8.7284710e-01
8.0175272e-01
6.5280784e-01
4.4153394e-01
1.8785645e-01
-8.6800268e-02
-3.6122474e-01
-6.1513323e-01
-8.2946564e-01
-9.8690203e-01
-1.0729018e+00
-1.0769794e+00
-9.9367851e-01
-8.2313660e-01
-5.7174811e-01
-2.5342750e-01
1.0880789e-01
4.8212140e-01
8.2548202e-01
1.0945425e+00
1.2495027e+00
1.2643122e+00
1.1344408e+00
8.8011633e-01
5.4296559e-01
1.7645341e-01
-1.6669201e-01
-4.4555727e-01
-6.3716784e-01
-7.3678331e-01
-7.5390160e-01
-7.0654339e-01
-6.1591973e-01
-5.0240603e-01
-3.8281228e-01
-2.6861845e-01
-1.6494325e-01
-7.0370320e-02
2.1756316e-02
1.1990629e-01
2.2913707e-01
3.4597933e-01
4.5615183e-01
5.3700468e-01
5.6451483e-01
5.2239661e-01
4.0956784e-01
2.4258962e-01
5.1715273e-02
-1.2810411e-01
-2.6775493e-01
-3.5190348e-01
-3.8145871e-01
-3.7022303e-01
-3.3785321e-01
-3.0226218e-01
-2.7393074e-01
-2.5323288e-01
-2.3091150e-01
-1.9147064e-01
-1.1888989e-01
-3.3103768e-03
1.5342518e-01
3.3550376e-01
5.1521612e-01
6.5885499e-01
7.3468431e-01
7.2079190e-01
6.1078500e-01
4.1576288e-01
1.6194689e-01
-1.1523370e-01
-3.7860578e-01
-5.9610202e-01
-7.4562483e-01
-8.1745997e-01
-8.1415742e-01
-7.4784817e-01
-6.3532294e-01
-4.9210407e-01
-3.2762175e-01
-1.4362160e-01
6.3140868e-02
2.9454398e-01
5.4343935e-01
7.8827612e-01
9.9347667e-01
1.1169403e+00
1.1226408e+00
9.9341195e-01
7.3846992e-01
3.9246649e-01
6.6623949e-03
-3.6400158e-01
-6.7314311e-01
-8.9085447e-01
-1.0059645e+00
-1.0235921e+00
-9.6018561e-01
-8.3794956e-01
-6.7945844e-01
-5.0279274e-01
-3.1818586e-01
-1.2775117e-01
7.0921839e-02
2.7851519e-01
4.8807371e-01
6.8259198e-01
8.3752924e-01
9.2720318e-01
9.3228339e-01
8.4545240e-01
6.7354423e-01
4.3624176e-01
1.6266799e-01
-1.1270984e-01
-3.5434290e-01
-5.3044256e-01
-6.1877035e-01
-6.1252157e-01
-5.2398347e-01
-3.8336960e-01
-2.3180460e-01
-1.1007351e-01
-4.6830033e-02
-5.0352486e-02
-1.0669633e-01
-1.8493231e-01
-2.4779017e-01
-2.6415099e-01
-2.1914691e-01
-1.1841970e-01
1.4995944e-02
