-6.3203359e-05
-4.7924847e-05
-4.5908884e-05
-6.4986213e-05
-1.1155553e-04
-1.8912874e-04
-2.9582364e-04
-4.2115533e-04
-5.4347994e-04
-6.3008774e-04
-6.4174268e-04
-5.4223681e-04
-3.1129099e-04
4.3386441e-05
4.8022960e-04
9.2795004e-04
1.2997492e-03
1.5137599e-03
1.5136686e-03
1.2834673e-03
8.5181388e-04
2.8453823e-04
-3.3114948e-04
-9.0469775e-04
-1.3584005e-03
-1.6389097e-03
-1.7222871e-03
-1.6130764e-03
-1.3392976e-03
-9.4535922e-04
-4.8428716e-04
-1.0188133e-05
4.2833704e-04
7.9326376e-04
1.0602323e-03
1.2191295e-03
1.2716919e-03
1.2264801e-03
1.0932958e-03
8.8048226e-04
5.9766279e-04
2.6227289e-04
-9.4806523e-05
-4.2870488e-04
-6.8820679e-04
-8.3081082e-04
-8.3887626e-04
-7.2848093e-04
-5.4508110e-04
-3.4607624e-04
-1.7732635e-04
-5.4774223e-05
3.9334562e-05
1.4310433e-04
2.9039108e-04
4.8646673e-04
6.9610082e-04
8.5141439e-04
8.7779413e-04
7.2649376e-04
3.9792314e-04
-5.5619506e-05
-5.4672799e-04
-9.7937322e-04
-1.2747395e-03
-1.3876635e-03
-1.3095149e-03
-1.0607489e-03
-6.8028146e-04
-2.1749118e-04
2.7166756e-04
7.2704528e-04
1.0892206e-03
1.3088938e-03
1.3582459e-03
1.2382970e-03
9.7712500e-04
6.1919742e-04
2.1219835e-04
-2.0055081e-04
-5.7899607e-04
-8.8326250e-04
-1.0761435e-03
-1.1297661e-03
-1.0332995e-03
-7.9973429e-04
-4.6773754e-04
-9.5430371e-05
2.5330940e-04
5.2536990e-04
6.9129569e-04
7.4958728e-04
7.2127703e-04
6.3773405e-04
5.2711780e-04
4.0485258e-04
2.7132160e-04
1.1696872e-04
-6.7690908e-05
-2.8150758e-04
-5.0640525e-04
-7.0874492e-04
-8.4772802e-04
-8.8706748e-04
-8.0663089e-04
-6.1053931e-04
-3.2798268e-04
-6.0568604e-06
3.0235259e-04
5.5095472e-04
7.0877215e-04
7.6342102e-04
7.1960130e-04
5.9508601e-04
4.1640077e-04
2.1469350e-04
2.0875968e-05
-1.4025989e-04
-2.5529747e-04
-3.2425840e-04
-3.5803465e-04
-3.7192759e-04
-3.7703348e-04
-3.7242866e-04
-3.4345785e-04
-2.6930489e-04
-1.3658621e-04
4.8781806e-05
2.5855402e-04
4.4984574e-04
5.7941653e-04
6.1765000e-04
5.5675212e-04
4.1129650e-04
2.1243139e-04
-1.3461175e-06
-1.9368272e-04
-3.3755503e-04
-4.1881928e-04
-4.3620700e-04
-3.9876582e-04
-3.2248964e-04
-2.2724399e-04
-1.3290468e-04
-5.3988964e-05
5.3067233e-06
5.2609869e-05
1.0337066e-04
1.7172892e-04
2.5954751e-04
3.4901882e-04
4.0398775e-04
3.8172429e-04
2.5157121e-04
1.2684088e-05
-2.9747451e-04
-6.0891811e-04
-8.3869905e-04
-9.1797081e-04
-8.1626452e-04
-5.5247356e-04
-1.8684369e-04
2.0178290e-04
5.4151693e-04
7.8523901e-04
9.1545489e-04
9.3676633e-04
8.6250877e-04
7.0441781e-04
4.7119128e-04
1.7552493e-04
-1.5639322e-04
-4.8052539e-04
-7.4038784e-04
-8.8149310e-04
-8.6936254e-04
-7.0349034e-04
-4.2078925e-04
-8.6229428e-05
2.2590350e-04
4.5264948e-04
5.5875821e-04
5.4438104e-04
4.3995173e-04
2.9054447e-04
1.3813715e-04
9.1194404e-06
-8.9538553e-05
-1.6568775e-04
-2.3181279e-04
-2.9378363e-04
-3.4359703e-04
-3.5991336e-04
-3.1721917e-04
-2.0053365e-04
-1.8952578e-05
1.9003646e-04
3.7043531e-04
4.6929605e-04
4.5958573e-04
3.5198226e-04
1.9032888e-04
3.4005591e-05
-6.5190088e-05
-8.1430758e-05
-2.1262155e-05
8.1893998e-05
1.8063579e-04
2.2865808e-04
1.9385886e-04
6.6767563e-05
-1.3700514e-04
-3.8030460e-04
-6.1294754e-04
-7.8339577e-04
-8.5093657e-04
-7.9511911e-04
-6.1963135e-04
-3.4974864e-04
-2.5243980e-05
3.0811674e-04
6.0739979e-04
8.3906945e-04
9.7894151e-04
1.0087573e-03
9.1656111e-04
7.0233010e-04
3.8472534e-04
3.5129276e-06
-3.8508098e-04
-7.1890320e-04
-9.4270816e-04
-1.0194455e-03
-9.3734405e-04
-7.1177150e-04
-3.8208350e-04
-4.3034748e-06
3.5912339e-04
6.5074681e-04
8.2838258e-04
8.7175073e-04
7.8466063e-04
5.9329692e-04
3.3988827e-04
7.1774038e-05
-1.7075482e-04
-3.6312207e-04
-4.9847278e-04
-5.8287699e-04
-6.2648409e-04
-6.3491953e-04
-6.0496401e-04
-5.2662201e-04
-3.9060313e-04
-1.9732706e-04
3.7455801e-05
2.8370185e-04
5.0469759e-04
6.6792140e-04
7.5409381e-04
7.6026805e-04
6.9628710e-04
5.7726389e-04
4.1663914e-04
2.2442729e-04
1.1319536e-05
-2.0544510e-04
-3.9959486e-04
-5.3962763e-04
-5.9819145e-04
-5.6317792e-04
-4.4521679e-04
-2.7721985e-04
-1.0486432e-04
2.8833277e-05
9.8538665e-05
1.0469947e-04
7.1234099e-05
3.3961987e-05
2.4894292e-05
5.9029816e-05
1.2851792e-04
2.0535448e-04
2.5147006e-04
2.3367036e-04
1.3823688e-04
-2.1160039e-05
-2.0605470e-04
-3.6559899e-04
-4.5391082e-04
-4.4544748e-04
-3.4251018e-04
-1.7248620e-04
2.3273935e-05
2.0389806e-04
3.4092212e-04
4.2351358e-04
4.5595673e-04
4.4980618e-04
4.1554259e-04
3.5824241e-04
2.7773280e-04
1.7136862e-04
3.8485209e-05
-1.1576907e-04
-2.7994054e-04
-4.3892618e-04
-5.7723358e-04
-6.8018391e-04
-7.3246444e-04
-7.1626259e-04
-6.1267203e-04
-4.0874259e-04
-1.0881707e-04
2.5525643e-04
6.2216177e-04
9.1228146e-04
1.0510957e-03
9.9696087e-04
7.6087316e-04
4.0699375e-04
3.0230759e-05
-2.8016557e-04
-4.7256038e-04
-5.4521730e-04
-5.3526858e-04
-4.9266350e-04
-4.5406476e-04
-4.2924466e-04
-4.0380124e-04
-3.5317259e-04
-2.5858752e-04
-1.1683000e-04
5.9313576e-05
2.4758308e-04
4.2448166e-04
5.7070653e-04
6.7233150e-04
7.1917795e-04
7.0294607e-04
6.1708603e-04
4.5894474e-04
2.3365029e-04
-4.1823472e-05
-3.3697509e-04
-6.1043081e-04
-8.1719036e-04
-9.1895290e-04
-8.9444932e-04
-7.4616543e-04
-5.0077760e-04
-2.0277712e-04
9.6779146e-05
3.5277457e-04
5.3585933e-04
6.3663631e-04
6.6321850e-04
6.3367708e-04
5.6694265e-04
4.7616387e-04
3.6704040e-04
2.4057409e-04
9.7180973e-05
-5.9968735e-05
-2.2253871e-04
-3.7607462e-04
-5.0165005e-04
-5.8014162e-04
-5.9751860e-04
-5.4880544e-04
-4.3915008e-04
-2.8209752e-04
-9.6515186e-05
9.6207542e-05
2.7402623e-04
4.1576147e-04
5.0326285e-04
5.2439084e-04
4.7587149e-04
3.6485428e-04
2.0858684e-04
3.1808247e-05
-1.3781149e-04
-2.7446424e-04
-3.5796194e-04
-3.7651295e-04
-3.2894563e-04
-2.2636065e-04
-9.2180646e-05
4.1011776e-05
1.3861360e-04
1.7383359e-04
1.3706139e-04
4.1126998e-05
-8.0204049e-05
-1.8125312e-04
-2.1936174e-04
-1.7152277e-04
-4.6337227e-05
1.1509409e-04
2.5201131e-04
3.0659668e-04
2.4724907e-04
8.2430065e-05
-1.4157575e-04
-3.5771360e-04
-5.0177041e-04
-5.3278945e-04
-4.4342501e-04
-2.5830888e-04
-2.3017673e-05
2.1126772e-04
4.0207075e-04
5.2490469e-04
5.7566519e-04
5.6650506e-04
5.1744923e-04
4.4710070e-04
3.6575971e-04
2.7313851e-04
1.6093989e-04
1.8614720e-05
-1.5932766e-04
-3.6626329e-04
-5.8045263e-04
-7.6840249e-04
-8.9309510e-04
-9.2378605e-04
-8.4396876e-04
-6.5526893e-04
-3.7694972e-04
-4.2273424e-05
3.0676306e-04
6.2552199e-04
8.7332448e-04
1.0198498e-03
1.0500339e-03
9.6621050e-04
7.8693415e-04
5.4270305e-04
2.6938869e-04
6.8011378e-07
-2.3821797e-04
-4.3321507e-04
-5.7981841e-04
-6.7897889e-04
-7.3247002e-04
-7.3966252e-04
-6.9680112e-04
-5.9924867e-04
-4.4621798e-04
-2.4590980e-04
-1.7704255e-05
2.1109075e-04
4.1313655e-04
5.6933603e-04
6.7248564e-04
7.2414486e-04
7.2697238e-04
6.7772836e-04
5.6580109e-04
3.7868303e-04
1.1231128e-04
-2.1810879e-04
-5.7257490e-04
-8.9003988e-04
-1.1015166e-03
-1.1491187e-03
-1.0049826e-03
-6.8325026e-04
-2.4009545e-04
2.3931490e-04
6.6344156e-04
9.5936888e-04
1.0913788e-03
1.0659264e-03
9.2113796e-04
7.0629906e-04
4.6198830e-04
2.1062802e-04
-3.9782433e-05
-2.8520017e-04
-5.1651475e-04
-7.1526361e-04
-8.5603790e-04
-9.1512618e-04
-8.8045232e-04
-7.5742172e-04
-5.6791034e-04
-3.4306747e-04
-1.1331059e-04
1.0008489e-04
2.8830702e-04
4.5213913e-04
5.9467774e-04
7.1347089e-04
7.9614768e-04
8.2199692e-04
7.6924611e-04
6.2489743e-04
3.9244008e-04
9.4062580e-05
-2.3254288e-04
-5.4092065e-04
-7.8486148e-04
-9.2762838e-04
-9.4857498e-04
-8.4572674e-04
-6.3465011e-04
-3.4491928e-04
-1.5601817e-05
3.0942436e-04
5.8635240e-04
7.7691616e-04
8.5431387e-04
8.0845039e-04
6.4879577e-04
4.0353790e-04
1.1476532e-04
-1.6935895e-04
-4.0361646e-04
-5.5459817e-04
-6.0767749e-04
-5.6891779e-04
-4.6075234e-04
-3.1369674e-04
-1.5762881e-04
-1.5803961e-05
9.7012587e-05
1.7333092e-04
2.1104658e-04
2.1262906e-04
1.8530545e-04
1.4086194e-04
9.3849194e-05
5.8188648e-05
4.3381263e-05
5.1927999e-05
7.9059282e-05
1.1478966e-04
1.4731699e-04
1.6659480e-04
1.6676227e-04
1.4605108e-04
1.0450352e-04
4.1809003e-05
-4.2474353e-05
-1.4577340e-04
-2.5825386e-04
-3.6084373e-04
-4.2828480e-04
-4.3711970e-04
-3.7507483e-04
-2.4683919e-04
-7.3133069e-05
1.1610154e-04
2.9050406e-04
4.2601216e-04
5.0761758e-04
5.2882392e-04
4.8951803e-04
3.9332915e-04
2.4527340e-04
5.1142448e-05
-1.8019744e-04
-4.3217761e-04
-6.7654792e-04
-8.7402085e-04
-9.8155738e-04
-9.6451978e-04
-8.0876786e-04
-5.2725779e-04
-1.5800117e-04
2.4594611e-04
6.3023743e-04
9.5080393e-04
1.1785700e-03
1.2967299e-03
1.2947615e-03
1.1653491e-03
9.0761460e-04
5.3447907e-04
7.8737772e-05
-4.0646607e-04
-8.5380207e-04
-1.1925775e-03
-1.3617237e-03
-1.3233228e-03
-1.0748594e-03
-6.5693682e-04
-1.5189990e-04
3.3032290e-04
6.7903575e-04
8.1639741e-04
7.2654443e-04
4.6679459e-04
1.5169750e-04
-8.8497135e-05
-1.6009481e-04
-4.5534541e-05
1.9038433e-04
4.3187894e-04
5.6387223e-04
5.1799150e-04
2.9473639e-04
-4.3287063e-05
-4.0014236e-04
-6.8277071e-04
-8.2977488e-04
-8.2364319e-04
-6.8559713e-04
-4.5947380e-04
-1.9421301e-04
6.7487181e-05
2.9233108e-04
4.5477539e-04
5.3583682e-04
5.2547704e-04
4.2770649e-04
2.6458030e-04
7.4956319e-05
-9.4571249e-05
-2.0581712e-04
-2.4481238e-04
-2.2629392e-04
-1.8260845e-04
-1.4365362e-04
-1.2028633e-04
-1.0105266e-04
-6.3210121e-05
9.8558426e-06
1.1581907e-04
2.3225979e-04
3.2651728e-04
3.6971538e-04
3.4723244e-04
2.6190641e-04
1.3132201e-04
-1.7308762e-05
-1.5265002e-04
-2.4550796e-04
-2.7589922e-04
-2.3857996e-04
-1.4528606e-04
-2.4049600e-05
8.5006076e-05
1.3882736e-04
1.0488819e-04
-2.4842331e-05
-2.2544260e-04
-4.4172765e-04
-6.0365888e-04
-6.4964069e-04
-5.4811385e-04
-3.0830760e-04
2.3542924e-05
3.7939808e-04
6.8869864e-04
8.9457064e-04
9.6329201e-04
8.8705792e-04
6.8117983e-04
3.7768803e-04
1.8924185e-05
-3.4685440e-04
-6.6906840e-04
-9.0007677e-04
-1.0032962e-03
-9.6231251e-04
-7.8673796e-04
-5.1099361e-04
-1.8539051e-04
1.3729012e-04
4.1453087e-04
6.2165106e-04
7.5223437e-04
8.1231680e-04
8.1153915e-04
7.5548514e-04
6.4278995e-04
4.6849511e-04
2.3192841e-04
-5.5145909e-05
-3.6436225e-04
-6.5293914e-04
-8.7198001e-04
-9.7838017e-04
-9.4664854e-04
-7.7691336e-04
-4.9650445e-04
-1.5448199e-04
1.8941574e-04
4.7843092e-04
6.7144039e-04
7.5112987e-04
7.2524309e-04
6.2061914e-04
4.7240461e-04
3.1250744e-04
1.6109670e-04
2.3440368e-05
-1.0717386e-04
-2.4120021e-04
-3.8254330e-04
-5.2138540e-04
-6.3388804e-04
-6.8927131e-04
-6.6155822e-04
-5.4078335e-04
-3.3834244e-04
-8.3975047e-05
1.8389806e-04
4.2951362e-04
6.2723568e-04
7.6212803e-04
8.2508129e-04
8.0766654e-04
7.0200904e-04
5.0699100e-04
2.3666031e-04
-7.6030032e-05
-3.8438685e-04
-6.3950538e-04
-8.0258791e-04
-8.5493155e-04
-8.0275411e-04
-6.7394158e-04
-5.0712159e-04
-3.3710755e-04
-1.8253875e-04
-4.0955276e-05
1.0624424e-04
2.8068396e-04
4.9122857e-04
7.2244028e-04
9.3257256e-04
1.0628670e-03
1.0559915e-03
8.7794311e-04
5.3520474e-04
7.9012672e-05
-4.0657864e-04
-8.2742751e-04
-1.1033482e-03
-1.1871681e-03
-1.0747580e-03
-8.0364233e-04
-4.4149762e-04
-6.8588899e-05
2.4117685e-04
4.3660162e-04
4.9993048e-04
4.4970350e-04
3.3437912e-04
2.1717914e-04
1.5536137e-04
1.7981985e-04
2.8207720e-04
4.1440598e-04
5.0489091e-04
4.8376801e-04
3.1218763e-04
2.5356021e-06
-3.7889863e-04
-7.3100580e-04
-9.5289867e-04
-9.8021331e-04
-8.0709101e-04
-4.8517357e-04
-1.0169293e-04
2.5219807e-04
5.0889219e-04
6.3788150e-04
6.4370738e-04
5.5354160e-04
4.0239558e-04
2.2242195e-04
3.8744848e-05
-1.2974830e-04
-2.6809186e-04
-3.6399546e-04
-4.0839092e-04
-3.9672632e-04
-3.2923061e-04
-2.1013752e-04
-4.7346357e-05
1.4683800e-04
3.5442372e-04
5.5084999e-04
7.0544017e-04
7.8422350e-04
7.5608948e-04
6.0218047e-04
3.2620862e-04
-3.8856981e-05
-4.3266289e-04
-7.8014896e-04
-1.0123018e-03
-1.0875865e-03
-1.0050949e-03
-8.0337635e-04
-5.4508424e-04
-2.9364562e-04
-9.1965149e-05
4.7650919e-05
1.3968876e-04
2.1205373e-04
2.9035146e-04
3.8631526e-04
4.9399432e-04
5.9371576e-04
6.6092376e-04
6.7584579e-04
6.3054563e-04
5.3135744e-04
3.9617952e-04
2.4766429e-04
1.0504274e-04
-2.1730003e-05
-1.3278612e-04
-2.3421994e-04
-3.3213856e-04
-4.2782126e-04
-5.1485461e-04
-5.7923655e-04
-6.0326774e-04
-5.7186424e-04
-4.7815879e-04
-3.2560481e-04
-1.2642026e-04
1.0114402e-04
3.3419219e-04
5.4520372e-04
7.0295905e-04
7.7650662e-04
7.4214287e-04
5.9118611e-04
3.3553796e-04
8.7060737e-06
-3.3864000e-04
-6.4795379e-04
-8.6512631e-04
-9.5234921e-04
-8.9565010e-04
-7.0712078e-04
-4.2245702e-04
-9.3896823e-05
2.2092424e-04
4.7225599e-04
6.3004474e-04
6.8995067e-04
6.7065520e-04
6.0304651e-04
5.1581687e-04
4.2400977e-04
3.2571338e-04
2.0808338e-04
5.9412711e-05
-1.1877145e-04
-3.0560781e-04
-4.6420109e-04
-5.5375787e-04
-5.4595337e-04
-4.3835789e-04
-2.5899193e-04
-5.9960418e-05
9.8263679e-05
1.6739584e-04
1.3010228e-04
9.8542434e-06
-1.3333850e-04
-2.2216940e-04
-1.9143508e-04
-1.7780220e-05
2.6223219e-04
5.5554819e-04
7.4035849e-04
7.1083572e-04
4.2250667e-04
-8.1079774e-05
-6.7402191e-04
-1.1872658e-03
-1.4659874e-03
-1.4198839e-03
-1.0480373e-03
-4.3340800e-04
2.8748553e-04
9.6670251e-04
1.4836958e-03
1.7692458e-03
1.8100124e-03
1.6367087e-03
1.3039991e-03
8.7115723e-04
3.8956258e-04
-1.0142528e-04
-5.7226807e-04
-9.9831598e-04
-1.3554200e-03
-1.6179221e-03
-1.7594080e-03
-1.7560991e-03
-1.5919228e-03
-1.2639239e-03
-7.8782816e-04
-2.0249178e-04
4.3008581e-04
1.0313935e-03
1.5187597e-03
1.8200262e-03
1.8866536e-03
1.7026211e-03
1.2882348e-03
6.9893752e-04
1.9179276e-05
-6.4880236e-04
-1.2009598e-03
-1.5505160e-03
-1.6467214e-03
-1.4882643e-03
-1.1253909e-03
-6.4644720e-04
-1.5278862e-04
2.6741974e-04
5.5917008e-04
7.1023541e-04
7.4798117e-04
7.2488920e-04
6.9756961e-04
7.0541912e-04
7.5524503e-04
8.1715450e-04
8.3407488e-04
7.4261077e-04
4.9848083e-04
9.7765142e-05
-4.1363913e-04
-9.4642817e-04
-1.3893132e-03
-1.6390300e-03
-1.6287609e-03
-1.3468982e-03
-8.4244049e-04
-2.1441208e-04
4.1370790e-04
9.2636923e-04
1.2439196e-03
1.3374270e-03
1.2268797e-03
9.6553281e-04
6.1837724e-04
2.4430019e-04
-1.1185022e-04
-4.1762310e-04
-6.4755740e-04
-7.8077451e-04
-8.0464882e-04
-7.2220890e-04
-5.5738320e-04
-3.5281667e-04
-1.5893195e-04
-1.6580544e-05
5.9821232e-05
8.8077909e-05
1.0787760e-04
1.5953917e-04
2.6245882e-04
4.0321073e-04
5.3822189e-04
6.0955684e-04
5.6745523e-04
3.9112736e-04
1.0007064e-04
-2.4845799e-04
-5.7507705e-04
-8.0132133e-04
-8.7185437e-04
-7.6874794e-04
-5.1456181e-04
-1.6503763e-04
2.0572064e-04
5.2509557e-04
7.4199471e-04
8.3821210e-04
8.2588279e-04
7.3392737e-04
5.9143725e-04
4.1653987e-04
2.1544072e-04
-9.6138708e-06
-2.4938234e-04
-4.8075731e-04
-6.6849512e-04
-7.7531590e-04
-7.7568082e-04
-6.6667096e-04
-4.7092743e-04
-2.3046443e-04
5.8265223e-06
1.9575173e-04
3.1336838e-04
3.5301513e-04
3.2879782e-04
2.6895120e-04
2.0535384e-04
1.6153611e-04
1.4352953e-04
1.3747724e-04
1.1602009e-04
5.1916542e-05
-6.6400509e-05
-2.2437660e-04
-3.8150231e-04
-4.8335144e-04
-4.8167763e-04
-3.5493349e-04
-1.2063601e-04
1.6635174e-04
4.3006814e-04
5.9853627e-04
6.2788960e-04
5.1631722e-04
3.0393579e-04
5.9317895e-05
-1.4386135e-04
-2.5225561e-04
-2.5047376e-04
-1.6430392e-04
-4.8808438e-05
3.3811860e-05
3.8260101e-05
-4.6604430e-05
-1.9334748e-04
-3.4565106e-04
-4.3838246e-04
-4.2101290e-04
-2.7659101e-04
-2.9965087e-05
2.5779867e-04
5.0742289e-04
6.4642057e-04
6.3430764e-04
4.7989026e-04
2.4103018e-04
3.3423223e-06
-1.5459959e-04
-1.9467555e-04
-1.3593557e-04
-4.5870025e-05
-8.7447101e-06
-8.4632356e-05
-2.7824685e-04
-5.3290732e-04
-7.5297419e-04
-8.4409961e-04
-7.5234224e-04
-4.8478835e-04
-1.0421317e-04
2.9713501e-04
6.3050064e-04
8.3552847e-04
8.9169116e-04
8.1807462e-04
6.6164562e-04
4.7686706e-04
3.0584107e-04
1.6752575e-04
5.8735809e-05
-3.6310406e-05
-1.3408220e-04
-2.4298553e-04
-3.6026677e-04
-4.7370492e-04
-5.6541296e-04
-6.1564855e-04
-6.0651020e-04
-5.2644013e-04
-3.7518044e-04
-1.6672660e-04
7.2170584e-05
3.0753018e-04
5.0485640e-04
6.3473286e-04
6.7608430e-04
6.1711870e-04
4.5605703e-04
2.0371810e-04
-1.1272308e-04
-4.4802546e-04
-7.4276317e-04
-9.3427845e-04
-9.7294963e-04
-8.3897096e-04
-5.5302747e-04
-1.7480394e-04
2.1291597e-04
5.3056112e-04
7.2878782e-04
8.0466865e-04
7.9921396e-04
7.7623818e-04
7.9015141e-04
8.5359677e-04
9.1977286e-04
8.9482039e-04
6.8031587e-04
2.2672751e-04
-4.2791496e-04
-1.1538578e-03
-1.7651324e-03
-2.0827324e-03
-2.0006283e-03
-1.5271653e-03
-7.8416218e-04
3.5625980e-05
7.3414193e-04
1.1699765e-03
1.2944211e-03
1.1526123e-03
8.5501617e-04
5.3327477e-04
2.9521017e-04
1.9187077e-04
2.0734428e-04
2.7404532e-04
3.0540977e-04
2.3228087e-04
2.9735501e-05
-2.7423339e-04
-6.0975217e-04
-8.9019979e-04
-1.0410647e-03
-1.0218146e-03
-8.3422299e-04
-5.1695781e-04
-1.3132570e-04
2.5533890e-04
5.8365834e-04
8.1127969e-04
9.1691879e-04
9.0028473e-04
7.7884775e-04
5.8183095e-04
3.4257086e-04
9.2094997e-05
-1.4444192e-04
-3.4909892e-04
-5.1114678e-04
-6.2593035e-04
-6.9254085e-04
-7.1078053e-04
-6.7875481e-04
-5.9263811e-04
-4.4917925e-04
-2.4989947e-04
-4.9231485e-06
2.6531787e-04
5.3110875e-04
7.5685062e-04
9.0625197e-04
9.4865252e-04
8.6506240e-04
6.5266932e-04
3.2762740e-04
-7.4380229e-05
-5.0065214e-04
-8.8764472e-04
-1.1710660e-03
-1.2989224e-03
-1.2446467e-03
-1.0159145e-03
-6.5491547e-04
-2.2827602e-04
1.9110438e-04
5.4411584e-04
7.9961864e-04
9.5703882e-04
1.0368247e-03
1.0639603e-03
1.0531659e-03
1.0032877e-03
9.0171606e-04
7.3344400e-04
4.9031163e-04
1.7849616e-04
-1.7814544e-04
-5.4059453e-04
-8.6219857e-04
-1.0985005e-03
-1.2163842e-03
-1.2003627e-03
-1.0549965e-03
-8.0340494e-04
-4.8245029e-04
-1.3566694e-04
1.9435356e-04
4.7197551e-04
6.7143368e-04
7.7698042e-04
7.8221826e-04
6.9034022e-04
5.1493233e-04
2.8019896e-04
1.9866360e-05
-2.2648607e-04
-4.1975857e-04
-5.2845592e-04
-5.3470329e-04
-4.3801970e-04
-2.5614393e-04
-2.2401014e-05
2.2030950e-04
4.2773518e-04
5.6263187e-04
6.0120653e-04
5.3656540e-04
3.7928528e-04
1.5568448e-04
-9.6041634e-05
-3.3207929e-04
-5.1166883e-04
-6.0700646e-04
-6.0993192e-04
-5.3163813e-04
-3.9801032e-04
-2.4381861e-04
-1.0513833e-04
-9.5287430e-06
3.3441921e-05
3.6561760e-05
3.0545338e-05
5.1058796e-05
1.2199088e-04
2.4246720e-04
3.8430030e-04
5.0204947e-04
5.5160239e-04
5.0876234e-04
3.7953343e-04
1.9840814e-04
1.6362135e-05
-1.1782919e-04
-1.7723316e-04
-1.6782614e-04
-1.2461868e-04
-9.4988771e-05
-1.1701528e-04
-2.0187595e-04
-3.2709440e-04
-4.4304403e-04
-4.9042921e-04
-4.2278448e-04
-2.2611306e-04
7.1651421e-05
4.0530308e-04
6.8998066e-04
8.4598886e-04
8.2285748e-04
6.1529415e-04
2.6640418e-04
-1.4302195e-04
-5.1747849e-04
-7.7469765e-04
-8.6690645e-04
-7.8911474e-04
-5.7538775e-04
-2.8649000e-04
7.0875602e-06
2.4306078e-04
3.8286716e-04
4.2090645e-04
3.8370877e-04
3.1761483e-04
2.6819846e-04
2.5922861e-04
2.8061120e-04
2.9197256e-04
2.4190449e-04
9.4987601e-05
-1.4649185e-04
-4.3773723e-04
-7.0595956e-04
-8.7608101e-04
-8.9592730e-04
-7.5190854e-04
-4.7072110e-04
-1.0824694e-04
2.6819679e-04
5.9673192e-04
8.3182694e-04
9.4821811e-04
9.3997730e-04
8.1775007e-04
6.0605929e-04
3.4062532e-04
6.4233041e-05
-1.8026783e-04
-3.5952727e-04
-4.5902454e-04
-4.8776388e-04
-4.7474722e-04
-4.5698143e-04
-4.6294386e-04
-4.9877012e-04
-5.4451863e-04
-5.6291814e-04
-5.1648627e-04
-3.8496534e-04
-1.7506676e-04
8.1605324e-05
3.4086777e-04
5.6221588e-04
7.2128492e-04
8.1315716e-04
8.4605206e-04
8.2991405e-04
7.6696833e-04
6.5000867e-04
4.6956071e-04
2.2566006e-04
-6.2880273e-05
-3.5766247e-04
-6.0911731e-04
-7.7002722e-04
-8.0961482e-04
-7.2373160e-04
-5.3685722e-04
-2.9477101e-04
-5.0715383e-05
1.4982177e-04
2.8042238e-04
3.3745804e-04
3.3532659e-04
2.9561210e-04
2.3508629e-04
1.5796244e-04
5.5965426e-05
-8.3721125e-05
-2.6641130e-04
-4.8011665e-04
-6.9377095e-04
-8.6488509e-04
-9.5207290e-04
-9.2638554e-04
-7.7863055e-04
-5.2103713e-04
-1.8202810e-04
2.0401341e-04
6.0666844e-04
1.0029043e-03
1.3711073e-03
1.6793597e-03
1.8770935e-03
1.8992935e-03
1.6861761e-03
1.2120947e-03
5.1043457e-04
-3.1938337e-04
-1.1299020e-03
-1.7643476e-03
-2.1020455e-03
-2.0943305e-03
-1.7783117e-03
-1.2624552e-03
-6.8909792e-04
-1.8899663e-04
1.5512952e-04
3.2473613e-04
3.5901440e-04
3.3189905e-04
3.2305840e-04
3.9294401e-04
5.6766706e-04
8.3428436e-04
1.1440470e-03
1.4213104e-03
1.5775730e-03
1.5308615e-03
1.2289203e-03
6.7108122e-04
-7.9733334e-05
-9.0422790e-04
-1.6532210e-03
-2.1829884e-03
-2.3909161e-03
-2.2432332e-03
-1.7842670e-03
-1.1224525e-03
-3.9805219e-04
2.5528597e-04
7.4185466e-04
1.0192461e-03
1.0960040e-03
1.0163542e-03
8.4019880e-04
6.2592487e-04
4.2003423e-04
2.5341387e-04
1.4143995e-04
8.5254909e-05
7.4061537e-05
8.8813575e-05
1.0583839e-04
1.0096623e-04
5.6532135e-05
-3.0470493e-05
-1.4419443e-04
-2.5331054e-04
-3.2138936e-04
-3.1990120e-04
-2.3841742e-04
-8.8549832e-05
9.8845494e-05
2.8151274e-04
4.1601809e-04
4.6739549e-04
4.1564680e-04
2.5797322e-04
7.8319030e-06
-3.0663115e-04
-6.4318433e-04
-9.4578740e-04
-1.1454455e-03
-1.1655454e-03
-9.3946382e-04
-4.4006554e-04
2.9259694e-04
1.1426302e-03
1.9382243e-03
2.4958850e-03
2.6727797e-03
2.4071623e-03
1.7323293e-03
7.6119623e-04
-3.4919193e-04
-1.4368384e-03
-2.3627808e-03
-3.0219646e-03
-3.3419884e-03
-3.2809974e-03
-2.8327955e-03
-2.0345724e-03
-9.6805247e-04
2.4612163e-04
1.4586790e-03
2.5078257e-03
3.2414153e-03
3.5430473e-03
3.3574495e-03
2.7086481e-03
1.7039291e-03
5.1851001e-04
-6.3917486e-04
-1.5745869e-03
-2.1532729e-03
-2.3307842e-03
-2.1554571e-03
-1.7430869e-03
-1.2335532e-03
-7.4660602e-04
-3.5364314e-04
-7.1897361e-05
1.2323443e-04
2.7421674e-04
4.1502924e-04
5.5398482e-04
6.7205774e-04
7.3512421e-04
7.1297560e-04
5.9633733e-04
4.0480850e-04
1.8244430e-04
-1.7410256e-05
-1.5179828e-04
-2.0368167e-04
-1.8612824e-04
-1.3325669e-04
-8.2739026e-05
-5.8911582e-05
-6.4680820e-05
-8.4970534e-05
-9.7331295e-05
-8.2462819e-05
-3.1712920e-05
4.7916192e-05
1.3283089e-04
1.8888544e-04
1.8419212e-04
1.0380901e-04
-4.0879337e-05
-2.1326209e-04
-3.6314573e-04
-4.4383128e-04
-4.2720843e-04
-3.1115605e-04
-1.1780604e-04
1.1485691e-04
3.4398644e-04
5.3192632e-04
6.5316955e-04
6.9733289e-04
6.6819296e-04
5.7915987e-04
4.4710038e-04
2.8832807e-04
1.1822066e-04
-4.7823289e-05
-1.9486382e-04
-3.1126407e-04
-3.9251852e-04
-4.4338320e-04
-4.7613868e-04
-5.0483121e-04
-5.3766893e-04
-5.7114585e-04
-5.8912729e-04
-5.6800757e-04
-4.8612006e-04
-3.3349167e-04
-1.1797748e-04
1.3465252e-04
3.8764745e-04
6.0457749e-04
7.5837726e-04
8.3415842e-04
8.2677040e-04
7.3617562e-04
5.6429776e-04
3.1576990e-04
2.2470430e-06
-3.5240509e-04
-7.0923851e-04
-1.0157369e-03
-1.2122636e-03
-1.2428650e-03
-1.0689554e-03
-6.8329405e-04
-1.2030863e-04
5.4203816e-04
1.1928040e-03
1.7113416e-03
1.9977226e-03
1.9994597e-03
1.7239874e-03
1.2331257e-03
6.2246923e-04
-7.3650001e-06
-5.7825366e-04
-1.0513432e-03
-1.4266203e-03
-1.7248834e-03
-1.9593879e-03
-2.1110079e-03
-2.1221701e-03
-1.9175454e-03
-1.4450253e-03
-7.1707647e-04
1.7030986e-04
1.0535285e-03
1.7473661e-03
2.1025946e-03
2.0537845e-03
1.6400086e-03
9.9040340e-04
2.8252438e-04
-3.0922395e-04
-6.5924935e-04
-7.1902372e-04
-5.2212014e-04
-1.6672493e-04
2.1816720e-04
5.1308660e-04
6.4356732e-04
6.0008670e-04
4.3559593e-04
2.4085218e-04
1.0636394e-04
8.6017259e-05
1.7717900e-04
3.2448920e-04
4.4377573e-04
4.5599063e-04
3.1953046e-04
4.7192088e-05
-3.0170858e-04
-6.4863223e-04
-9.2622362e-04
-1.0972299e-03
-1.1566858e-03
-1.1217936e-03
-1.0182289e-03
-8.6966225e-04
-6.9266294e-04
-4.9590551e-04
-2.8192220e-04
-5.0352862e-05
1.9769770e-04
4.5467240e-04
7.0238331e-04
9.1122758e-04
1.0453425e-03
1.0730954e-03
9.7799585e-04
7.6537823e-04
4.6360673e-04
1.2025321e-04
-2.0577796e-04
-4.5495472e-04
-5.7939908e-04
-5.5492568e-04
-3.8991759e-04
-1.2740726e-04
1.6253362e-04
4.0024225e-04
5.1960883e-04
4.8894189e-04
3.2092040e-04
6.6816468e-05
-2.0287721e-04
-4.2254470e-04
-5.4975294e-04
-5.7310832e-04
-5.1010801e-04
-3.9637724e-04
-2.7088871e-04
-1.6338773e-04
-8.7430932e-05
-3.9543873e-05
-3.4757594e-06
4.2099476e-05
1.1466526e-04
2.2044136e-04
3.5088669e-04
4.8424985e-04
5.9155390e-04
6.4498049e-04
6.2588737e-04
5.2987913e-04
3.6760123e-04
1.6168563e-04
-5.8618992e-05
-2.6358301e-04
-4.2821471e-04
-5.3548970e-04
-5.7812410e-04
-5.5892970e-04
-4.8879328e-04
-3.8256724e-04
-2.5496489e-04
-1.1872909e-04
1.4560337e-05
1.3294925e-04
2.2418702e-04
2.7801285e-04
2.8914080e-04
2.5886340e-04
1.9423622e-04
1.0530248e-04
1.8780153e-06
-1.0830882e-04
-2.1906536e-04
-3.2355965e-04
-4.1181619e-04
-4.6943202e-04
-4.8039567e-04
-4.3395338e-04
-3.3112524e-04
-1.8661843e-04
-2.4651063e-05
1.2992712e-04
2.6160713e-04
3.7037786e-04
4.6985981e-04
5.7678265e-04
6.9636562e-04
8.1165628e-04
8.8382157e-04
8.6490376e-04
7.1794788e-04
4.3563330e-04
4.8972154e-05
-3.7907923e-04
-7.7292539e-04
-1.0665742e-03
-1.2189182e-03
-1.2178229e-03
-1.0746997e-03
-8.1538726e-04
-4.7340718e-04
-8.8079753e-05
2.9483488e-04
6.2475638e-04
8.5318182e-04
9.4454967e-04
8.8647366e-04
6.9475019e-04
4.1117954e-04
9.5264271e-05
-1.8752312e-04
-3.7827324e-04
-4.3595207e-04
-3.4617953e-04
-1.2656512e-04
1.7270556e-04
4.7461760e-04
6.8938321e-04
7.3764113e-04
5.7832075e-04
2.3028953e-04
-2.2460591e-04
-6.6315732e-04
-9.6142966e-04
-1.0383994e-03
-8.8403562e-04
-5.6037625e-04
-1.7669490e-04
1.4947706e-04
3.3009380e-04
3.3114880e-04
1.7874628e-04
-5.2914655e-05
-2.6850233e-04
-3.8653178e-04
-3.6862693e-04
-2.2892823e-04
-2.0030547e-05
1.9538379e-04
3.7157454e-04
4.9245942e-04
5.6637040e-04
6.0903787e-04
6.2604349e-04
6.0471977e-04
5.1961475e-04
3.4835541e-04
8.9334049e-05
-2.2848189e-04
-5.4959724e-04
-8.0896088e-04
-9.5408383e-04
-9.6181038e-04
-8.4299778e-04
-6.3453726e-04
-3.8273510e-04
-1.2572232e-04
1.1698393e-04
3.4389183e-04
5.6190905e-04
7.7381147e-04
9.6944823e-04
1.1245119e-03
1.2065870e-03
1.1849729e-03
1.0397959e-03
7.6742100e-04
3.8202924e-04
-8.4874206e-05
-5.8590395e-04
-1.0611969e-03
-1.4456291e-03
-1.6801208e-03
-1.7247615e-03
-1.5695591e-03
-1.2388159e-03
-7.8729079e-04
-2.8834283e-04
1.8325676e-04
5.6831735e-04
8.3408780e-04
9.7591512e-04
1.0107883e-03
9.6658879e-04
8.7128749e-04
7.4532683e-04
5.9895516e-04
4.3451229e-04
2.5176533e-04
5.3299617e-05
-1.5242663e-04
-3.5092602e-04
-5.2346600e-04
-6.5012745e-04
-7.1329932e-04
-7.0032471e-04
-6.0606001e-04
-4.3594401e-04
-2.0764088e-04
5.0691811e-05
3.0555107e-04
5.2487925e-04
6.8396151e-04
7.6831038e-04
7.7273049e-04
6.9763751e-04
5.4538708e-04
3.1963656e-04
2.8993588e-05
-3.0680025e-04
-6.5238384e-04
-9.5858602e-04
-1.1722318e-03
-1.2502341e-03
-1.1717621e-03
-9.4435699e-04
-6.0214473e-04
-1.9693370e-04
2.1398181e-04
5.7879690e-04
8.5829658e-04
1.0291342e-03
1.0848396e-03
1.0356532e-03
9.0682953e-04
7.3419241e-04
5.5630680e-04
4.0426957e-04
2.9177526e-04
2.0905665e-04
1.2417508e-04
-6.5524396e-06
-2.2091763e-04
-5.3194843e-04
-9.1328400e-04
-1.2945551e-03
-1.5752666e-03
-1.6575500e-03
-1.4843967e-03
-1.0649517e-03
-4.7401175e-04
1.7435153e-04
7.6621451e-04
1.2215477e-03
1.5077018e-03
1.6297683e-03
1.6074349e-03
1.4540563e-03
1.1705149e-03
7.5668731e-04
2.3249839e-04
-3.4578416e-04
-8.8645483e-04
-1.2843458e-03
-1.4549809e-03
-1.3635298e-03
-1.0368387e-03
-5.5707525e-04
-4.0866558e-05
3.8986190e-04
6.3870495e-04
6.6049820e-04
4.7450942e-04
1.5849203e-04
-1.7777782e-04
-4.3148198e-04
-5.4192757e-04
-5.0529635e-04
-3.6280239e-04
-1.7152427e-04
2.3310613e-05
1.9944337e-04
3.5053259e-04
4.7076190e-04
5.4209531e-04
5.3308542e-04
4.1442482e-04
1.8463036e-04
-1.1105835e-04
-3.8388235e-04
-5.3061879e-04
-4.7715283e-04
-2.1557718e-04
1.8414662e-04
5.9464190e-04
8.7548933e-04
9.2359688e-04
7.1027889e-04
2.9165524e-04
-2.1090985e-04
-6.5282676e-04
-9.1510091e-04
-9.4192709e-04
-7.5446322e-04
-4.3687513e-04
-1.0007925e-04
1.6098196e-04
2.9787779e-04
3.1624031e-04
2.6099259e-04
1.8908254e-04
1.4297977e-04
1.3562637e-04
1.5106477e-04
1.5777006e-04
1.2690864e-04
4.7035735e-05
-7.0352474e-05
-1.9554678e-04
-2.9282210e-04
-3.3476112e-04
-3.1255375e-04
-2.3772217e-04
-1.3494494e-04
-2.9794010e-05
6.2516459e-05
1.4121805e-04
2.1492805e-04
2.9115694e-04
3.6663276e-04
4.2349983e-04
4.3319944e-04
3.6659398e-04
2.0673188e-04
-4.0305984e-05
-3.4076184e-04
-6.3737918e-04
-8.6217026e-04
-9.5443295e-04
-8.7863336e-04
-6.3652084e-04
-2.6914192e-04
1.5307482e-04
5.4987638e-04
8.5259064e-04
1.0189232e-03
1.0384171e-03
9.2954480e-04
7.3056854e-04
4.8765252e-04
2.4364059e-04
2.9652569e-05
-1.3943980e-04
-2.6499553e-04
-3.5987331e-04
-4.4012681e-04
-5.1589943e-04
-5.8508108e-04
-6.3263742e-04
-6.3655845e-04
-5.7853117e-04
-4.5466684e-04
-2.8074734e-04
-8.8793879e-05
8.3240898e-05
2.0388729e-04
2.5902782e-04
2.5803969e-04
2.3203065e-04
2.2306210e-04
2.6652482e-04
3.7248692e-04
5.1426418e-04
6.3130869e-04
6.4811992e-04
5.0369737e-04
1.8080329e-04
-2.7676213e-04
-7.6745228e-04
-1.1578527e-03
-1.3246399e-03
-1.1980224e-03
-7.8879008e-04
-1.8765450e-04
4.6059591e-04
9.9785565e-04
1.2976156e-03
1.3003399e-03
1.0262341e-03
5.6188693e-04
2.8457122e-05
-4.5458586e-04
-7.9696187e-04
-9.4966383e-04
-9.0318636e-04
-6.7893926e-04
-3.2119103e-04
1.0735840e-04
5.2886680e-04
8.5798813e-04
1.0175849e-03
9.6061966e-04
6.8975429e-04
2.6321233e-04
-2.1877109e-04
-6.4324597e-04
-9.1999242e-04
-1.0090385e-03
-9.2768171e-04
-7.3488028e-04
-5.0238239e-04
-2.8708369e-04
-1.1598952e-04
1.2666949e-05
1.1609439e-04
2.0953584e-04
2.9346059e-04
3.5165914e-04
3.6175917e-04
3.1333666e-04
2.2349744e-04
1.3923694e-04
1.2217447e-04
2.2139745e-04
4.4561470e-04
7.4707859e-04
1.0288284e-03
1.1764028e-03
1.1013061e-03
7.7758898e-04
2.5584780e-04
-3.5150512e-04
-9.0756856e-04
-1.2950946e-03
-1.4497002e-03
-1.3711923e-03
-1.1129650e-03
-7.5775983e-04
-3.9047809e-04
-7.6407934e-05
1.5084004e-04
2.9081191e-04
3.6796799e-04
4.1632989e-04
4.6237366e-04
5.1257690e-04
5.5054296e-04
5.4566946e-04
4.7059393e-04
3.1948768e-04
1.1746180e-04
-8.4916112e-05
-2.3044956e-04
-2.7888062e-04
-2.2411853e-04
-9.7406831e-05
4.4491785e-05
1.4070763e-04
1.4862897e-04
5.8781524e-05
-1.0316886e-04
-2.8786896e-04
-4.4306507e-04
-5.3651417e-04
-5.7131833e-04
-5.8445416e-04
-6.2625260e-04
-7.2841397e-04
-8.7592411e-04
-9.9953291e-04
-9.9725539e-04
-7.7857251e-04
-3.1120838e-04
3.5353259e-04
1.0908304e-03
1.7433111e-03
2.1732439e-03
2.3030434e-03
2.1296813e-03
1.7124210e-03
1.1447375e-03
5.2558840e-04
-5.9266966e-05
-5.4644203e-04
-8.9947958e-04
-1.1082458e-03
-1.1827670e-03
-1.1443980e-03
-1.0171890e-03
-8.2225645e-04
-5.7747361e-04
-3.0266469e-04
-2.6997559e-05
2.0754355e-04
3.5212721e-04
3.6711060e-04
2.4200318e-04
8.9400651e-06
-2.5936061e-04
-4.6948957e-04
-5.3899634e-04
-4.2754050e-04
-1.5388363e-04
2.0908118e-04
5.5758880e-04
7.8853566e-04
8.3023894e-04
6.6366310e-04
3.2702084e-04
-9.7309196e-05
-5.0798967e-04
-8.1254669e-04
-9.4869863e-04
-8.9431099e-04
-6.6628077e-04
-3.1184672e-04
1.0360027e-04
5.0896620e-04
8.3826672e-04
1.0394279e-03
1.0816200e-03
9.6126824e-04
7.0509461e-04
3.6621681e-04
1.1492734e-05
-2.9534888e-04
-5.0843162e-04
-6.0832621e-04
-6.0273282e-04
-5.1985725e-04
-3.9746379e-04
-2.7180285e-04
-1.6986037e-04
-1.0603768e-04
-8.2093772e-05
-8.8617829e-05
-1.0745524e-04
-1.1579729e-04
-9.2628967e-05
-2.6800562e-05
7.5987132e-05
1.9128226e-04
2.8226028e-04
3.1309337e-04
2.6287182e-04
1.3455186e-04
-4.2735470e-05
-2.1902790e-04
-3.3648010e-04
-3.4641935e-04
-2.2476333e-04
1.9155881e-05
3.4256665e-04
6.7750630e-04
9.4503403e-04
1.0722834e-03
1.0091950e-03
7.4200003e-04
3.0046337e-04
-2.4406844e-04
-7.9132754e-04
-1.2336359e-03
-1.4809822e-03
-1.4835905e-03
-1.2451974e-03
-8.2134991e-04
-3.0394698e-04
2.0211701e-04
6.0441773e-04
8.4455159e-04
9.0968919e-04
8.3001776e-04
6.6259303e-04
4.6790914e-04
2.8905342e-04
1.4184650e-04
1.8499772e-05
-9.9146366e-05
-2.2419826e-04
-3.5404216e-04
-4.6835423e-04
-5.3596858e-04
-5.2748989e-04
-4.2823838e-04
-2.4629604e-04
-1.3006009e-05
2.2396153e-04
4.1261537e-04
5.1016796e-04
4.9463842e-04
3.7170227e-04
1.7477822e-04
-4.2470420e-05
-2.2031314e-04
-3.1071886e-04
-2.9350775e-04
-1.8470450e-04
-3.2369021e-05
1.0033981e-04
1.5907414e-04
1.1934408e-04
-4.1903144e-06
-1.6378279e-04
-2.9737580e-04
-3.5228179e-04
-3.0388187e-04
-1.6249884e-04
3.2734451e-05
2.2934364e-04
3.7971993e-04
4.5526300e-04
4.5227357e-04
3.8926972e-04
2.9819165e-04
2.1271164e-04
1.5657166e-04
1.3486971e-04
1.3142277e-04
1.1440963e-04
4.9612097e-05
-8.3269826e-05
-2.7824499e-04
-5.0075324e-04
-6.9675957e-04
-8.0871322e-04
-7.9252519e-04
-6.3142240e-04
-3.4299659e-04
2.3253954e-05
3.9757517e-04
7.0725589e-04
8.9419751e-04
9.2773788e-04
8.0987744e-04
5.7259196e-04
2.6859323e-04
-4.2211563e-05
-3.0736407e-04
-4.9340012e-04
-5.9037950e-04
-6.0813714e-04
-5.6695146e-04
-4.8762233e-04
-3.8493521e-04
-2.6603158e-04
-1.3320662e-04
1.0932053e-05
1.5882722e-04
2.9612021e-04
4.0317371e-04
4.5914564e-04
4.4737445e-04
3.6087141e-04
2.0659599e-04
7.0352590e-06
-2.0211837e-04
-3.7846009e-04
-4.8241643e-04
-4.8748864e-04
-3.8832728e-04
-2.0405212e-04
2.4770797e-05
2.4554611e-04
4.0777530e-04
4.7721275e-04
4.4421147e-04
3.2429176e-04
1.5222883e-04
-2.8284569e-05
-1.7636838e-04
-2.6359736e-04
-2.7909586e-04
-2.2962380e-04
-1.3581594e-04
-2.6160913e-05
7.0120955e-05
1.3050151e-04
1.4568582e-04
1.2310163e-04
8.4795132e-05
5.8896724e-05
6.7553162e-05
1.1718159e-04
1.9538956e-04
2.7470936e-04
3.2164029e-04
3.0876599e-04
2.2551335e-04
8.2827740e-05
-9.0300108e-05
-2.5701707e-04
-3.8521086e-04
-4.5728832e-04
-4.7342070e-04
-4.4776286e-04
-4.0022834e-04
-3.4777454e-04
-2.9851287e-04
-2.5024761e-04
-1.9340454e-04
-1.1712629e-04
-1.6359985e-05
1.0319910e-04
2.2565768e-04
3.3058341e-04
3.9980481e-04
4.2326431e-04
4.0266825e-04
3.5072857e-04
2.8560674e-04
2.2304719e-04
1.7012574e-04
1.2372321e-04
7.4459018e-05
1.4097525e-05
-5.7519777e-05
-1.3006966e-04
-1.8662534e-04
-2.1188176e-04
-2.0004316e-04
-1.5781890e-04
-1.0098545e-04
-4.6906044e-05
-7.0571948e-06
1.6934742e-05
3.1480074e-05
4.4567090e-05
5.8870997e-05
6.8118742e-05
5.8099314e-05
1.1778532e-05
-8.2840640e-05
-2.2375392e-04
-3.8756817e-04
-5.2805920e-04
-5.8531556e-04
-5.0663440e-04
-2.7320915e-04
8.0162660e-05
4.6584030e-04
7.6992352e-04
8.9638345e-04
8.0923322e-04
5.5154687e-04
2.2930642e-04
-3.4643962e-05
-1.5412773e-04
-1.1405985e-04
2.9339731e-05
1.7920459e-04
2.4179546e-04
1.6269733e-04
-5.7400285e-05
-3.6850733e-04
-6.9146148e-04
-9.4265713e-04
-1.0555927e-03
-9.9492355e-04
-7.6178930e-04
-3.9119684e-04
5.6627606e-05
5.0820283e-04
8.8954542e-04
1.1398273e-03
1.2241007e-03
1.1381751e-03
9.0355086e-04
5.5768733e-04
1.4543807e-04
-2.8540768e-04
-6.8532433e-04
-1.0041757e-03
-1.1952239e-03
-1.2228812e-03
-1.0723820e-03
-7.5754213e-04
-3.2256337e-04
1.6419290e-04
6.2335942e-04
9.8090337e-04
1.1830771e-03
1.2063875e-03
1.0605334e-03
7.8328492e-04
4.2848601e-04
5.1824679e-05
-3.0007210e-04
-5.9408887e-04
-8.0910720e-04
-9.3197115e-04
-9.5497197e-04
-8.7665921e-04
-7.0452405e-04
-4.5658741e-04
-1.6002376e-04
1.5287555e-04
4.4962451e-04
7.0137345e-04
8.8453266e-04
9.8055710e-04
9.7563446e-04
8.6237906e-04
6.4399984e-04
3.3791115e-04
-2.3664136e-05
-3.9553666e-04
-7.2476846e-04
-9.5990916e-04
-1.0619088e-03
-1.0137784e-03
-8.2658584e-04
-5.3982323e-04
-2.1471739e-04
7.9575093e-05
2.8442966e-04
3.6969634e-04
3.4462591e-04
2.5631013e-04
1.7360209e-04
1.5987000e-04
2.4395653e-04
4.0258805e-04
5.6526003e-04
6.4196627e-04
5.6234549e-04
3.0923855e-04
-6.9457745e-05
-4.7663416e-04
-8.0123205e-04
-9.5658539e-04
-9.0634358e-04
-6.6998339e-04
-3.0942706e-04
9.4832068e-05
4.6773058e-04
7.5577149e-04
9.3195018e-04
9.9100931e-04
9.4000631e-04
7.8996785e-04
5.5255548e-04
2.4254391e-04
-1.1649855e-04
-4.8901769e-04
-8.2967325e-04
-1.0889720e-03
-1.2219903e-03
-1.1997345e-03
-1.0189336e-03
-7.0542820e-04
-3.0873404e-04
1.1081896e-04
4.9761526e-04
8.1284552e-04
1.0383770e-03
1.1712393e-03
1.2121201e-03
1.1547124e-03
9.8309732e-04
6.8064932e-04
2.4741695e-04
-2.8307872e-04
-8.3831085e-04
-1.3188376e-03
-1.6243352e-03
-1.6827992e-03
-1.4737644e-03
-1.0377746e-03
-4.6615822e-04
1.2697641e-04
6.3982853e-04
1.0105593e-03
1.2263094e-03
1.3112147e-03
1.3009680e-03
1.2174172e-03
1.0558986e-03
7.9137486e-04
4.0031571e-04
-1.1241861e-04
-6.9544248e-04
-1.2520698e-03
-1.6633049e-03
-1.8259245e-03
-1.6904551e-03
-1.2807746e-03
-6.8697998e-04
-3.6781723e-05
5.4249484e-04
9.5803048e-04
1.1714021e-03
1.1996963e-03
1.0997896e-03
9.4269748e-04
7.8693082e-04
6.5897702e-04
5.4648069e-04
4.0640741e-04
1.8645328e-04
-1.4687209e-04
-5.8416232e-04
-1.0640796e-03
-1.4854067e-03
-1.7377717e-03
-1.7395578e-03
-1.4667784e-03
-9.6142718e-04
-3.1783059e-04
3.4608308e-04
9.2122747e-04
1.3322395e-03
1.5477062e-03
1.5750476e-03
1.4452641e-03
1.1958917e-03
8.5993036e-04
4.6452177e-04
3.7380482e-05
-3.8561154e-04
-7.5880617e-04
-1.0342469e-03
-1.1749118e-03
-1.1663349e-03
-1.0211148e-03
-7.7508297e-04
-4.7637476e-04
-1.7181181e-04
1.0351616e-04
3.3002392e-04
5.0061155e-04
6.1334083e-04
6.6391695e-04
6.4228339e-04
5.3602363e-04
3.4002850e-04
6.8201249e-05
-2.3938327e-04
-5.1986807e-04
-7.0345957e-04
-7.3730416e-04
-6.0752926e-04
-3.4839469e-04
-3.2209942e-05
2.5625553e-04
4.4874996e-04
5.1455501e-04
4.6745768e-04
3.5720140e-04
2.4920865e-04
2.0069981e-04
2.4170701e-04
3.6615012e-04
5.3386674e-04
6.8174315e-04
7.4108612e-04
6.5779600e-04
4.1082367e-04
2.3345718e-05
-4.3835490e-04
-8.8008503e-04
-1.2055419e-03
-1.3441642e-03
-1.2708125e-03
-1.0115681e-03
-6.3571767e-04
-2.3564769e-04
1.0100702e-04
3.1793762e-04
4.0527545e-04
3.9681625e-04
3.5007669e-04
3.1763443e-04
3.2259170e-04
3.4930215e-04
3.5321291e-04
2.8457114e-04
1.1461022e-04
-1.4746416e-04
-4.5334260e-04
-7.2972923e-04
-9.0106890e-04
-9.1156812e-04
-7.3846431e-04
-3.9350861e-04
8.4457652e-05
6.3975383e-04
1.2068521e-03
1.7117501e-03
2.0716496e-03
2.2005548e-03
2.0261734e-03
1.5164934e-03
7.0645042e-04
-2.8945284e-04
-1.2906644e-03
-2.0927289e-03
-2.5264904e-03
-2.5117210e-03
-2.0822424e-03
-1.3716298e-03
-5.6626651e-04
1.5371333e-04
6.6163076e-04
9.0606185e-04
9.0888829e-04
7.4535483e-04
5.1179718e-04
2.9231944e-04
1.3723626e-04
5.9126073e-05
4.3536610e-05
6.6026874e-05
1.0669578e-04
1.5629060e-04
2.1258564e-04
2.7060436e-04
3.1370236e-04
3.1237919e-04
2.3328839e-04
5.4773061e-05
-2.1847051e-04
-5.4819051e-04
-8.6632833e-04
-1.0909130e-03
-1.1492006e-03
-9.9862449e-04
-6.4149943e-04
-1.3161579e-04
4.3193493e-04
9.2619959e-04
1.2374436e-03
1.2960449e-03
1.1003692e-03
7.1907696e-04
2.6892223e-04
-1.2470730e-04
-3.6932259e-04
-4.3234151e-04
-3.4339661e-04
-1.7331705e-04
-1.8027816e-06
1.1051519e-04
1.3527762e-04
7.5962846e-05
-3.8773987e-05
-1.6481313e-04
-2.5577449e-04
-2.7848399e-04
-2.2634448e-04
-1.2379948e-04
-1.6959869e-05
4.7351240e-05
4.4261835e-05
-1.6719283e-05
-9.6355104e-05
-1.4517240e-04
-1.2770687e-04
-3.9229959e-05
9.2769800e-05
2.2181126e-04
3.0277921e-04
3.0950459e-04
2.4242107e-04
1.2484895e-04
-8.4586187e-06
-1.2443557e-04
-2.0077302e-04
-2.2816061e-04
-2.0712992e-04
-1.4387700e-04
-4.8818722e-05
6.2091342e-05
1.6661632e-04
2.3936168e-04
2.5888373e-04
2.1545426e-04
1.1528998e-04
-2.0841376e-05
-1.6366127e-04
-2.8331335e-04
-3.5652497e-04
-3.7143281e-04
-3.2947570e-04
-2.4406859e-04
-1.3676032e-04
-3.2526178e-05
4.5294626e-05
8.0532531e-05
6.9128150e-05
2.1618138e-05
-3.8294694e-05
-7.9268038e-05
-7.0817248e-05
7.0207422e-06
1.5509769e-04
3.5055734e-04
5.4926308e-04
6.9641680e-04
7.4275513e-04
6.6030604e-04
4.5150142e-04
1.4908759e-04
-1.9164636e-04
-5.0633226e-04
-7.3734051e-04
-8.4642120e-04
-8.2191767e-04
-6.8091001e-04
-4.6566511e-04
-2.3371001e-04
-4.2541441e-05
6.7262217e-05
8.4808347e-05
3.2212131e-05
-4.3830206e-05
-8.9852689e-05
-6.6051887e-05
3.9248692e-05
2.0745772e-04
4.0057042e-04
5.7924906e-04
7.1852631e-04
8.1310577e-04
8.7093133e-04
8.9918517e-04
8.8965920e-04
8.1269841e-04
6.2551987e-04
2.9247227e-04
-1.9151551e-04
-7.8475473e-04
-1.3975462e-03
-1.9082700e-03
-2.1935547e-03
-2.1643240e-03
-1.7964346e-03
-1.1448657e-03
-3.3478946e-04
4.6967288e-04
1.1102261e-03
1.4785053e-03
1.5446714e-03
1.3602767e-03
1.0339676e-03
6.8950730e-04
4.2340493e-04
2.7844811e-04
2.4089453e-04
2.5838052e-04
2.6771700e-04
2.2006777e-04
9.5313234e-05
-9.5956264e-05
-3.1956451e-04
-5.2946656e-04
-6.8054473e-04
-7.4011452e-04
-6.9616817e-04
-5.6053784e-04
-3.6581330e-04
-1.5636050e-04
2.3987683e-05
1.4315774e-04
1.8815275e-04
1.6815439e-04
1.1184554e-04
5.7949907e-05
4.2144097e-05
8.5118567e-05
1.8523786e-04
3.1759496e-04
4.3992264e-04
5.0432904e-04
4.7192927e-04
3.2596572e-04
7.9102420e-05
-2.2753660e-04
-5.3331878e-04
-7.7252917e-04
-8.9053047e-04
-8.5758619e-04
-6.7664237e-04
-3.8243294e-04
-3.0995145e-05
3.1671645e-04
6.0933734e-04
8.1290528e-04
9.1191932e-04
9.0563354e-04
8.0265257e-04
6.1684205e-04
3.6613857e-04
7.3637467e-05
-2.3130660e-04
-5.1417081e-04
-7.3919181e-04
-8.7509564e-04
-9.0099326e-04
-8.1116192e-04
-6.1774220e-04
-3.5028956e-04
-5.1413879e-05
2.3111347e-04
4.5473988e-04
5.9233474e-04
6.3730945e-04
6.0123495e-04
5.0629737e-04
3.7674093e-04
2.3269548e-04
8.7991781e-05
-4.8310486e-05
-1.6851649e-04
-2.6353722e-04
-3.2264936e-04
-3.3605291e-04
-2.9909980e-04
-2.1653944e-04
-1.0510829e-04
7.2983940e-06
8.7308573e-05
1.0619336e-04
5.0883425e-05
-6.9036222e-05
-2.2058550e-04
-3.5363213e-04
-4.1522896e-04
-3.6865985e-04
-2.0896864e-04
3.2215075e-05
2.9499864e-04
5.0959012e-04
6.1757162e-04
5.8828797e-04
4.2554296e-04
1.6445188e-04
-1.3835673e-04
-4.1746199e-04
-6.1186591e-04
-6.7739850e-04
-5.9683447e-04
-3.8517179e-04
-8.6932098e-05
2.3564372e-04
5.1888629e-04
7.1196374e-04
7.8698383e-04
7.4374495e-04
6.0726431e-04
4.1887100e-04
2.2428488e-04
6.2475378e-05
-4.2281069e-05
-8.4246693e-05
-7.6003225e-05
-4.4685096e-05
-2.5351937e-05
-5.2157722e-05
-1.4820818e-04
-3.1597206e-04
-5.3155036e-04
-7.4672929e-04
-9.0097531e-04
-9.4011847e-04
-8.3286048e-04
-5.7889673e-04
-2.1009914e-04
2.1267976e-04
6.0824265e-04
8.9123645e-04
9.9511578e-04
8.9583507e-04
6.2592425e-04
2.6927995e-04
-6.5348137e-05
-2.8273623e-04
-3.3447435e-04
-2.3261732e-04
-3.9716907e-05
1.5772357e-04
2.8005148e-04
2.7828250e-04
1.4435739e-04
-9.3069883e-05
-3.8235884e-04
-6.6439401e-04
-8.8487330e-04
-1.0020304e-03
-9.9038651e-04
-8.4201553e-04
-5.6661480e-04
-1.9080430e-04
2.4383394e-04
6.8480413e-04
1.0753120e-03
1.3630001e-03
1.5089853e-03
1.4943764e-03
1.3220346e-03
1.0135788e-03
6.0391068e-04
1.3618374e-04
-3.4140298e-04
-7.7933601e-04
-1.1324691e-03
-1.3646727e-03
-1.4518583e-03
-1.3852184e-03
-1.1742872e-03
-8.4787874e-04
-4.5094415e-04
-3.6986792e-05
3.4188506e-04
6.4383380e-04
8.4251894e-04
9.2825817e-04
9.0641422e-04
7.9464599e-04
6.1990131e-04
4.1495722e-04
2.1373078e-04
4.4957179e-05
-7.4485194e-05
-1.4365616e-04
-1.7707055e-04
-1.9945514e-04
-2.3635901e-04
-3.0330175e-04
-3.9801035e-04
-4.9942009e-04
-5.7429653e-04
-5.8912900e-04
-5.2275759e-04
-3.7491383e-04
-1.6751796e-04
6.1634078e-05
2.7041246e-04
4.2495066e-04
5.0880293e-04
5.2552874e-04
4.9428414e-04
4.4092583e-04
3.8851597e-04
3.4977358e-04
3.2343702e-04
2.9646845e-04
2.5045259e-04
1.6828823e-04
3.8921394e-05
-1.4001147e-04
-3.6062841e-04
-6.0362805e-04
-8.3800658e-04
-1.0232564e-03
-1.1154571e-03
-1.0769616e-03
-8.8724403e-04
-5.5145187e-04
-1.0374202e-04
3.9619132e-04
8.7349063e-04
1.2535429e-03
1.4782907e-03
1.5189972e-03
1.3827656e-03
1.1099195e-03
7.5991841e-04
3.8986295e-04
3.5817366e-05
-2.9335928e-04
-6.0648145e-04
-9.1038638e-04
-1.1917685e-03
-1.4115220e-03
-1.5155651e-03
-1.4569030e-03
-1.2177818e-03
-8.2125281e-04
-3.2731477e-04
1.8381945e-04
6.3380361e-04
9.6509137e-04
1.1506507e-03
1.1934204e-03
1.1187922e-03
9.6374149e-04
7.6551401e-04
5.5285675e-04
3.4227185e-04
1.4016218e-04
-5.0804281e-05
-2.2495520e-04
-3.7051808e-04
-4.7205552e-04
-5.1708408e-04
-5.0305616e-04
-4.4059874e-04
-3.5094762e-04
-2.5864112e-04
-1.8291497e-04
-1.3163290e-04
-1.0003494e-04
