-3.8674972e-02
-6.4838567e-02
-9.6629185e-02
-1.3552840e-01
-1.8010394e-01
-2.2267781e-01
-2.4229904e-01
-2.1689626e-01
-1.3454706e-01
2.7630590e-03
1.8909554e-01
4.3413725e-01
7.1719026e-01
9.2889613e-01
9.1589067e-01
6.0761882e-01
1.1286981e-01
-3.4830871e-01
-6.1706933e-01
-6.6570551e-01
-5.5067046e-01
-3.4667448e-01
-1.2008011e-01
6.4540723e-02
1.6126838e-01
1.6033558e-01
8.4717848e-02
-2.0099226e-02
-1.1310793e-01
-1.7089657e-01
-1.8304625e-01
-1.5279959e-01
-9.3250596e-02
-2.0927608e-02
4.6399435e-02
9.4650241e-02
1.1587127e-01
1.0281620e-01
5.1253798e-02
-3.1743167e-02
-1.2532667e-01
-1.9866812e-01
-2.2541328e-01
-1.9507664e-01
-1.0773740e-01
3.7020508e-02
2.4385375e-01
4.8891361e-01
6.7422181e-01
6.6055633e-01
3.8732480e-01
-3.6749854e-02
-4.0162777e-01
-5.6816022e-01
-5.3559571e-01
-3.7658791e-01
-1.6183998e-01
7.7624375e-02
3.1172094e-01
4.4237759e-01
3.5439185e-01
5.0728110e-02
-3.1326795e-01
-5.4363195e-01
-5.5002795e-01
-3.7471237e-01
-9.7435327e-02
2.3731793e-01
5.8295717e-01
8.2971069e-01
8.3210556e-01
5.3851033e-01
8.5945649e-02
-3.0859209e-01
-5.3165888e-01
-5.9014777e-01
-5.3398703e-01
-4.1644399e-01
-2.8919489e-01
-1.9932454e-01
-1.5539994e-01
-1.2305003e-01
-6.4561893e-02
4.7879275e-02
2.4002343e-01
5.2384895e-01
8.3323573e-01
9.9055062e-01
8.3155438e-01
3.8015991e-01
-1.4814044e-01
-5.2783491e-01
-6.7322812e-01
-6.1749230e-01
-4.3679324e-01
-2.1947583e-01
-4.2743597e-02
4.8745094e-02
4.7053685e-02
-2.0753468e-02
-1.0595951e-01
-1.6160100e-01
-1.6118863e-01
-1.0481776e-01
-1.0023791e-02
9.5734992e-02
1.8506284e-01
2.3863282e-01
2.3996007e-01
1.7963741e-01
6.5730397e-02
-7.5222169e-02
-2.0943528e-01
-3.0831874e-01
-3.5484710e-01
-3.4219492e-01
-2.7394534e-01
-1.6980174e-01
-4.6610217e-02
1.0187761e-01
2.9867301e-01
5.6134835e-01
8.4254210e-01
9.8958389e-01
8.4405310e-01
4.0594086e-01
-1.4265350e-01
-5.8296893e-01
-8.0649517e-01
-8.2633185e-01
-7.0858502e-01
-5.2832085e-01
-3.4745447e-01
-1.9502450e-01
-7.1258617e-02
3.6288416e-02
1.4941655e-01
3.0143407e-01
5.2121524e-01
7.7147524e-01
9.0281256e-01
7.4410359e-01
2.9143119e-01
-2.4053999e-01
-6.0239775e-01
-6.9710632e-01
-5.7257698e-01
-3.2502502e-01
-4.7424788e-02
1.8307463e-01
3.0553399e-01
2.9290750e-01
1.7418532e-01
1.9172709e-02
-1.0223496e-01
-1.5051003e-01
-1.3238151e-01
-8.7889717e-02
-5.3598782e-02
-5.7964990e-02
-9.5037846e-02
-1.1495464e-01
-9.6947551e-02
-5.8120683e-02
-1.2362696e-02
3.1524618e-02
6.0543700e-02
4.7788038e-02
-3.2248761e-02
-1.6875349e-01
-3.1213978e-01
-4.0333801e-01
-4.0329539e-01
-3.0585921e-01
-1.1921465e-01
1.5464875e-01
5.0103706e-01
8.5004058e-01
1.0716553e+00
1.0450808e+00
7.4215276e-01
2.6541945e-01
-1.9647630e-01
-4.9729397e-01
-6.0729323e-01
-5.7043573e-01
-4.4898972e-01
-3.0809550e-01
-2.0130547e-01
-1.4922145e-01
-1.4122058e-01
-1.4774970e-01
-1.3595654e-01
-8.8048151e-02
-3.8488520e-03
1.0191641e-01
2.1012816e-01
3.0598986e-01
3.6085008e-01
3.2518453e-01
1.8091024e-01
-1.6239287e-02
-1.8343760e-01
-2.6816651e-01
-2.6300592e-01
-1.9733201e-01
-1.1349848e-01
-4.7568047e-02
-9.3577901e-03
1.8097325e-02
5.3577972e-02
1.0592022e-01
1.6992100e-01
2.2630906e-01
2.4941883e-01
2.1426900e-01
1.1158485e-01
-3.3241396e-02
-1.6830295e-01
-2.4995648e-01
-2.6594296e-01
-2.2979403e-01
-1.6307219e-01
-9.1825549e-02
-3.6209569e-02
-1.4578928e-03
1.5974393e-02
3.1180293e-02
4.9946353e-02
4.9456803e-02
8.3885079e-03
-6.1209675e-02
-1.1169781e-01
-9.3692764e-02
5.5274621e-03
1.7374058e-01
3.8204567e-01
5.6382572e-01
6.1949469e-01
4.7780625e-01
1.7869375e-01
-1.4206443e-01
-3.6710653e-01
-4.6189916e-01
-4.5126376e-01
-3.7803870e-01
-2.8223189e-01
-2.0277036e-01
-1.6566951e-01
-1.6617775e-01
-1.8245122e-01
-1.8751722e-01
-1.5245357e-01
-6.0400078e-02
1.0192180e-01
3.4871410e-01
6.4210032e-01
8.5961472e-01
8.6056828e-01
6.0448876e-01
2.0206578e-01
-1.7305280e-01
-4.1172042e-01
-4.9824723e-01
-4.6821467e-01
-3.7352599e-01
-2.6116819e-01
-1.6726489e-01
-1.1250930e-01
-9.3244319e-02
-9.6968821e-02
-1.1775969e-01
-1.4161102e-01
-1.4269934e-01
-1.0024255e-01
-7.4615254e-03
1.3183448e-01
3.0330729e-01
4.6504264e-01
5.3917326e-01
4.5609784e-01
2.2499226e-01
-6.3942131e-02
-3.0675867e-01
-4.4991760e-01
-4.9526177e-01
-4.6289572e-01
-3.7546627e-01
-2.5020555e-01
-9.7176794e-02
8.2609135e-02
3.0572700e-01
5.6736813e-01
7.8670046e-01
8.2488378e-01
5.9626358e-01
1.7825174e-01
-2.3714998e-01
-5.0745112e-01
-6.0650086e-01
-5.7714615e-01
-4.7573686e-01
-3.4506224e-01
-2.1449267e-01
-9.5508873e-02
1.3026275e-02
1.1630065e-01
2.2748809e-01
3.4256809e-01
4.2689547e-01
4.4832472e-01
3.9680228e-01
2.8398724e-01
1.4219733e-01
3.4227010e-03
-1.0933910e-01
-1.8410709e-01
-2.3073427e-01
-2.6683357e-01
-3.0501610e-01
-3.3888612e-01
-3.4293846e-01
-3.0602680e-01
-2.3356011e-01
-1.3364393e-01
-2.4350457e-02
7.7759370e-02
1.6957264e-01
2.5379654e-01
3.3539843e-01
4.0668113e-01
4.3200003e-01
3.6515506e-01
1.9730229e-01
-1.6895430e-02
-1.9850297e-01
-3.0251774e-01
-3.3102683e-01
-3.0969505e-01
-2.7027718e-01
-2.3953682e-01
-2.2745303e-01
-2.2885581e-01
-2.2443891e-01
-1.8213326e-01
-8.4870091e-02
6.9076428e-02
2.9424748e-01
5.8319017e-01
8.5090886e-01
9.5581313e-01
7.9659518e-01
4.0581485e-01
-6.2332601e-02
-4.4216663e-01
-6.5080833e-01
-6.9972778e-01
-6.4004543e-01
-5.1895231e-01
-3.7921299e-01
-2.5231670e-01
-1.5228312e-01
-7.8528925e-02
-9.8678140e-03
8.7366989e-02
2.3816899e-01
4.5065862e-01
7.0126293e-01
8.8775858e-01
8.5408784e-01
5.3361841e-01
4.0743353e-02
-4.0503506e-01
-6.4793668e-01
-6.7637271e-01
-5.6145704e-01
-3.7749588e-01
-1.7738353e-01
-4.6741597e-03
9.9126112e-02
1.0386961e-01
1.2967589e-02
-1.2111553e-01
-2.2214285e-01
-2.3488500e-01
-1.4882707e-01
1.1486199e-02
2.1026246e-01
3.9791891e-01
5.0692754e-01
4.8765203e-01
3.4653253e-01
1.4061433e-01
-5.8097911e-02
-1.9558096e-01
-2.5938553e-01
-2.7282595e-01
-2.6213729e-01
-2.4718341e-01
-2.4878588e-01
-2.7306244e-01
-2.9703808e-01
-2.8477379e-01
-2.1001585e-01
-5.9331814e-02
1.7723371e-01
5.0212894e-01
8.5446049e-01
1.0636779e+00
9.5007128e-01
5.0843222e-01
-5.2053234e-02
-4.7951529e-01
-6.6520626e-01
-6.4920782e-01
-5.1901014e-01
-3.5203896e-01
-2.0626879e-01
-1.1653232e-01
-8.8314923e-02
-9.8881112e-02
-1.1588184e-01
-1.1618373e-01
-8.8189969e-02
-2.5286137e-02
7.6356572e-02
2.2015540e-01
4.0706719e-01
5.9551625e-01
6.8332472e-01
5.8438934e-01
3.1513515e-01
-9.4048706e-03
-2.6687366e-01
-4.0639584e-01
-4.4037914e-01
-4.0640144e-01
-3.4405541e-01
-2.7990179e-01
-2.2727095e-01
-1.9038586e-01
-1.6447209e-01
-1.3829254e-01
-9.4338180e-02
-9.5721986e-03
1.2777594e-01
3.1230341e-01
5.2478860e-01
6.9609541e-01
7.0976079e-01
5.0104547e-01
1.3315092e-01
-2.3658307e-01
-4.7177894e-01
-5.3491903e-01
-4.6006983e-01
-3.0435087e-01
-1.2846811e-01
1.5794471e-02
9.3875629e-02
9.0037107e-02
1.2594669e-02
-1.0955973e-01
-2.3836509e-01
-3.2748211e-01
-3.4112284e-01
-2.7487161e-01
-1.3988446e-01
5.9205531e-02
3.3167359e-01
6.6887299e-01
9.7634310e-01
1.0829248e+00
8.7027761e-01
3.9784122e-01
-1.1766943e-01
-4.7709126e-01
-6.3517706e-01
-6.5628647e-01
-6.2450546e-01
-5.9142806e-01
-5.5081399e-01
-4.8306918e-01
-3.8132388e-01
-2.3922227e-01
-6.6950873e-02
1.1764165e-01
3.0934911e-01
5.1067814e-01
7.1311227e-01
8.5024229e-01
8.0175589e-01
5.1623290e-01
9.7362314e-02
-2.8040182e-01
-5.0423314e-01
-5.6299508e-01
-5.0315051e-01
-3.8181405e-01
-2.5672329e-01
-1.6985254e-01
-1.2880089e-01
-1.1707044e-01
-1.0562060e-01
-6.2771010e-02
2.6686413e-02
1.7147548e-01
3.8918386e-01
6.4925914e-01
8.2480018e-01
7.6598700e-01
4.3725193e-01
-2.3310670e-02
-4.1272308e-01
-6.1406004e-01
-6.2459755e-01
-5.0276064e-01
-3.2167418e-01
-1.4703485e-01
-2.3697574e-02
3.3624866e-02
3.4409595e-02
-2.7707820e-03
-6.0822933e-02
-1.1791360e-01
-1.4303199e-01
-1.0898215e-01
-2.3777454e-03
1.7140117e-01
3.8671666e-01
5.8708028e-01
6.7718160e-01
5.7220141e-01
2.8379881e-01
-6.8319609e-02
-3.4492216e-01
-4.7457770e-01
-4.6646187e-01
-3.7140869e-01
-2.4944555e-01
-1.5051054e-01
-1.0133041e-01
-1.0367468e-01
-1.3591485e-01
-1.6785683e-01
-1.8065990e-01
-1.6778972e-01
-1.2704411e-01
-5.0625335e-02
8.0042763e-02
2.9244555e-01
5.9743654e-01
9.0796990e-01
1.0248250e+00
8.0040540e-01
3.0264744e-01
-2.3125645e-01
-5.9861223e-01
-7.4927993e-01
-7.3622179e-01
-6.3473681e-01
-5.0222193e-01
-3.7343487e-01
-2.6036507e-01
-1.4942532e-01
-2.4436566e-02
1.2750635e-01
3.3325798e-01
6.0328344e-01
8.6751527e-01
9.5597699e-01
7.1759965e-01
2.1498335e-01
-3.0235144e-01
-6.3384626e-01
-7.3675009e-01
-6.6444168e-01
-4.8996879e-01
-2.7591983e-01
-7.7619223e-02
6.3523287e-02
1.3585859e-01
1.6861264e-01
2.2029954e-01
3.2139345e-01
4.3431161e-01
4.7364762e-01
3.6894336e-01
1.3159278e-01
-1.4924108e-01
-3.7575656e-01
-4.9386486e-01
-4.9322647e-01
-3.8607964e-01
-2.0238962e-01
9.1183868e-03
1.8921075e-01
2.8715418e-01
2.9259629e-01
2.4204398e-01
1.8783947e-01
1.6728139e-01
1.7592667e-01
1.6701954e-01
9.2802498e-02
-4.7314620e-02
-1.9798527e-01
-2.9620728e-01
-3.1461589e-01
-2.5909535e-01
-1.5544168e-01
-4.6052668e-02
2.7324564e-02
4.6953207e-02
2.2200562e-02
-1.9472709e-02
-5.3781708e-02
-7.2483364e-02
-7.8147817e-02
-8.1862877e-02
-9.2885619e-02
-1.1243730e-01
-1.4017576e-01
-1.7085143e-01
-1.8695159e-01
-1.5943251e-01
-4.9744551e-02
1.8265963e-01
5.3123409e-01
8.8829513e-01
1.0734638e+00
9.5203724e-01
5.4887805e-01
4.1758470e-02
-3.6313855e-01
-5.6085526e-01
-5.7355957e-01
-4.7886916e-01
-3.4865439e-01
-2.4018917e-01
-1.9427621e-01
-2.1497750e-01
-2.6883368e-01
-3.1034106e-01
-3.0145954e-01
-2.3464891e-01
-1.3121965e-01
-1.7692335e-02
9.2203364e-02
2.1157188e-01
3.6437868e-01
5.3916345e-01
6.5535615e-01
6.0737214e-01
3.6927455e-01
3.6823527e-02
-2.4901125e-01
-4.0298791e-01
-4.2481622e-01
-3.6444514e-01
-2.8147674e-01
-2.1907063e-01
-1.8761993e-01
-1.6576500e-01
-1.1820399e-01
-2.5493302e-02
1.1457333e-01
2.9696974e-01
4.7945874e-01
5.7521482e-01
5.1468768e-01
3.0814389e-01
4.4470836e-02
-1.7306495e-01
-2.9749147e-01
-3.4104271e-01
-3.3741965e-01
-3.1801408e-01
-2.9840766e-01
-2.7278784e-01
-2.2891325e-01
-1.6956630e-01
-1.0130731e-01
-2.1027896e-02
8.4201062e-02
2.3718452e-01
4.4172953e-01
6.3637531e-01
7.0192666e-01
5.5888715e-01
2.5759095e-01
-6.1862553e-02
-2.8710286e-01
-3.8259343e-01
-3.7429782e-01
-3.2716173e-01
-3.0043623e-01
-3.0886132e-01
-3.3026488e-01
-3.2977227e-01
-2.8167875e-01
-1.8995063e-01
-7.0354942e-02
7.9359949e-02
2.7136677e-01
5.0216943e-01
7.2595596e-01
8.5129641e-01
7.9178424e-01
5.3787870e-01
1.7641915e-01
-1.6689423e-01
-4.0321582e-01
-5.0509968e-01
-4.9147172e-01
-4.1146224e-01
-3.1759108e-01
-2.3859329e-01
-1.8119461e-01
-1.4225143e-01
-1.1450850e-01
-9.1126021e-02
-6.8168325e-02
-4.7624650e-02
-2.7632999e-02
1.1387543e-03
4.8714535e-02
1.2681779e-01
2.2981183e-01
3.1862862e-01
3.3966571e-01
2.6168607e-01
1.0786614e-01
-5.9291670e-02
-1.8971809e-01
-2.6434068e-01
-2.8748461e-01
-2.8025154e-01
-2.6234081e-01
-2.3750598e-01
-1.9475806e-01
-1.2009944e-01
4.5629282e-03
2.0404923e-01
4.7485276e-01
7.5245404e-01
9.2357681e-01
8.7992708e-01
5.9245332e-01
1.5295079e-01
-2.7681400e-01
-5.7099255e-01
-6.8844620e-01
-6.5194676e-01
-5.1634137e-01
-3.4751236e-01
-2.0084790e-01
-1.0578488e-01
-6.7399611e-02
-7.1749548e-02
-9.4929912e-02
-1.1400787e-01
-1.1780686e-01
-1.0981878e-01
-8.6830508e-02
-3.0147764e-02
8.4952657e-02
2.8637358e-01
5.7561210e-01
8.6985192e-01
9.8697622e-01
7.6571702e-01
2.5234204e-01
-3.1425697e-01
-7.1971658e-01
-8.9073913e-01
-8.6137531e-01
-7.1090442e-01
-5.1361196e-01
-3.1349444e-01
-1.1264000e-01
1.1697990e-01
4.1190885e-01
7.7127090e-01
1.0793763e+00
1.1325600e+00
8.1708187e-01
2.4876495e-01
-3.0700585e-01
-6.5296449e-01
-7.5599868e-01
-6.7287871e-01
-4.7993114e-01
-2.5725543e-01
-7.5689557e-02
2.5133844e-02
5.1055389e-02
3.5135697e-02
-3.6356037e-03
-8.7910125e-02
-2.0518549e-01
-2.6351216e-01
-2.0891161e-01
-5.6533568e-02
1.7598266e-01
4.7560042e-01
7.7932133e-01
9.3562321e-01
7.9976038e-01
3.8669356e-01
-1.2146867e-01
-5.2058784e-01
-7.1480515e-01
-7.2287206e-01
-6.0748767e-01
-4.3477818e-01
-2.6202519e-01
-1.2039847e-01
-1.4096862e-02
7.2519165e-02
1.7434848e-01
3.3757746e-01
5.7438009e-01
7.9087912e-01
8.1700377e-01
5.6158449e-01
1.1532715e-01
-3.1660697e-01
-5.7566654e-01
-6.2941888e-01
-5.3291283e-01
-3.6776256e-01
-2.0117724e-01
-7.0235329e-02
1.2459096e-02
5.2472835e-02
6.2769122e-02
5.3287088e-02
3.1850844e-02
5.4501136e-03
-1.8956603e-02
-3.5263396e-02
-3.8275815e-02
-2.3160906e-02
1.3507724e-02
7.3432393e-02
1.5302727e-01
2.3470539e-01
2.7857875e-01
2.4000978e-01
1.0980685e-01
-6.6213266e-02
-2.1740118e-01
-2.9772627e-01
-3.0041879e-01
-2.4428265e-01
-1.5631769e-01
-6.0881442e-02
2.6652788e-02
1.0495038e-01
1.7779462e-01
2.4251751e-01
2.9357120e-01
3.2286580e-01
3.1249047e-01
2.4478316e-01
1.2391184e-01
-2.0534481e-02
-1.5699920e-01
-2.6542108e-01
-3.3349995e-01
-3.6481752e-01
-3.7763652e-01
-3.8006002e-01
-3.6409111e-01
-3.2527826e-01
-2.5531366e-01
-1.3819385e-01
3.7153552e-02
2.8259074e-01
5.9535198e-01
9.1125760e-01
1.0814053e+00
9.5321267e-01
5.2348811e-01
-2.2821497e-02
-4.5947341e-01
-6.7422242e-01
-6.7972453e-01
-5.4302234e-01
-3.4268947e-01
-1.5463303e-01
-2.6610313e-02
3.3359865e-02
3.7672810e-02
-2.4459287e-04
-7.2972556e-02
-1.6906132e-01
-2.5888764e-01
-3.0052865e-01
-2.6254941e-01
-1.4457523e-01
3.4385379e-02
2.6103399e-01
5.1806523e-01
7.4650510e-01
8.3849185e-01
7.0750056e-01
3.7487705e-01
-3.3991839e-02
-3.8028587e-01
-5.8895455e-01
-6.5874026e-01
-6.2721073e-01
-5.3589193e-01
-4.1647587e-01
-2.8395737e-01
-1.3980429e-01
1.8375761e-02
1.9412877e-01
3.9444989e-01
6.1793744e-01
8.1186752e-01
8.6038196e-01
6.7250642e-01
2.8484812e-01
-1.5160146e-01
-4.7832442e-01
-6.1975638e-01
-5.9012727e-01
-4.4750184e-01
-2.6252751e-01
-9.2605774e-02
3.6458404e-02
1.1503784e-01
1.3847850e-01
1.0970711e-01
3.5135274e-02
-6.9333919e-02
-1.7437109e-01
-2.5547057e-01
-2.9632641e-01
-2.8139464e-01
-2.0475436e-01
-6.7630770e-02
1.2802586e-01
3.7223704e-01
6.2466204e-01
7.9504981e-01
7.7645854e-01
5.2903425e-01
1.3764304e-01
-2.3888314e-01
-4.8072236e-01
-5.5638408e-01
-4.9591654e-01
-3.5630319e-01
-1.9519218e-01
-5.0168609e-02
5.7458011e-02
1.1639833e-01
1.2911370e-01
1.0169757e-01
4.4818547e-02
-1.8704511e-02
-6.6244784e-02
-8.3479368e-02
-6.9744170e-02
-3.3640866e-02
2.1524419e-02
8.3934906e-02
1.1462092e-01
7.8335653e-02
-1.3120489e-02
-1.1084058e-01
-1.6879393e-01
-1.6086759e-01
-8.2700395e-02
4.4402868e-02
1.8055171e-01
2.7483285e-01
2.7958504e-01
1.8793717e-01
4.2277275e-02
-1.0650557e-01
-2.2368925e-01
-2.9333974e-01
-3.1982094e-01
-3.1421732e-01
-2.7963137e-01
-2.1314359e-01
-1.1625980e-01
1.4255163e-02
1.9741719e-01
4.4301151e-01
6.9477149e-01
8.1368016e-01
6.7411893e-01
2.9079865e-01
-1.6505506e-01
-5.0007020e-01
-6.3781397e-01
-6.1035081e-01
-4.8163118e-01
-3.0667529e-01
-1.3026199e-01
1.3738561e-02
1.1805629e-01
1.9607214e-01
2.6328692e-01
3.2645202e-01
3.7268924e-01
3.6500125e-01
2.6956173e-01
8.8425052e-02
-1.3268075e-01
-3.1655343e-01
-3.9680847e-01
-3.5884893e-01
-2.4118345e-01
-9.4482882e-02
5.9327647e-02
2.1155404e-01
3.1595837e-01
2.9884485e-01
1.3338680e-01
-1.1998358e-01
-3.4327782e-01
-4.4272054e-01
-4.0488071e-01
-2.7079123e-01
-8.9765510e-02
1.0715940e-01
3.1457902e-01
5.1895275e-01
6.6021411e-01
6.5059151e-01
4.5163677e-01
1.3219465e-01
-1.7478398e-01
-3.6984928e-01
-4.2863082e-01
-3.8089592e-01
-2.8195277e-01
-1.8517989e-01
-1.2579097e-01
-1.1592470e-01
-1.4266845e-01
-1.7829750e-01
-1.9500664e-01
-1.7713032e-01
-1.2031980e-01
-2.2418659e-02
1.1475376e-01
2.9086255e-01
5.0024972e-01
6.8711796e-01
7.4575606e-01
5.9671640e-01
2.6655629e-01
-1.1350863e-01
-4.0775002e-01
-5.5557792e-01
-5.7145212e-01
-5.0753467e-01
-4.1111049e-01
-3.0951428e-01
-2.1664904e-01
-1.3639235e-01
-6.2258199e-02
1.9500562e-02
1.2720184e-01
2.8688025e-01
5.0322095e-01
7.0394252e-01
7.4894690e-01
5.4616227e-01
1.6295721e-01
-2.2228752e-01
-4.6192933e-01
-5.1059766e-01
-4.1179901e-01
-2.4750499e-01
-9.4402031e-02
-5.5115990e-04
2.4930699e-02
-4.8157220e-03
-7.1640220e-02
-1.5482932e-01
-2.2692032e-01
-2.5188828e-01
-2.0900860e-01
-9.9742916e-02
7.0054042e-02
2.9036429e-01
5.2561112e-01
6.9348951e-01
6.9277234e-01
4.7749907e-01
1.1746691e-01
-2.3029042e-01
-4.3714105e-01
-4.7651521e-01
-3.9946176e-01
-2.7340820e-01
-1.5144113e-01
-7.6395883e-02
-7.4913450e-02
-1.3892351e-01
-2.2198310e-01
-2.6806089e-01
-2.4294549e-01
-1.3464823e-01
5.3611749e-02
2.9953596e-01
5.4613283e-01
6.9909582e-01
6.8458921e-01
5.1346581e-01
2.6573310e-01
2.1393872e-02
-1.8432340e-01
-3.5053245e-01
-4.8161197e-01
-5.6913416e-01
-5.9531871e-01
-5.5184012e-01
-4.4153730e-01
-2.7033647e-01
-4.8156399e-02
2.2180619e-01
5.3750257e-01
8.4136559e-01
9.9575400e-01
8.7579629e-01
5.0034517e-01
3.8611503e-02
-3.3205702e-01
-5.4097844e-01
-5.9836224e-01
-5.4402841e-01
-4.3168895e-01
-3.1006042e-01
-2.0765310e-01
-1.2286762e-01
-2.9186308e-02
9.3057710e-02
2.1896961e-01
2.8588988e-01
2.5560796e-01
1.6562417e-01
1.0110494e-01
1.1358498e-01
1.7750113e-01
2.1649930e-01
1.6936468e-01
3.9023429e-02
-1.1398720e-01
-2.2533678e-01
-2.6975683e-01
-2.5916827e-01
-2.2374038e-01
-1.8926467e-01
-1.6644245e-01
-1.5728531e-01
-1.5860574e-01
-1.6200096e-01
-1.5379663e-01
-1.1389389e-01
-2.3714313e-02
1.3145361e-01
3.6278350e-01
6.3679134e-01
8.4115151e-01
8.3783840e-01
5.7683259e-01
1.5710281e-01
-2.4613017e-01
-5.0497208e-01
-5.9026835e-01
-5.4370123e-01
-4.2523277e-01
-2.8459994e-01
-1.5853034e-01
-6.9495139e-02
-2.6748470e-02
-2.4200769e-02
-3.7558507e-02
-3.5754049e-02
5.3632077e-03
9.4465613e-02
2.1562932e-01
3.1797217e-01
3.3583988e-01
2.5014450e-01
1.0935890e-01
-2.0297337e-02
-1.0528870e-01
-1.5220561e-01
-1.8175004e-01
-2.1491883e-01
-2.6504439e-01
-3.1550761e-01
-3.2298454e-01
-2.5337208e-01
-1.1108289e-01
8.6068043e-02
3.3996484e-01
6.3327638e-01
8.6925968e-01
8.9565767e-01
6.3184628e-01
1.7647849e-01
-2.6398095e-01
-5.4490167e-01
-6.3884897e-01
-5.8826591e-01
-4.5462065e-01
-2.9686625e-01
-1.6492447e-01
-8.2223578e-02
-4.3224568e-02
-3.3224423e-02
-4.7358906e-02
-7.7476554e-02
-9.0875957e-02
-4.0886939e-02
1.1155111e-01
3.5579517e-01
6.0075910e-01
7.2018786e-01
6.3772031e-01
3.7815352e-01
4.4904828e-02
-2.5563613e-01
-4.6578106e-01
-5.7782451e-01
-6.1299254e-01
-5.9224921e-01
-5.2232373e-01
-4.0933546e-01
-2.6620134e-01
-9.9769756e-02
9.8961490e-02
3.5496763e-01
6.7887496e-01
9.9954245e-01
1.1472483e+00
9.7527865e-01
5.1973634e-01
-1.7022492e-02
-4.3499934e-01
-6.4730900e-01
-6.7709204e-01
-5.9978327e-01
-4.8935683e-01
-3.9713312e-01
-3.4457372e-01
-3.2466221e-01
-3.0979215e-01
-2.6647640e-01
-1.7520274e-01
-3.2219620e-02
1.5910902e-01
4.0353476e-01
7.0519066e-01
9.9361275e-01
1.0951896e+00
8.7203135e-01
3.8185574e-01
-1.5303358e-01
-5.2215001e-01
-6.5458315e-01
-5.9722493e-01
-4.3804638e-01
-2.6594273e-01
-1.4332315e-01
-9.4568621e-02
-1.1352365e-01
-1.7468625e-01
-2.4307616e-01
-2.7225673e-01
-2.2066768e-01
-8.2528392e-02
1.2350375e-01
3.7668328e-01
6.2730198e-01
7.6490144e-01
6.7516916e-01
3.5771812e-01
-4.7065105e-02
-3.6233554e-01
-4.9473855e-01
-4.5639525e-01
-3.0992890e-01
-1.2965103e-01
2.6555840e-02
1.3107667e-01
1.6415221e-01
1.0217902e-01
-5.5448856e-02
-2.5017843e-01
-3.8948983e-01
-4.1313789e-01
-3.1325888e-01
-1.2407000e-01
1.0568364e-01
3.4023302e-01
5.3795420e-01
6.3352587e-01
5.6627916e-01
3.2939637e-01
-5.6061654e-03
-3.2100015e-01
-5.2222565e-01
-5.7495569e-01
-4.9611685e-01
-3.3650308e-01
-1.5473238e-01
1.2133062e-02
1.6749025e-01
3.4967084e-01
5.6381071e-01
7.1522105e-01
6.6991483e-01
3.9697966e-01
2.7541174e-02
-2.5923474e-01
-3.7179874e-01
-3.2250468e-01
-1.9816505e-01
-1.0541639e-01
-9.5165063e-02
-1.3898629e-01
-1.7852559e-01
-1.7833245e-01
-1.3323267e-01
-6.1703796e-02
4.8148288e-03
3.7830978e-02
2.5295744e-02
-2.2875728e-02
-8.5552230e-02
-1.4193657e-01
-1.7949911e-01
-1.9706704e-01
-1.9001321e-01
-1.4535722e-01
-4.9255040e-02
1.1079237e-01
3.3048283e-01
5.6860550e-01
7.4308340e-01
7.6255974e-01
5.8877938e-01
2.7757348e-01
-5.1907567e-02
-2.9708837e-01
-4.1883964e-01
-4.3361237e-01
-3.8502021e-01
-3.1807950e-01
-2.6244471e-01
-2.2047020e-01
-1.7339085e-01
-1.0798566e-01
-2.6912649e-02
5.7072017e-02
1.2373768e-01
1.5178651e-01
1.2135878e-01
2.4311511e-02
-1.1421772e-01
-2.4226623e-01
-3.1133992e-01
-2.9427044e-01
-1.8724688e-01
-5.2910357e-03
2.2926189e-01
4.8233521e-01
6.8629223e-01
7.6049068e-01
6.7666335e-01
4.7370850e-01
2.0618623e-01
-7.8013149e-02
-3.2772849e-01
-5.0265095e-01
-5.8767252e-01
-5.8492492e-01
-5.0960652e-01
-3.8785831e-01
-2.4687013e-01
-1.1200614e-01
-6.0446776e-03
6.2126836e-02
1.0303766e-01
1.2765330e-01
1.2730622e-01
8.3635073e-02
3.5218690e-03
-6.3306404e-02
-4.7961865e-02
9.4981192e-02
3.3997740e-01
5.7852624e-01
6.7471799e-01
5.5714734e-01
2.7755825e-01
-3.4765127e-02
-2.7186569e-01
-3.9124184e-01
-4.0586222e-01
-3.6045788e-01
-3.0188029e-01
-2.5748735e-01
-2.3216139e-01
-2.1203980e-01
-1.7430220e-01
-1.0464630e-01
2.3614183e-03
1.5300290e-01
3.3599230e-01
4.8400609e-01
4.9345322e-01
3.1500546e-01
1.5033447e-02
-2.6343215e-01
-4.0610578e-01
-3.8973851e-01
-2.5807944e-01
-6.9237272e-02
1.3454328e-01
3.2291516e-01
4.4580719e-01
4.3309260e-01
2.6299254e-01
1.0172060e-02
-2.1222281e-01
-3.4256661e-01
-3.8899630e-01
-3.8280808e-01
-3.4139027e-01
-2.7733409e-01
-2.0160435e-01
-1.1670218e-01
-2.4335868e-02
7.1947577e-02
1.6743782e-01
2.5135436e-01
3.0003622e-01
2.8694769e-01
2.0536211e-01
8.4729392e-02
-1.0654430e-02
-2.5585257e-02
4.9846056e-02
1.8868503e-01
3.2729542e-01
3.7809869e-01
2.8540107e-01
7.0342745e-02
-1.7637149e-01
-3.5199070e-01
-4.0947509e-01
-3.6782129e-01
-2.7136277e-01
-1.6248604e-01
-7.2059130e-02
-1.4323726e-02
6.6330814e-03
-6.6467623e-03
-4.0366076e-02
-7.1182098e-02
-7.6794047e-02
-4.5011976e-02
3.1732040e-02
1.5468241e-01
3.0556695e-01
4.3936720e-01
4.8413979e-01
3.8331457e-01
1.5854687e-01
-9.4067117e-02
-2.8136997e-01
-3.7072698e-01
-3.7746641e-01
-3.3783146e-01
-2.8906313e-01
-2.5087549e-01
-2.2552740e-01
-2.0321523e-01
-1.6794479e-01
-1.1301775e-01
-4.2320858e-02
4.7151991e-02
1.7103741e-01
3.3678678e-01
4.9337884e-01
5.3313118e-01
4.0143329e-01
1.7128938e-01
-1.9182658e-02
-7.5878673e-02
1.0149675e-02
1.8049232e-01
3.2139490e-01
3.1199669e-01
1.2922141e-01
-1.2500604e-01
-3.2384064e-01
-4.0400853e-01
-3.7164701e-01
-2.7024976e-01
-1.4483426e-01
-3.2255573e-02
3.6029708e-02
5.0101454e-02
2.6956326e-02
-9.6021854e-03
-4.1608979e-02
-5.6309758e-02
-5.3131746e-02
-5.3358210e-02
-8.1064888e-02
-1.3572895e-01
-1.9567646e-01
-2.2723760e-01
-2.0329086e-01
-1.2951146e-01
-2.5055196e-02
1.0365389e-01
2.5212909e-01
4.0448555e-01
5.2677190e-01
5.7297251e-01
5.0592216e-01
3.2179469e-01
6.1497605e-02
-2.0337608e-01
-4.0295735e-01
-4.9434001e-01
-4.6915088e-01
-3.5562898e-01
-1.9921810e-01
-3.5905497e-02
1.1806076e-01
2.6279178e-01
3.8329114e-01
4.1284826e-01
2.7766841e-01
-4.7598913e-03
-3.1692794e-01
-5.3431253e-01
-6.0498415e-01
-5.4755990e-01
-4.0623862e-01
-2.2100452e-01
-1.1835249e-02
2.3111826e-01
5.1632744e-01
7.9364664e-01
9.4871350e-01
8.7262911e-01
5.6016279e-01
1.3705244e-01
-2.2960774e-01
-4.4016157e-01
-4.9488663e-01
-4.5263236e-01
-3.7835911e-01
-3.2252429e-01
-3.0986330e-01
-3.3272628e-01
-3.6451441e-01
-3.7667370e-01
-3.4336902e-01
-2.4375593e-01
-5.8849023e-02
2.2678165e-01
5.8587672e-01
9.1144435e-01
1.0559825e+00
9.3553479e-01
5.9694633e-01
1.7985201e-01
-1.7769233e-01
-4.0148332e-01
-4.8621084e-01
-4.6750946e-01
-3.9130989e-01
-2.9719757e-01
-2.0863409e-01
-1.3201332e-01
-6.8234957e-02
-1.9516297e-02
1.1749472e-02
2.2124057e-02
1.2954846e-02
-9.0243080e-03
-3.3422224e-02
-4.3523897e-02
-2.7995936e-02
1.5020659e-02
8.0229612e-02
1.5310544e-01
2.0504265e-01
1.9525109e-01
1.0727602e-01
-2.4992704e-02
-1.4619227e-01
-2.1520555e-01
-2.1646636e-01
-1.5821663e-01
-6.2732835e-02
3.7067156e-02
1.0529533e-01
1.2237390e-01
8.9376449e-02
1.7070529e-02
-7.9648357e-02
-1.8100574e-01
-2.6664501e-01
-3.1577324e-01
-3.1482531e-01
-2.7010791e-01
-1.9695939e-01
-9.9375137e-02
4.5827672e-02
2.7786210e-01
5.9985307e-01
9.1838263e-01
1.0562228e+00
8.8400167e-01
4.5080375e-01
-4.0087135e-02
-3.9109693e-01
-5.3486726e-01
-5.1645278e-01
-4.1170371e-01
-2.8753533e-01
-1.9507625e-01
-1.6152235e-01
-1.8357415e-01
-2.3622584e-01
-2.8937818e-01
-3.1460662e-01
-2.8964491e-01
-2.0337620e-01
-5.6296061e-02
1.4890994e-01
4.1516168e-01
7.0653902e-01
8.8578731e-01
7.8570179e-01
3.8639614e-01
-1.2964304e-01
-5.3657470e-01
-7.3158816e-01
-7.2506283e-01
-5.7328750e-01
-3.4681662e-01
-1.0075405e-01
1.4841608e-01
4.1524652e-01
6.8911861e-01
8.7078927e-01
8.0887500e-01
4.5664907e-01
-4.3121323e-02
-4.7511555e-01
-7.0904241e-01
-7.3994676e-01
-6.3003337e-01
-4.5147490e-01
-2.6682930e-01
-1.0447440e-01
5.4115666e-02
2.4775333e-01
4.7794700e-01
6.5478131e-01
6.3641369e-01
3.7390507e-01
-5.6009742e-03
-3.0114638e-01
-4.0121982e-01
-3.1663568e-01
-1.0091496e-01
1.8656337e-01
4.4313646e-01
5.2500050e-01
3.5928285e-01
4.2412712e-02
-2.4871863e-01
-4.1570904e-01
-4.5969706e-01
-4.2248675e-01
-3.4890867e-01
-2.7719878e-01
-2.3243311e-01
-2.0116765e-01
-1.3841918e-01
-1.1194431e-02
1.8847769e-01
4.4680585e-01
6.9592246e-01
7.9918353e-01
6.4708933e-01
2.8729636e-01
-1.0332997e-01
-3.7781060e-01
-4.9752739e-01
-4.9203676e-01
-4.0928123e-01
-3.0339284e-01
-2.2595635e-01
-1.9351293e-01
-1.8154461e-01
-1.5868201e-01
-1.0216205e-01
5.0099246e-03
1.8024298e-01
4.2367843e-01
6.6643915e-01
7.8491255e-01
6.9314402e-01
4.1376355e-01
6.8599127e-02
-2.1230969e-01
-3.6827011e-01
-4.0391483e-01
-3.5916886e-01
-2.8457807e-01
-2.1671018e-01
-1.7266472e-01
-1.5839043e-01
-1.7208870e-01
-2.0156153e-01
-2.2606683e-01
-2.2327562e-01
-1.7693858e-01
-8.7931376e-02
3.4438395e-02
1.9100011e-01
3.7901959e-01
5.5657010e-01
6.2641619e-01
4.9821577e-01
2.0888691e-01
-8.2503531e-02
-2.4676189e-01
-2.5762165e-01
-1.4605063e-01
2.3164013e-02
1.4413547e-01
1.2489366e-01
-2.7156913e-02
-2.1889064e-01
-3.6304469e-01
-4.2056736e-01
-3.9262656e-01
-2.9816294e-01
-1.4625115e-01
5.6822202e-02
2.9462597e-01
5.3253852e-01
6.8500692e-01
6.4009018e-01
3.8138837e-01
3.6006145e-02
-2.4063589e-01
-3.7524369e-01
-3.7626558e-01
-2.8852947e-01
-1.6564165e-01
-5.9025260e-02
-1.8684095e-03
-9.2116386e-04
-4.2141441e-02
-9.8359383e-02
-1.4478534e-01
-1.6628456e-01
-1.5695126e-01
-1.1899485e-01
-5.3670374e-02
3.8472075e-02
1.5459855e-01
2.9006024e-01
4.1817490e-01
4.7757644e-01
4.0902790e-01
2.1259194e-01
-3.0358853e-02
-2.1371305e-01
-2.8608256e-01
-2.6091642e-01
-1.8433026e-01
-1.1052703e-01
-8.0971697e-02
-1.0945156e-01
-1.8007504e-01
-2.5772408e-01
-3.1300672e-01
-3.3111083e-01
-3.0641316e-01
-2.4446193e-01
-1.4296390e-01
2.1962476e-02
2.7201172e-01
5.9367908e-01
8.9645927e-01
1.0234231e+00
8.7178924e-01
4.8607265e-01
2.2736540e-02
-3.5214401e-01
-5.5186120e-01
-5.7779295e-01
-4.7721916e-01
-3.1359744e-01
-1.3564090e-01
3.9956699e-02
1.9538055e-01
2.7559638e-01
2.2401162e-01
4.7255626e-02
-1.7372598e-01
-3.3723374e-01
-3.9294173e-01
-3.5107944e-01
-2.4831204e-01
-1.3331495e-01
-4.3578870e-02
9.8234618e-03
3.1705620e-02
4.3143952e-02
7.3029779e-02
1.4113174e-01
2.5000479e-01
3.7653315e-01
4.6613936e-01
4.5740520e-01
3.3915566e-01
1.6080765e-01
-1.7320485e-02
-1.6106986e-01
-2.6527812e-01
-3.3968569e-01
-3.8899096e-01
-4.0448307e-01
-3.7700726e-01
-3.0671756e-01
-2.0320536e-01
-8.8038952e-02
1.9964900e-02
1.2365863e-01
2.4282644e-01
3.9738419e-01
5.6209647e-01
6.3699903e-01
5.1816708e-01
2.1334662e-01
-1.3933991e-01
-3.9025432e-01
-4.8500902e-01
-4.5048485e-01
-3.4035083e-01
-2.1586170e-01
-1.3185272e-01
-1.1367391e-01
-1.5239752e-01
-2.0822908e-01
-2.2846757e-01
-1.7314515e-01
-2.5805610e-02
1.9935280e-01
4.5304954e-01
6.6439022e-01
7.7656611e-01
7.6257470e-01
6.1084315e-01
3.3984329e-01
2.0159704e-02
-2.5813229e-01
-4.3572137e-01
-5.0105789e-01
-4.7627767e-01
-3.9726875e-01
-3.0135273e-01
-2.1576212e-01
-1.5324259e-01
-1.1308022e-01
-8.0280695e-02
-4.1225261e-02
1.7140683e-03
3.8907767e-02
6.1568964e-02
6.8286038e-02
6.8310034e-02
7.0039639e-02
6.6886693e-02
3.8682195e-02
-2.4445342e-02
-1.0433336e-01
-1.6610733e-01
-1.7743648e-01
-1.1245672e-01
4.6839588e-02
2.9554339e-01
5.7632378e-01
7.5989365e-01
7.0795548e-01
4.0976786e-01
1.6755590e-02
-2.9190523e-01
-4.3227391e-01
-4.2525015e-01
-3.4035758e-01
-2.3469689e-01
-1.4223897e-01
-7.7559115e-02
-3.1183755e-02
7.3046051e-03
3.2204500e-02
3.2011413e-02
9.9702250e-05
-5.7503556e-02
-1.2501588e-01
-1.8767641e-01
-2.3168192e-01
-2.4806761e-01
-2.3772253e-01
-2.0262756e-01
-1.4281465e-01
-5.6990024e-02
6.0257250e-02
2.2133922e-01
4.4421390e-01
7.0171015e-01
8.6652489e-01
7.8240932e-01
4.2065069e-01
-6.1747075e-02
-4.4395287e-01
-6.1109178e-01
-5.8577402e-01
-4.4938653e-01
-2.8515571e-01
-1.4711829e-01
-5.0486874e-02
3.5946789e-03
1.3654694e-02
-1.9726174e-02
-8.9903750e-02
-1.6625849e-01
-1.9426136e-01
-1.3279898e-01
3.7872822e-02
3.1947210e-01
6.5457140e-01
8.9704810e-01
8.7651622e-01
5.5214314e-01
8.1013651e-02
-3.1874615e-01
-5.3975310e-01
-5.9658232e-01
-5.5221513e-01
-4.7358699e-01
-4.0252729e-01
-3.5464664e-01
-3.2235228e-01
-2.7742024e-01
-2.0193638e-01
-9.3471346e-02
5.5369305e-02
2.6246476e-01
5.4433447e-01
8.6171588e-01
1.0699271e+00
9.9351075e-01
5.8767352e-01
1.4506474e-02
-4.7706280e-01
-7.4207630e-01
-7.7882678e-01
-6.5268607e-01
-4.4321896e-01
-2.1924361e-01
-2.6419780e-02
1.1620329e-01
2.2050229e-01
3.0537297e-01
3.6359022e-01
3.5800444e-01
2.3941934e-01
2.2909833e-03
-2.7755341e-01
-4.9504083e-01
-5.8157393e-01
-5.2786557e-01
-3.7528025e-01
-1.7374692e-01
5.5190422e-02
3.1192696e-01
5.6976819e-01
7.2654968e-01
6.5393750e-01
3.5017047e-01
-1.3813603e-02
-2.5492157e-01
-3.1273776e-01
-2.1267759e-01
8.0831252e-03
2.7968751e-01
4.5894526e-01
4.1045769e-01
1.4592717e-01
-1.7106742e-01
-3.8134600e-01
-4.3719802e-01
-3.6199633e-01
-2.0744648e-01
-5.8709077e-02
1.4358811e-03
-5.0930590e-02
-1.7571089e-01
-2.9699760e-01
-3.5462935e-01
-3.3882306e-01
-2.6881720e-01
-1.6539706e-01
-3.5888537e-02
1.3462413e-01
3.7249342e-01
6.7782015e-01
9.6698179e-01
1.0730859e+00
8.6916394e-01
4.0287162e-01
-1.2343741e-01
-5.1174135e-01
-6.8190657e-01
-6.6545586e-01
-5.4366917e-01
-3.9081593e-01
-2.5866408e-01
-1.7505212e-01
-1.4365106e-01
-1.5437955e-01
-1.8918833e-01
-2.2290297e-01
-2.2866691e-01
-1.8609381e-01
-7.7072750e-02
1.1826508e-01
3.9179498e-01
6.7991238e-01
8.8174959e-01
9.1163765e-01
7.5030642e-01
4.4196266e-01
6.3933973e-02
-2.9220876e-01
-5.5268961e-01
-6.8197374e-01
-6.7785582e-01
-5.6915446e-01
-3.9630299e-01
-1.8610815e-01
4.2563826e-02
2.6781960e-01
4.5653154e-01
5.4813344e-01
4.7916713e-01
2.4661558e-01
-7.1975978e-02
-3.6154073e-01
-5.3820184e-01
-5.9405316e-01
-5.6542491e-01
-4.7784866e-01
-3.4615259e-01
-1.7873167e-01
3.1702603e-02
3.0072971e-01
6.2209577e-01
9.1817126e-01
1.0509978e+00
9.1889359e-01
5.4391196e-01
7.1009861e-02
-3.2684280e-01
-5.5090751e-01
-5.9634338e-01
-5.1902148e-01
-3.9650447e-01
-2.8720796e-01
-2.1860907e-01
-1.9831478e-01
-2.1634400e-01
-2.4684886e-01
-2.6088770e-01
-2.3608227e-01
-1.5615436e-01
-1.1803891e-02
2.1027570e-01
5.1912364e-01
8.5541606e-01
1.0639150e+00
9.8103949e-01
5.8580500e-01
5.7099407e-02
-3.7480829e-01
-5.9701522e-01
-6.1884800e-01
-5.0228821e-01
-3.1106253e-01
-1.0041561e-01
7.4193238e-02
1.6675463e-01
1.6033589e-01
7.5136279e-02
-4.4156924e-02
-1.4709278e-01
-1.9695729e-01
-1.8794720e-01
-1.3917479e-01
-7.3708248e-02
-9.6091982e-03
3.5071673e-02
4.1147180e-02
4.0127228e-03
-5.2557174e-02
-9.2119530e-02
-9.0992398e-02
-4.3958469e-02
3.7433088e-02
1.3210198e-01
2.1767133e-01
2.6125071e-01
2.2592291e-01
1.0456197e-01
-5.9086711e-02
-1.9340856e-01
-2.5309228e-01
-2.3946485e-01
-1.7871793e-01
-9.2088541e-02
1.9836186e-02
1.5245154e-01
2.6047709e-01
2.7697004e-01
1.8115973e-01
3.2459321e-02
-8.0257612e-02
-1.1521293e-01
-8.5872366e-02
-4.4996547e-02
-6.2816466e-02
-1.5172288e-01
-2.4653803e-01
-2.7995950e-01
-2.2922392e-01
-9.8077870e-02
1.1933728e-01
4.2493101e-01
7.3724889e-01
8.7935038e-01
7.0904827e-01
2.6343694e-01
-2.5127579e-01
-6.3086855e-01
-7.9991139e-01
-7.8301028e-01
-6.3838348e-01
-4.2368269e-01
-1.8214509e-01
6.5278173e-02
3.2816209e-01
6.0772457e-01
8.3439892e-01
8.8112251e-01
6.6924339e-01
2.7135386e-01
-1.3114662e-01
-3.9653303e-01
-4.9218399e-01
-4.5921143e-01
-3.5371946e-01
-2.2302863e-01
-1.0972322e-01
-4.0848641e-02
-2.0733558e-02
-4.0866251e-02
-8.5372513e-02
-1.3272706e-01
-1.5874426e-01
-1.5034803e-01
-1.2173648e-01
-9.2145965e-02
-5.8119263e-02
5.6317405e-04
1.1285158e-01
2.9929560e-01
5.3548984e-01
7.2022547e-01
7.0386418e-01
4.2525731e-01
2.1072951e-03
-3.7491119e-01
-5.8842651e-01
-6.2935952e-01
-5.4928131e-01
-4.0603691e-01
-2.4680953e-01
-9.6217232e-02
5.1867344e-02
2.1684260e-01
4.1069468e-01
5.9012543e-01
6.4214365e-01
4.9127673e-01
1.9134775e-01
-1.1249739e-01
-3.0039721e-01
-3.5054102e-01
-3.0958734e-01
-2.3914959e-01
-1.8052842e-01
-1.4448826e-01
-1.1856125e-01
-8.3598834e-02
-4.0183186e-02
-2.4619750e-03
2.3774977e-02
4.6922516e-02
8.6622945e-02
1.4516314e-01
1.7421329e-01
1.3967106e-01
8.9452295e-02
7.6612872e-02
1.0205928e-01
1.3822344e-01
1.4331734e-01
7.5825274e-02
-7.4584633e-02
-2.6499040e-01
-4.2317992e-01
-4.9806846e-01
-4.7735185e-01
-3.7362165e-01
-2.1688709e-01
-3.7566873e-02
1.5102967e-01
3.4222467e-01
5.1880476e-01
6.4573818e-01
6.7562042e-01
5.7160427e-01
3.3455124e-01
1.9777007e-02
-2.7658570e-01
-4.7540843e-01
-5.5380437e-01
-5.3114946e-01
-4.4610955e-01
-3.4197651e-01
-2.5575440e-01
-2.0077435e-01
-1.5407733e-01
-6.8301592e-02
9.8213197e-02
3.4877071e-01
6.2232775e-01
8.0038497e-01
7.8132277e-01
5.6423548e-01
2.4749334e-01
-5.4114806e-02
-2.7632016e-01
-4.0133016e-01
-4.3162722e-01
-3.8502119e-01
-2.9238961e-01
-1.8301579e-01
-7.7002139e-02
1.3761749e-02
8.4207420e-02
1.3182188e-01
1.5275465e-01
1.3745665e-01
7.7691208e-02
-1.1614158e-02
-9.4051311e-02
-1.3811475e-01
-1.3448163e-01
-9.4247843e-02
-3.8116640e-02
9.6669717e-03
3.2561000e-02
3.1281892e-02
1.7025096e-02
7.7834472e-04
-1.4129515e-02
-3.3574919e-02
-6.9430305e-02
-1.2852976e-01
-1.9867749e-01
-2.5443917e-01
-2.6694317e-01
-2.1336462e-01
-9.5364039e-02
8.0815264e-02
3.2781004e-01
6.2475315e-01
8.5504179e-01
8.4629212e-01
5.2992214e-01
5.7634948e-02
-3.3765902e-01
-5.5077753e-01
-6.0029557e-01
-5.4043289e-01
-4.2833531e-01
-3.1708370e-01
-2.4089057e-01
-1.9520099e-01
-1.5221959e-01
-7.8611531e-02
6.7706104e-02
3.1561447e-01
6.3837429e-01
9.1746820e-01
9.8096192e-01
7.4667908e-01
3.0467069e-01
-1.6084703e-01
-4.9719249e-01
-6.5084774e-01
-6.5065041e-01
-5.5772051e-01
-4.3571502e-01
-3.2834627e-01
-2.4964960e-01
-1.9569263e-01
-1.6040579e-01
-1.3268737e-01
-9.5446255e-02
-3.1966582e-02
8.0254131e-02
2.5422587e-01
4.6960063e-01
6.7707772e-01
8.0891914e-01
7.8141745e-01
5.4321401e-01
1.4727607e-01
-2.6392207e-01
-5.5692057e-01
-6.8210381e-01
-6.6060822e-01
-5.3675089e-01
-3.5470502e-01
-1.5540241e-01
3.3734712e-02
2.1123424e-01
3.8408960e-01
5.3405097e-01
5.9379383e-01
4.8135170e-01
2.0464750e-01
-1.1117082e-01
-3.3548879e-01
-4.1951547e-01
-3.8366199e-01
-2.7943651e-01
-1.6536115e-01
-9.3228369e-02
-9.1660223e-02
-1.4797327e-01
-2.1749378e-01
-2.4869346e-01
-2.0530324e-01
-8.4942596e-02
1.0074196e-01
3.5267096e-01
6.4503276e-01
8.7413965e-01
8.9567079e-01
6.4558583e-01
2.2527682e-01
-1.7442147e-01
-4.2351850e-01
-5.0222905e-01
-4.6705002e-01
-3.9644823e-01
-3.4424375e-01
-3.3280706e-01
-3.4629126e-01
-3.3982133e-01
-2.8818860e-01
-1.9066789e-01
-5.0669645e-02
1.1630784e-01
2.9556645e-01
4.8231960e-01
6.4370047e-01
7.0624299e-01
6.0327708e-01
3.3583294e-01
-5.1320599e-03
-2.9442454e-01
-4.5376468e-01
-4.7208611e-01
-3.8409841e-01
-2.4790273e-01
-1.1948139e-01
-3.6707307e-02
-9.6964804e-03
-1.5615531e-02
-2.9224051e-02
-5.7781782e-02
-1.1051138e-01
-1.6212058e-01
-1.7364462e-01
-1.1590415e-01
2.5481070e-02
2.4688774e-01
5.0306627e-01
6.8112163e-01
6.5536613e-01
3.9623521e-01
7.5361783e-03
-3.4829660e-01
-5.6544179e-01
-6.2910868e-01
-5.7089328e-01
-4.3794713e-01
-2.7398564e-01
-1.0516497e-01
6.6542759e-02
2.7028586e-01
5.3176276e-01
7.9419065e-01
8.8515036e-01
6.3982782e-01
1.1239099e-01
-4.2972119e-01
-7.5803954e-01
-8.2011860e-01
-6.7011882e-01
-3.9263388e-01
-6.8054153e-02
2.4706563e-01
5.1044241e-01
6.8115683e-01
7.2159665e-01
6.0894286e-01
3.5723066e-01
3.4342252e-02
-2.5586320e-01
-4.3078740e-01
-4.7057576e-01
-4.0367625e-01
-2.8072326e-01
-1.5894292e-01
-7.8099495e-02
-4.5631252e-02
-4.7064166e-02
-6.5530099e-02
-9.0942820e-02
-1.1620265e-01
-1.3510822e-01
-1.4951485e-01
-1.6176778e-01
-1.6331644e-01
-1.4299290e-01
-8.8458328e-02
1.6487621e-02
1.9084660e-01
4.5055552e-01
7.5684959e-01
9.6884141e-01
9.1334451e-01
5.3124713e-01
-4.0469665e-02
-5.5607473e-01
-8.4923145e-01
-9.0047543e-01
-7.6792125e-01
-5.2518179e-01
-2.4142351e-01
3.1239284e-02
2.7151955e-01
4.8042213e-01
6.4707382e-01
7.1288445e-01
5.9888991e-01
3.0678004e-01
-4.0827137e-02
-2.9732526e-01
-3.9917598e-01
-3.6322421e-01
-2.3726076e-01
-8.7874308e-02
1.2708028e-02
3.2726817e-02
-4.1606016e-03
-5.5803386e-02
-9.3736525e-02
-1.1276726e-01
-1.2347906e-01
-1.3785362e-01
-1.6702218e-01
-2.1289212e-01
-2.5401800e-01
-2.6723928e-01
-2.4750421e-01
-1.9141507e-01
-8.7951257e-02
8.0936700e-02
3.1952348e-01
5.7741098e-01
7.4696420e-01
7.3906811e-01
5.6638515e-01
3.1998254e-01
9.0609976e-02
-6.4925649e-02
-1.3116120e-01
-1.3989593e-01
-1.4227637e-01
-1.6834029e-01
-2.1486887e-01
-2.5563055e-01
-2.6721360e-01
-2.4466809e-01
-1.9962289e-01
-1.5814309e-01
-1.4176277e-01
-1.4644921e-01
-1.4776022e-01
-1.1624194e-01
-3.8351432e-02
8.0251794e-02
2.2732118e-01
3.7593167e-01
4.7372884e-01
4.6151420e-01
3.1690447e-01
9.1831190e-02
-1.1494192e-01
-2.3597495e-01
-2.6441681e-01
-2.3619846e-01
-2.0156500e-01
-1.9378286e-01
-2.2888100e-01
-2.8673937e-01
-3.1012381e-01
-2.7423778e-01
-1.9355400e-01
-7.5860224e-02
9.3898221e-02
3.2806548e-01
5.8634982e-01
7.5958104e-01
7.1606389e-01
4.1475886e-01
-2.7724194e-02
-4.2191895e-01
-6.3970451e-01
-6.6105059e-01
-5.3404339e-01
-3.1168030e-01
-2.3296177e-02
3.0642000e-01
6.2477778e-01
8.3300714e-01
8.2812321e-01
5.9756115e-01
2.4177342e-01
-1.0784078e-01
-3.6161773e-01
-4.8968263e-01
-5.1435960e-01
-4.8126456e-01
-4.2531213e-01
-3.6538401e-01
-3.1022448e-01
-2.6012944e-01
-2.1184828e-01
-1.6014751e-01
-9.7157979e-02
-1.1697032e-02
1.0696467e-01
2.6669892e-01
4.6358475e-01
6.5434181e-01
7.5325059e-01
6.8385012e-01
4.4215324e-01
1.0858124e-01
-2.0566675e-01
-4.2015324e-01
-5.0975453e-01
-4.9842897e-01
-4.2808437e-01
-3.3423921e-01
-2.4504870e-01
-1.7804781e-01
-1.4025211e-01
-1.2515657e-01
-1.0374505e-01
-4.0460365e-02
8.5458158e-02
2.7754849e-01
5.1907668e-01
7.4709143e-01
8.4753225e-01
7.2755621e-01
4.0183414e-01
-2.4598780e-03
-3.3261710e-01
-5.0597809e-01
-5.2706840e-01
-4.4583274e-01
-3.2182669e-01
-2.0707490e-01
-1.3061756e-01
-9.3501222e-02
-8.3092152e-02
-8.5594956e-02
-9.4293338e-02
-1.1093052e-01
-1.4244076e-01
-1.9505559e-01
-2.5108497e-01
-2.7205571e-01
-2.3117535e-01
-1.1576128e-01
8.8171345e-02
3.9330987e-01
7.6830550e-01
1.0739904e+00
1.1140129e+00
8.0856464e-01
2.8456759e-01
-2.2479982e-01
-5.5559134e-01
-6.7683995e-01
-6.4064448e-01
-5.2259948e-01
-3.8625778e-01
-2.7549797e-01
-2.1134487e-01
-1.8940455e-01
-1.8533740e-01
-1.6618430e-01
-1.0234589e-01
2.5477321e-02
2.1171708e-01
4.1040938e-01
5.5473600e-01
6.0815550e-01
5.8418953e-01
5.0729962e-01
3.7887322e-01
1.9503808e-01
-2.8618905e-02
-2.4811085e-01
-4.0113383e-01
-4.4944905e-01
-4.0597978e-01
-3.0932678e-01
-1.9451689e-01
-9.1031140e-02
-2.1510521e-02
5.0547090e-03
-3.3989934e-03
-2.6439920e-02
-4.5316123e-02
-5.1943258e-02
-4.4137693e-02
-2.6943986e-02
-1.6276051e-02
-2.3865639e-02
-4.6191556e-02
-7.0953284e-02
-8.1961353e-02
-6.4729425e-02
-1.3937769e-02
6.4761631e-02
1.5758823e-01
2.4154178e-01
2.7949593e-01
2.3052859e-01
8.2598453e-02
-1.1771936e-01
-2.8806796e-01
-3.6925288e-01
-3.4683707e-01
-2.4271201e-01
-9.8254094e-02
6.3905490e-02
2.5139552e-01
4.6714108e-01
6.7100493e-01
7.6077552e-01
6.2854028e-01
2.8242699e-01
-1.2684541e-01
-4.2826563e-01
-5.5030684e-01
-5.3002388e-01
-4.4450236e-01
-3.4785374e-01
-2.6741985e-01
-2.1318533e-01
-1.7331167e-01
-1.3525735e-01
-1.0037861e-01
-6.0534142e-02
1.2980169e-02
1.5065778e-01
3.5841514e-01
5.8012537e-01
6.8765343e-01
5.5834101e-01
1.9565579e-01
-2.3764073e-01
-5.4751881e-01
-6.5144263e-01
-5.7335686e-01
-3.7740005e-01
-1.2413121e-01
1.6645725e-01
5.0501967e-01
8.3692633e-01
9.9062661e-01
8.0677208e-01
3.1759402e-01
-2.3941761e-01
-6.2431927e-01
-7.6426524e-01
-7.1531919e-01
-5.6982239e-01
-3.9501375e-01
-2.1975679e-01
-6.5238567e-02
4.7310251e-02
1.0701202e-01
1.2803085e-01
1.5310937e-01
2.2178141e-01
3.4697884e-01
4.9719884e-01
5.8395846e-01
5.1472332e-01
2.8129840e-01
-2.4838908e-02
-2.8401172e-01
-4.1873478e-01
-4.1564641e-01
-3.1143648e-01
-1.7103124e-01
-5.9992749e-02
-1.6145415e-02
-4.4171708e-02
-1.2380528e-01
-2.1693979e-01
-2.8236696e-01
-2.9557614e-01
-2.4959753e-01
-1.4250130e-01
1.8298539e-02
2.2303940e-01
4.6892339e-01
7.1239375e-01
8.3351819e-01
7.1062176e-01
3.3690310e-01
-1.4625750e-01
-5.4595412e-01
-7.5175699e-01
-7.6045878e-01
-6.2826229e-01
-4.3289149e-01
-2.3507827e-01
-5.0378878e-02
1.4622870e-01
3.8862927e-01
6.7001188e-01
8.9351354e-01
9.0388871e-01
6.1808177e-01
1.1844903e-01
-3.8783114e-01
-7.0841117e-01
-7.7855593e-01
-6.4972610e-01
-4.1223906e-01
-1.3528348e-01
1.5697799e-01
4.5171024e-01
6.7790901e-01
7.1057120e-01
4.7698879e-01
4.8304493e-02
-3.8945651e-01
-6.7375916e-01
-7.5586943e-01
-6.7078358e-01
-4.8320980e-01
-2.5015826e-01
-6.9098313e-03
2.3377139e-01
4.8650450e-01
7.4265125e-01
9.0720438e-01
8.4378482e-01
4.9568045e-01
-2.7128678e-02
-5.0715525e-01
-7.8242815e-01
-8.1612641e-01
-6.5770451e-01
-3.9221010e-01
-9.8097666e-02
1.7964887e-01
4.2313213e-01
5.9703323e-01
6.2351136e-01
4.3363335e-01
6.6786225e-02
-3.1389660e-01
-5.5148781e-01
-5.9358460e-01
-4.6936534e-01
-2.4193886e-01
3.1382467e-02
3.1728646e-01
5.7493213e-01
7.2451942e-01
6.7823538e-01
4.1963112e-01
5.5920367e-02
-2.5031823e-01
-4.0813740e-01
-4.2470689e-01
-3.5259593e-01
-2.4532479e-01
-1.4795295e-01
-1.0003320e-01
-1.1350751e-01
-1.6367799e-01
-2.1253278e-01
-2.2721750e-01
-1.8667360e-01
-8.8106821e-02
6.0694414e-02
2.5233959e-01
4.5876199e-01
6.1441837e-01
6.4891561e-01
5.3188080e-01
2.9295002e-01
1.3908048e-02
-2.1613876e-01
-3.4759111e-01
-3.7758155e-01
-3.3084592e-01
-2.4351850e-01
-1.5310544e-01
-8.4344062e-02
-4.7677294e-02
-4.2579027e-02
-5.9379981e-02
