6.1069373e-02
1.9178527e-01
3.1382478e-01
3.8813365e-01
3.3705594e-01
1.7199023e-01
5.1291354e-02
8.0687708e-02
1.9308068e-01
2.3105338e-01
1.8658028e-01
2.1261037e-01
3.5257954e-01
4.8883511e-01
4.8218943e-01
2.9878867e-01
5.3874938e-02
-8.6244384e-02
-1.0127799e-01
-1.3587358e-01
-2.4305017e-01
-3.1489325e-01
-2.8360248e-01
-1.5864015e-01
2.7621117e-03
1.0323343e-01
1.2590892e-01
1.2337462e-01
7.2268428e-02
-5.5647216e-02
-1.8512076e-01
-2.5105297e-01
-2.5661773e-01
-2.2025024e-01
-1.6500811e-01
-9.8351189e-02
9.8305434e-03
1.8457342e-01
3.5358430e-01
3.5741228e-01
1.8903579e-01
1.7977318e-02
-6.7870270e-02
-8.5171321e-02
-8.6932260e-02
-1.0604890e-01
-1.0387614e-01
-5.1596762e-02
2.1016251e-02
2.4705919e-02
-6.9227105e-02
-1.5643214e-01
-1.7477951e-01
-1.4813776e-01
-9.7448454e-02
-1.2608354e-02
1.2787236e-01
2.9952337e-01
4.0683122e-01
3.1854560e-01
4.9921653e-02
-2.1240290e-01
-3.6415152e-01
-4.1188843e-01
-3.6244818e-01
-2.1370964e-01
2.5518503e-02
3.0759712e-01
5.1526039e-01
5.0706594e-01
2.9914525e-01
4.6140289e-02
-1.7511714e-01
-3.5357724e-01
-4.4790242e-01
-4.1936968e-01
-2.6185705e-01
-2.6779551e-02
1.4156401e-01
1.0655829e-01
-6.4164605e-02
-1.7174823e-01
-1.2206005e-01
3.8831583e-02
2.0164039e-01
3.3058841e-01
4.7200722e-01
6.0072845e-01
6.3258774e-01
5.2426970e-01
3.1022886e-01
7.7482767e-02
-1.2691952e-01
-3.1308636e-01
-4.6027634e-01
-5.0772276e-01
-4.3318328e-01
-2.5882862e-01
-5.5992798e-02
3.8702863e-02
-1.8257281e-03
-4.3751273e-02
-1.3345876e-02
5.6805915e-02
8.8806889e-02
5.2447031e-02
3.3672291e-02
1.0218418e-01
1.9837997e-01
1.7791828e-01
1.9909310e-02
-1.4539784e-01
-2.5199526e-01
-3.1681372e-01
-3.5155840e-01
-3.4496382e-01
-2.7209640e-01
-1.2999544e-01
2.5241862e-02
1.0810072e-01
1.2943931e-01
1.9879810e-01
3.5353559e-01
4.8921860e-01
4.7423999e-01
3.3249391e-01
1.7442308e-01
2.7452084e-02
-9.5658411e-02
-1.8002855e-01
-2.3771807e-01
-2.7772381e-01
-3.0070044e-01
-2.9965222e-01
-2.5942269e-01
-1.4985678e-01
4.7840031e-02
2.9289439e-01
4.6422176e-01
4.4085434e-01
2.5413520e-01
4.6194608e-02
-1.1263632e-01
-2.1999524e-01
-2.6677566e-01
-2.3946369e-01
-1.3510760e-01
2.0026315e-02
1.4151330e-01
1.5947497e-01
1.0768028e-01
4.3634169e-02
-1.5140355e-02
-7.9196746e-02
-1.5041768e-01
-2.0101408e-01
-2.1299794e-01
-1.8937784e-01
-1.5363179e-01
-1.3613138e-01
-1.3047364e-01
-1.0098337e-01
-3.3362467e-02
5.8933931e-02
1.5501773e-01
2.4367739e-01
3.2700929e-01
3.6251365e-01
2.8125239e-01
7.5695467e-02
-1.7102419e-01
-3.4040949e-01
-4.0282851e-01
-3.9364705e-01
-3.0463161e-01
-9.2639732e-02
2.2809955e-01
5.2950272e-01
6.9067374e-01
6.8574952e-01
5.3368149e-01
2.9115420e-01
2.9653318e-02
-2.0030286e-01
-3.5868412e-01
-4.0947979e-01
-3.4838571e-01
-2.0805303e-01
-7.8479277e-02
-8.2165105e-02
-2.0454533e-01
-3.1258019e-01
-3.3979956e-01
-2.8281839e-01
-1.4513813e-01
5.1125747e-02
2.7077843e-01
4.4780788e-01
4.8310211e-01
3.6485001e-01
2.0329999e-01
6.8808627e-02
-5.5724732e-02
-1.9003250e-01
-3.0675522e-01
-3.4394423e-01
-2.6770722e-01
-1.0084936e-01
5.2640793e-02
7.6672720e-02
1.4598986e-02
4.5337755e-03
9.8108737e-02
2.4130673e-01
3.4385086e-01
3.7430035e-01
3.5420121e-01
2.7446883e-01
1.0687739e-01
-1.1965265e-01
-3.2098970e-01
-4.3910493e-01
-4.7629744e-01
-4.5584463e-01
-3.8961231e-01
-2.7843431e-01
-1.2508503e-01
3.1207661e-02
1.6464614e-01
2.4415514e-01
2.2732687e-01
1.7827026e-01
1.2847336e-01
3.2561888e-02
-6.6489987e-02
-6.6178869e-02
8.0079147e-02
3.1126589e-01
4.8471570e-01
4.8861448e-01
3.5346729e-01
1.6257282e-01
-5.0954387e-02
-2.5013164e-01
-3.8278244e-01
-4.0903393e-01
-3.2049120e-01
-1.5023462e-01
-1.2921624e-02
-4.9096046e-02
-2.1880116e-01
-3.5906613e-01
-4.0044350e-01
-3.5446187e-01
-2.3716615e-01
-5.0168401e-02
2.1994671e-01
5.2406687e-01
7.3769571e-01
7.8528165e-01
6.8598208e-01
4.7620476e-01
1.8323218e-01
-1.3668781e-01
-4.0706939e-01
-5.6584603e-01
-5.9642365e-01
-5.1899564e-01
-3.8833136e-01
-2.7492561e-01
-1.7738513e-01
-4.7290330e-02
1.0595149e-01
2.2194761e-01
3.0132695e-01
4.1395982e-01
5.7815959e-01
6.9876581e-01
6.3298101e-01
3.4830990e-01
-2.7394637e-02
-3.4628114e-01
-5.6267424e-01
-6.8617817e-01
-7.2303731e-01
-6.8150168e-01
-5.6406200e-01
-3.7326664e-01
-1.5067385e-01
6.6027531e-02
3.0932414e-01
5.8025193e-01
7.9277371e-01
8.4910685e-01
7.0820539e-01
4.4060634e-01
1.9523372e-01
2.9450705e-02
-1.3615935e-01
-3.2655222e-01
-4.7574593e-01
-5.5334692e-01
-5.6560556e-01
-5.1738453e-01
-4.1252466e-01
-2.4424419e-01
1.6865657e-04
2.8596357e-01
4.9419386e-01
5.1128512e-01
3.7250218e-01
2.2166516e-01
1.3110959e-01
6.4694279e-02
-1.2688122e-02
-7.0043349e-02
-6.6480604e-02
-1.7999126e-02
-1.5059638e-02
-1.2227151e-01
-2.7035979e-01
-3.7285789e-01
-4.1383071e-01
-3.8742692e-01
-2.7746656e-01
-9.3208067e-02
1.1759803e-01
3.1023764e-01
4.7867844e-01
5.7198665e-01
5.2969770e-01
4.1518529e-01
2.8037014e-01
1.0554551e-01
-8.2138043e-02
-2.1540098e-01
-2.6164889e-01
-2.3627938e-01
-2.0873794e-01
-2.4593451e-01
-3.1258515e-01
-3.4681678e-01
-3.3985915e-01
-3.0557850e-01
-2.6947729e-01
-2.3078320e-01
-1.4138979e-01
1.8394996e-02
2.0345561e-01
3.4423593e-01
4.4043256e-01
5.5306304e-01
6.4270256e-01
5.8163103e-01
3.0982464e-01
-6.4163912e-02
-3.4532851e-01
-4.6512402e-01
-4.9059605e-01
-4.7532804e-01
-3.9686910e-01
-2.2626338e-01
-3.9663743e-03
1.6545647e-01
2.0471625e-01
1.7695726e-01
2.2710654e-01
3.6412372e-01
4.4756078e-01
3.8033069e-01
1.8714661e-01
-3.3944393e-02
-2.0115474e-01
-2.9498096e-01
-3.0244432e-01
-1.8679454e-01
4.0268264e-02
2.8758046e-01
4.0974979e-01
2.9490163e-01
1.9080492e-02
-2.2978549e-01
-3.6941940e-01
-4.0524496e-01
-3.4389174e-01
-2.0235497e-01
-1.0481372e-02
2.1797804e-01
4.1258719e-01
4.2163397e-01
2.5547342e-01
8.2075406e-02
-3.4174016e-02
-1.2039528e-01
-2.0424894e-01
-2.8406806e-01
-3.1950179e-01
-2.8858151e-01
-2.1869927e-01
-1.9301369e-01
-2.3796166e-01
-2.5924010e-01
-1.9481596e-01
-5.7272577e-02
1.0484439e-01
2.5038733e-01
4.1035804e-01
5.7951885e-01
6.5056437e-01
5.4292297e-01
3.1256167e-01
8.6522510e-02
-8.3029450e-02
-2.1164251e-01
-3.1178011e-01
-3.5896881e-01
-3.1288464e-01
-1.7071288e-01
-2.0473371e-02
-2.8621513e-02
-2.1012832e-01
-3.9862965e-01
-4.9467033e-01
-4.8284212e-01
-3.6139459e-01
-1.3663135e-01
1.8302807e-01
5.3003619e-01
7.8726543e-01
8.8542376e-01
8.4701700e-01
7.1732061e-01
4.7928898e-01
1.2788516e-01
-2.3732047e-01
-4.9632947e-01
-6.0447116e-01
-5.7287441e-01
-4.3906323e-01
-3.1278017e-01
-2.6736616e-01
-2.2360557e-01
-1.2395214e-01
-1.0405885e-02
4.1429452e-02
3.2969361e-02
6.5457562e-02
1.8291150e-01
3.3267509e-01
4.0388357e-01
3.6171581e-01
2.8548472e-01
1.9645919e-01
6.6914061e-02
-8.8417560e-02
-2.0908218e-01
-2.2837063e-01
-1.2503224e-01
3.1429467e-02
8.2018383e-02
-3.2076529e-02
-1.9959286e-01
-3.3137619e-01
-4.1343106e-01
-4.3955766e-01
-3.9528528e-01
-2.6153002e-01
-2.3951569e-02
2.6157542e-01
4.3949235e-01
4.6179708e-01
4.5832163e-01
4.7324245e-01
4.0119932e-01
1.9431612e-01
-4.4865513e-02
-1.9175087e-01
-2.1378105e-01
-1.3260005e-01
-6.3036493e-02
-1.2858526e-01
-2.6447234e-01
-3.6224465e-01
-3.9013394e-01
-3.2532376e-01
-1.5444967e-01
1.0756689e-01
4.0081572e-01
6.0483869e-01
5.8993189e-01
3.9509556e-01
1.9274198e-01
4.3530122e-02
-7.9656686e-02
-1.9735738e-01
-3.0335867e-01
-3.5493443e-01
-3.3065859e-01
-2.4944241e-01
-2.1292976e-01
-2.8537889e-01
-3.5668555e-01
-3.3238736e-01
-2.1435006e-01
-5.7728012e-02
9.3712732e-02
2.8251955e-01
5.1594474e-01
6.9604125e-01
7.1500039e-01
5.9376636e-01
4.4542600e-01
2.9132204e-01
8.6406145e-02
-1.5455116e-01
-3.5750927e-01
-4.5822341e-01
-4.4390537e-01
-3.4247297e-01
-2.6025674e-01
-2.7481144e-01
-3.1598601e-01
-3.2083716e-01
-2.8362000e-01
-2.0797468e-01
-9.2633105e-02
9.5925269e-02
3.5224350e-01
5.6074213e-01
5.9162112e-01
4.8341925e-01
3.9533225e-01
3.8528668e-01
3.6702183e-01
2.2640726e-01
-1.9256567e-02
-2.4051716e-01
-3.7522719e-01
-4.3598331e-01
-4.6473351e-01
-4.9623260e-01
-5.0697743e-01
-4.7157716e-01
-3.9078837e-01
-3.0048414e-01
-2.2585157e-01
-1.0048966e-01
1.2044352e-01
3.6154456e-01
4.9244489e-01
5.1518491e-01
5.6826902e-01
6.6056242e-01
6.5980672e-01
4.7732381e-01
1.7656044e-01
-7.2729596e-02
-1.7159391e-01
-1.4631607e-01
-1.4925036e-01
-2.7327107e-01
-4.0332552e-01
-4.5260219e-01
-4.3158242e-01
-3.5372844e-01
-2.2704153e-01
-4.5810547e-02
1.7757098e-01
3.7457849e-01
4.1912002e-01
2.8119593e-01
9.0814493e-02
-5.8902955e-02
-1.7315350e-01
-2.6237004e-01
-3.0288781e-01
-2.7062451e-01
-1.5802981e-01
-2.2245085e-02
2.8958457e-02
1.9484507e-02
7.0475357e-02
2.1595519e-01
3.8696254e-01
4.5989915e-01
3.2502802e-01
2.7502344e-02
-2.5562365e-01
-4.1232813e-01
-4.1734694e-01
-3.1509716e-01
-1.9118112e-01
-6.5577673e-02
6.0980223e-02
1.4464429e-01
1.5574529e-01
1.3604389e-01
1.6156653e-01
2.4542623e-01
3.2599843e-01
3.4940037e-01
3.0324909e-01
1.9203687e-01
2.4110398e-02
-1.6137809e-01
-2.9202932e-01
-3.2224295e-01
-2.4581761e-01
-9.4558181e-02
4.0011154e-02
9.3527354e-02
9.3364332e-02
7.0795905e-02
2.0761145e-02
-5.8841947e-02
-1.4143143e-01
-1.8903170e-01
-1.8759512e-01
-1.5885563e-01
-1.8330989e-01
-3.0626352e-01
-4.4171179e-01
-5.0218972e-01
-4.6166224e-01
-3.0067522e-01
-4.3032724e-02
2.5241499e-01
5.3800517e-01
7.4600048e-01
8.2563580e-01
8.1544277e-01
7.8172456e-01
7.0801982e-01
5.2128168e-01
1.8926440e-01
-2.1131419e-01
-5.3287784e-01
-7.0233683e-01
-7.3622527e-01
-6.6446904e-01
-5.1348868e-01
-3.0406738e-01
-6.2808763e-02
1.4601812e-01
2.1843355e-01
1.1952121e-01
-3.0227895e-02
-9.2341550e-02
-2.5313193e-02
1.4333053e-01
3.2752480e-01
4.3128295e-01
4.1290165e-01
2.7326343e-01
6.0279021e-02
-1.3329802e-01
-2.3875036e-01
-2.4120218e-01
-1.7056474e-01
-1.2338848e-01
-1.5319489e-01
-1.7845466e-01
-1.4174302e-01
-7.0719675e-02
-3.8320704e-02
-7.5876917e-02
-9.4069610e-02
-1.8335322e-02
1.1439515e-01
1.9992911e-01
2.2019634e-01
2.6164252e-01
3.3789128e-01
3.7042139e-01
2.6705774e-01
4.3867833e-02
-1.6687917e-01
-2.9205773e-01
-3.3999950e-01
-3.5386529e-01
-3.7690980e-01
-3.9569565e-01
-3.7727147e-01
-3.1034773e-01
-1.9626448e-01
-3.1835495e-02
1.8855778e-01
4.4455675e-01
6.3739572e-01
6.2753254e-01
4.4724838e-01
2.7067904e-01
1.6025364e-01
6.5563439e-02
-7.7579105e-02
-2.6349464e-01
-4.0348650e-01
-4.5082130e-01
-4.2890900e-01
-4.0253357e-01
-3.9324938e-01
-3.2372323e-01
-1.5166842e-01
7.2272915e-02
2.6112909e-01
3.7972230e-01
4.6798873e-01
5.4031392e-01
5.5108831e-01
4.4278584e-01
2.5887177e-01
1.1579724e-01
2.5569686e-02
-7.1043945e-02
-1.9316630e-01
-2.9009055e-01
-2.9781197e-01
-2.1202923e-01
-8.5367007e-02
-3.6674801e-02
-1.0697728e-01
-1.8353619e-01
-1.9758947e-01
-1.5702571e-01
-9.3843091e-02
-3.5291048e-02
5.5877976e-02
2.1307740e-01
3.6620101e-01
3.6787365e-01
2.0927203e-01
4.3526530e-02
-5.2924172e-02
-1.0532549e-01
-1.5392163e-01
-2.1491948e-01
-2.7245068e-01
-3.1201551e-01
-3.2073793e-01
-2.9074347e-01
-2.1865285e-01
-1.0016247e-01
4.8990431e-02
1.8427882e-01
2.7461338e-01
3.3254335e-01
3.8155444e-01
4.0870927e-01
3.5707753e-01
2.2380979e-01
9.0955108e-02
1.7274378e-02
-4.7184061e-03
-2.8299455e-02
-9.1668333e-02
-1.6093985e-01
-1.9363459e-01
-1.9395971e-01
-1.8292365e-01
-1.8424393e-01
-2.0648062e-01
-2.3405818e-01
-2.5502545e-01
-2.6200051e-01
-2.3898534e-01
-1.5840683e-01
5.9470335e-03
2.5749856e-01
5.1980605e-01
6.4493428e-01
5.9679639e-01
4.4929401e-01
2.3158577e-01
-3.6310173e-02
-3.0277936e-01
-5.1117506e-01
-6.2654238e-01
-6.4564772e-01
-5.7828173e-01
-4.3611466e-01
-2.0568110e-01
1.2916815e-01
5.1897396e-01
8.3904822e-01
9.6019610e-01
8.4733032e-01
5.8488241e-01
2.7641240e-01
-2.4881705e-02
-2.6433343e-01
-4.0405957e-01
-4.5839182e-01
-4.5458468e-01
-4.1358223e-01
-3.4681210e-01
-2.5941875e-01
-1.5732799e-01
-5.5041670e-02
-7.2512108e-03
-5.5232247e-02
-1.3598242e-01
-1.7203069e-01
-1.4582646e-01
-6.6565444e-02
4.1787745e-02
1.7986530e-01
3.6474400e-01
5.4196146e-01
5.9621926e-01
4.6123943e-01
1.9515880e-01
-7.5597450e-02
-2.9062882e-01
-4.3967701e-01
-4.9038048e-01
-4.1442227e-01
-2.1385565e-01
3.5658842e-02
1.8881414e-01
1.6393095e-01
3.6042608e-02
-4.9430287e-02
-2.7677326e-02
8.4068842e-02
2.4235034e-01
4.0139656e-01
5.0106663e-01
4.5050316e-01
2.4064366e-01
-1.9420248e-02
-2.2574283e-01
-3.4718568e-01
-3.9697804e-01
-3.8916202e-01
-3.2387977e-01
-1.9304796e-01
5.4934498e-03
2.0795376e-01
2.8350038e-01
2.0853294e-01
7.3271577e-02
-6.3959403e-02
-1.5828697e-01
-1.7819268e-01
-1.2662758e-01
-2.4470117e-02
1.0418214e-01
2.0130553e-01
1.7175366e-01
4.1163107e-02
-1.0247840e-01
-2.4992535e-01
-3.7871859e-01
-4.4610196e-01
-4.2848049e-01
-3.0455318e-01
-8.6479526e-02
1.2250169e-01
2.1238962e-01
2.5649526e-01
3.6809975e-01
4.6833019e-01
4.5194485e-01
3.2507767e-01
1.7153638e-01
1.1656490e-01
1.7900935e-01
2.2727798e-01
1.6141970e-01
4.9455310e-02
-1.4287000e-02
-7.6573779e-02
-2.0979563e-01
-3.7118671e-01
-4.7408358e-01
-4.9019842e-01
-4.2722938e-01
-2.9261792e-01
-1.1307519e-01
9.8042785e-02
3.2789233e-01
5.0125379e-01
5.6426182e-01
5.0075388e-01
3.2082249e-01
1.0286547e-01
-9.5780861e-02
-2.6039993e-01
-3.6199528e-01
-3.7702150e-01
-3.2668306e-01
-2.5600317e-01
-1.8183840e-01
-9.7373207e-02
2.9116956e-03
1.2589825e-01
2.2485385e-01
1.8947251e-01
2.6476568e-02
-1.2870411e-01
-2.2015944e-01
-2.6565821e-01
-2.4943149e-01
-1.5432070e-01
1.7864627e-02
2.4959189e-01
4.5243287e-01
4.9291498e-01
3.8507856e-01
3.0072767e-01
2.5399164e-01
1.0427976e-01
-1.4503356e-01
-3.7780800e-01
-5.2109980e-01
-5.5877077e-01
-5.0709102e-01
-3.7560799e-01
-1.4861315e-01
1.8890348e-01
5.3719480e-01
6.9341108e-01
5.9660772e-01
3.7090730e-01
1.7263983e-01
7.0623557e-02
2.5074631e-03
-9.6429640e-02
-2.0127639e-01
-2.6540584e-01
-2.8173723e-01
-2.7238884e-01
-2.3722025e-01
-1.5992783e-01
-3.5069904e-02
1.1601425e-01
1.9253563e-01
1.2803983e-01
9.2758416e-03
-7.6530426e-02
-1.2650328e-01
-1.5400854e-01
-1.5358499e-01
-1.0501653e-01
2.1556520e-03
1.5075136e-01
2.5808363e-01
2.3880073e-01
1.4039626e-01
7.0541422e-02
2.5482982e-02
-6.8779640e-02
-1.9707888e-01
-2.7551617e-01
-2.6685931e-01
-1.8304925e-01
-6.6412694e-02
4.1510352e-02
1.5785853e-01
3.1218571e-01
4.4183600e-01
4.3112509e-01
2.7894854e-01
9.2181228e-02
-5.6150297e-02
-1.6378944e-01
-2.4582348e-01
-2.8836644e-01
-2.8102840e-01
-2.3383644e-01
-1.6425028e-01
-1.0522898e-01
-6.1759350e-02
8.3704448e-04
1.0307929e-01
1.9441565e-01
2.1057076e-01
1.8629956e-01
1.3911290e-01
4.2463608e-02
-6.3089383e-02
-1.2605300e-01
-1.2780422e-01
-7.2714338e-02
1.6123629e-02
5.4603472e-02
-3.5261519e-02
-1.8783043e-01
-3.0526092e-01
-3.5652119e-01
-3.3016139e-01
-2.1879578e-01
-1.7059118e-02
2.7146054e-01
5.8550595e-01
7.8082240e-01
7.3461449e-01
4.8149639e-01
1.7705760e-01
-7.8148852e-02
-2.6712772e-01
-3.7481763e-01
-4.0025054e-01
-3.6369704e-01
-2.9245856e-01
-2.2357243e-01
-1.6718139e-01
-9.1626443e-02
1.9033064e-02
1.1976271e-01
1.7664203e-01
2.2375005e-01
2.7421276e-01
2.9190075e-01
2.3436155e-01
1.0108559e-01
-3.7538998e-02
-1.2748953e-01
-1.7239484e-01
-1.8944291e-01
-1.8448101e-01
-1.5129015e-01
-1.0540031e-01
-8.1535870e-02
-1.0528875e-01
-1.8881937e-01
-2.9556555e-01
-3.5285855e-01
-3.2045177e-01
-2.2628504e-01
-1.0398401e-01
8.0169501e-02
3.4405156e-01
6.1323148e-01
7.5510057e-01
6.7280261e-01
4.3357858e-01
2.1808718e-01
1.0401957e-01
1.6025114e-03
-1.4891069e-01
-2.6719112e-01
-3.0907926e-01
-2.9892652e-01
-2.8073631e-01
-2.8814526e-01
-2.6957676e-01
-1.7231288e-01
-2.1635904e-02
5.6428120e-02
4.0374625e-03
-4.2498834e-02
8.7021160e-03
1.3762972e-01
2.6091349e-01
2.6393835e-01
1.8725986e-01
1.7521209e-01
2.2066606e-01
1.8323646e-01
5.0603916e-02
-4.8652708e-02
-6.0350283e-02
-4.1672594e-02
-6.5269341e-02
-1.2480176e-01
-1.5033953e-01
-1.0463532e-01
-2.9064471e-03
6.9803109e-02
5.4762419e-02
1.9675235e-02
8.6454503e-03
-2.5967154e-03
-4.3062008e-02
-1.3369550e-01
-2.3864351e-01
-3.0590719e-01
-3.1700342e-01
-2.8206961e-01
-2.1916878e-01
-1.2818474e-01
-1.0780205e-02
1.0814822e-01
1.5807082e-01
1.1469843e-01
8.7046538e-02
1.5338070e-01
2.2997793e-01
1.9175857e-01
6.5308047e-02
-2.2968645e-02
-2.1534152e-02
2.0187630e-02
3.1492943e-02
4.5359179e-02
1.4446892e-01
3.1282804e-01
4.3443154e-01
4.2403195e-01
2.9000301e-01
6.3459170e-02
-1.9426308e-01
-3.9838463e-01
-4.9004374e-01
-4.4910389e-01
-3.0926472e-01
-1.6634131e-01
-1.3557841e-01
-2.2798790e-01
-3.2467711e-01
-3.1682241e-01
-1.8368211e-01
3.7047712e-02
2.7798874e-01
4.9485322e-01
6.7404591e-01
7.6374309e-01
7.1046220e-01
5.6076660e-01
3.6979367e-01
1.1867354e-01
-1.6994607e-01
-4.2769971e-01
-6.0959060e-01
-6.9157008e-01
-6.6676125e-01
-5.5059278e-01
-3.8086030e-01
-1.7343751e-01
5.7020995e-02
2.6200102e-01
3.9320788e-01
3.9854362e-01
2.9396767e-01
1.8659994e-01
1.1688310e-01
3.1936468e-02
-7.1796494e-02
-1.1426028e-01
-9.4677421e-02
-1.2034277e-01
-2.1575007e-01
-3.0312391e-01
-3.0912515e-01
-2.0984656e-01
-8.2081493e-02
-2.9501324e-02
-9.9247046e-03
1.2002233e-01
3.5687209e-01
5.3249437e-01
5.6645018e-01
5.1716185e-01
4.7237906e-01
4.4582752e-01
3.3903686e-01
9.5148465e-02
-1.9849775e-01
-4.2233960e-01
-5.4464911e-01
-5.9010403e-01
-5.7649032e-01
-5.0971913e-01
-4.0106246e-01
-2.6858264e-01
-1.4690217e-01
-6.0055885e-02
4.1730261e-02
2.2942776e-01
4.4646986e-01
5.4070991e-01
4.8295463e-01
3.7670512e-01
3.2088820e-01
3.0337110e-01
2.0659494e-01
1.0214988e-02
-1.7381418e-01
-2.7610858e-01
-3.0885618e-01
-3.0105743e-01
-2.6272001e-01
-1.9019327e-01
-9.1424685e-02
-3.4454967e-03
2.1388583e-02
-2.2554361e-02
-8.7949024e-02
-1.3801096e-01
-1.6801500e-01
-1.8363655e-01
-1.6893287e-01
-9.7667187e-02
2.3681184e-02
1.5498425e-01
2.2703556e-01
1.9750739e-01
1.0570083e-01
2.5683023e-02
-5.2346847e-02
-1.8998257e-01
-3.1783523e-01
-3.2801377e-01
-1.9616309e-01
3.4049350e-02
2.5600701e-01
4.0394077e-01
5.0292343e-01
5.9508106e-01
6.4091908e-01
5.3874371e-01
2.7842410e-01
-2.9530245e-02
-2.7663607e-01
-4.2935373e-01
-5.0551372e-01
-5.1820435e-01
-4.6765100e-01
-3.8307422e-01
-3.3265866e-01
-3.4635276e-01
-3.7087693e-01
-3.3792811e-01
-2.0215630e-01
4.9379978e-02
3.5582883e-01
6.0707568e-01
7.1912450e-01
6.6675241e-01
5.4144333e-01
4.8099606e-01
4.7188272e-01
4.0263262e-01
2.1805199e-01
-6.6599466e-02
-3.7448657e-01
-6.0140780e-01
-7.0050750e-01
-6.9907726e-01
-6.3089642e-01
-4.9161650e-01
-2.7844553e-01
-2.1132845e-02
2.0609266e-01
3.1812208e-01
3.3715787e-01
3.6996124e-01
4.3925797e-01
4.6772619e-01
4.1685339e-01
3.0173358e-01
1.3619213e-01
-5.8708826e-02
-2.4771278e-01
-3.9169903e-01
-4.6240162e-01
-4.4328708e-01
-3.4371209e-01
-2.6040665e-01
-2.5868091e-01
-2.4334873e-01
-1.3796581e-01
4.4223644e-02
2.5828525e-01
4.2197925e-01
4.9306484e-01
4.9496661e-01
4.1830808e-01
2.1514409e-01
-5.3403359e-02
-2.3542046e-01
-2.7996946e-01
-2.2554188e-01
-1.4579712e-01
-1.1088930e-01
-7.9085670e-02
1.6192235e-02
1.2039291e-01
1.0122943e-01
-3.4035061e-02
-1.2219514e-01
-8.9176622e-02
2.1440032e-02
1.2173401e-01
1.6784444e-01
2.2638422e-01
3.1007513e-01
3.2065491e-01
1.8726705e-01
-3.2282830e-02
-2.1262637e-01
-3.0386327e-01
-3.2596838e-01
-3.0293406e-01
-2.3051903e-01
-9.2405616e-02
8.8620019e-02
2.2457385e-01
1.9734019e-01
2.2384616e-02
-1.4477920e-01
-2.3007932e-01
-2.5318295e-01
-2.2510651e-01
-1.3003991e-01
6.4309916e-02
3.2523456e-01
5.2065610e-01
5.1931504e-01
3.3918887e-01
1.2830937e-01
-2.9703726e-02
-1.6348041e-01
-2.9480799e-01
-3.8714059e-01
-4.0793115e-01
-3.6596942e-01
-2.9564962e-01
-2.1736736e-01
-1.2332070e-01
-9.0625842e-03
1.1787448e-01
2.2623911e-01
2.9991992e-01
3.6996814e-01
4.1448638e-01
3.6217981e-01
2.5820752e-01
2.2892661e-01
2.5700003e-01
2.1375113e-01
6.9380040e-02
-1.1346126e-01
-2.6619012e-01
-3.5067775e-01
-3.7359375e-01
-3.6428079e-01
-3.4630136e-01
-3.2593874e-01
-2.9713619e-01
-2.4176903e-01
-1.4982091e-01
-2.3450568e-02
1.3218663e-01
2.9833907e-01
4.3091358e-01
4.6975190e-01
3.8765310e-01
2.4065873e-01
1.1035063e-01
3.9558849e-03
-1.0212231e-01
-1.9986880e-01
-2.6767637e-01
-2.7241833e-01
-1.9427528e-01
-7.0800869e-02
4.3893026e-02
1.4628710e-01
2.1544980e-01
1.9104842e-01
8.5243032e-02
-3.7744363e-02
-1.3521137e-01
-1.9310458e-01
-2.2898188e-01
-2.5146478e-01
-2.3332463e-01
-1.5667357e-01
-9.7378299e-02
-1.6621385e-01
-3.1269028e-01
-3.8898033e-01
-3.1479208e-01
-8.8196998e-02
1.9432935e-01
3.9929766e-01
4.7621239e-01
5.1238432e-01
6.0233920e-01
6.7743270e-01
6.5583295e-01
5.6279254e-01
4.4857018e-01
3.1248717e-01
1.0633931e-01
-1.5436003e-01
-3.8837341e-01
-5.4518262e-01
-6.3150021e-01
-6.7697726e-01
-6.8898139e-01
-6.5501860e-01
-5.6678732e-01
-4.2755890e-01
-2.5763226e-01
-7.9206308e-02
1.1058412e-01
2.8840338e-01
4.0402311e-01
4.5948974e-01
4.7227020e-01
4.5032044e-01
3.9609158e-01
2.8069431e-01
8.6288467e-02
-1.3272050e-01
-2.7123386e-01
-2.4879118e-01
-8.5273507e-02
1.1264147e-01
2.8072295e-01
4.0270787e-01
4.4193205e-01
3.5726577e-01
1.3504061e-01
-1.4935389e-01
-3.6315465e-01
-4.6014888e-01
-5.0144844e-01
-5.3565955e-01
-5.1795454e-01
-3.7512825e-01
-8.8296797e-02
2.6840513e-01
5.5293750e-01
6.7731164e-01
6.0968175e-01
3.8986652e-01
1.6390077e-01
1.9197812e-02
-5.4236606e-02
-7.7431906e-02
-9.6894238e-02
-1.6653382e-01
-2.7380399e-01
-3.5629851e-01
-3.8518284e-01
-3.7937898e-01
-3.5089846e-01
-2.7383903e-01
-1.2127734e-01
1.1238480e-01
3.4962693e-01
4.3312191e-01
3.2000761e-01
1.1168067e-01
-8.6297090e-02
-2.0238585e-01
-2.3804276e-01
-2.5089760e-01
-2.2568741e-01
-1.2281677e-01
2.7542943e-02
2.0224641e-01
4.0467362e-01
5.8743910e-01
6.5878982e-01
5.4769973e-01
3.0835720e-01
7.9649188e-02
-1.0842623e-01
-2.8098775e-01
-4.1427691e-01
-4.7104382e-01
-4.3147219e-01
-3.0776791e-01
-1.6129166e-01
-1.1435324e-01
-1.9215751e-01
-2.5938519e-01
-2.2558364e-01
-9.0320431e-02
1.3446973e-01
4.0655531e-01
6.2854553e-01
6.9485385e-01
5.7297253e-01
3.3615028e-01
9.2390223e-02
-1.0083233e-01
-2.2369048e-01
-2.8070628e-01
-2.9464311e-01
-2.7348388e-01
-2.1204483e-01
-1.4740781e-01
-1.4033696e-01
-1.9870615e-01
-2.8647546e-01
-3.5889858e-01
-3.8891972e-01
-3.7072876e-01
-3.0976395e-01
-2.1189205e-01
-6.8973906e-02
1.1264530e-01
2.6856549e-01
3.5330153e-01
4.0927425e-01
4.6611835e-01
4.9738391e-01
4.6081141e-01
3.4005628e-01
2.1194078e-01
1.9163333e-01
2.4205076e-01
2.0956757e-01
7.0971327e-02
-8.7074292e-02
-2.3422723e-01
-3.8125843e-01
-5.1546624e-01
-5.7627946e-01
-4.9384051e-01
-2.5265721e-01
4.3658579e-02
2.3942875e-01
3.5171736e-01
4.3878865e-01
3.9762556e-01
1.8481574e-01
-8.8276645e-02
-2.9691078e-01
-3.6118195e-01
-2.7431380e-01
-1.1759199e-01
-5.4163847e-04
9.0369002e-02
2.3581725e-01
3.8760317e-01
4.4602336e-01
3.7546139e-01
2.2695416e-01
1.0581559e-01
4.1236812e-02
-2.8329753e-02
-1.3377045e-01
-2.2489038e-01
-2.5382806e-01
-2.3909173e-01
-2.2027626e-01
-2.0876057e-01
-1.8678340e-01
-1.4001206e-01
-7.4029921e-02
-1.2209622e-02
1.5230519e-02
1.2053095e-02
-1.0972335e-02
-7.2392498e-02
-1.7009350e-01
-2.6998771e-01
-3.3201978e-01
-3.2315906e-01
-2.4589401e-01
-1.2997101e-01
1.9364322e-02
2.4146308e-01
5.0277902e-01
6.5785770e-01
6.3454750e-01
4.9285529e-01
3.5126514e-01
3.0776959e-01
3.1335949e-01
2.1997897e-01
1.3203859e-02
-1.9485527e-01
-3.4755306e-01
-4.5316412e-01
-5.2871316e-01
-5.7996031e-01
-5.9425381e-01
-5.6375775e-01
-4.8837316e-01
-3.6455081e-01
-1.8027479e-01
7.7646390e-02
3.6802716e-01
6.0341394e-01
7.4123761e-01
7.9238732e-01
7.6821250e-01
6.4720873e-01
3.8412401e-01
9.0643091e-03
-3.4898463e-01
-5.8677390e-01
-6.9060620e-01
-6.8466349e-01
-5.7188082e-01
-3.3921504e-01
-2.7381812e-03
3.4941998e-01
5.7332718e-01
5.7242131e-01
3.8653733e-01
1.5775855e-01
-1.9705412e-02
-1.4673533e-01
-2.1422589e-01
-1.9350039e-01
-9.2605897e-02
2.0081526e-02
5.2731448e-02
7.0972509e-03
-3.1900939e-02
-7.5396713e-03
3.7668387e-02
1.1933954e-02
-7.2073851e-02
-1.2761612e-01
-1.1400012e-01
-3.3884975e-02
6.3468413e-02
1.1801079e-01
1.2904559e-01
9.0420581e-02
-1.5374528e-02
-1.4520417e-01
-2.5242221e-01
-3.2271291e-01
-3.4716687e-01
-3.3053774e-01
-2.8544559e-01
-2.0182764e-01
-4.2540704e-02
2.0751165e-01
4.5693248e-01
5.7381719e-01
5.5888874e-01
5.0570611e-01
4.3970478e-01
3.0022453e-01
7.1671909e-02
-1.5030831e-01
-2.6748052e-01
-2.6355311e-01
-2.2551600e-01
-2.6185641e-01
-3.4784189e-01
-3.9848091e-01
-3.8280314e-01
-3.1682840e-01
-2.4916846e-01
-1.7433803e-01
-1.3999738e-02
2.7036000e-01
5.8351995e-01
7.5532168e-01
7.1971315e-01
5.2352894e-01
2.5653367e-01
-6.9547489e-03
-2.5378098e-01
-4.4996365e-01
-5.5023663e-01
-5.5414456e-01
-4.7670366e-01
-3.3086989e-01
-1.2425423e-01
1.4184276e-01
4.3916039e-01
6.5354579e-01
6.4311108e-01
4.1551829e-01
1.2612046e-01
-1.0579997e-01
-2.5875975e-01
-3.5101506e-01
-3.9403043e-01
-3.8539576e-01
-3.1789699e-01
-1.9299002e-01
-5.1847872e-02
6.7836710e-02
1.8637940e-01
2.4526184e-01
1.4946334e-01
-1.8382292e-02
-1.3065028e-01
-1.4647105e-01
-5.3420104e-02
8.2872467e-02
1.4234000e-01
1.3694688e-01
1.8277993e-01
2.8493829e-01
3.3982938e-01
2.8288108e-01
1.4599072e-01
2.1589151e-02
-4.6035455e-02
-1.1953425e-01
-2.4436278e-01
-3.5734162e-01
-4.0521200e-01
-4.0163068e-01
-3.5368027e-01
-2.4213255e-01
-5.3864377e-02
2.0019477e-01
4.5741273e-01
5.9164348e-01
5.0783121e-01
2.7716431e-01
6.4547140e-02
-6.3546619e-02
-1.3487493e-01
-1.8504604e-01
-2.1989749e-01
-2.2282532e-01
-1.8956760e-01
-1.3613938e-01
-8.2653079e-02
-3.5832966e-02
1.2038677e-02
7.0034730e-02
1.1517633e-01
1.1276900e-01
7.5194027e-02
4.6136233e-02
4.7154968e-02
3.9982247e-02
-2.8653647e-02
-1.3770926e-01
-2.1757210e-01
-2.3812310e-01
-2.1240639e-01
-1.4510938e-01
-2.4844846e-02
1.4581074e-01
3.1971926e-01
3.7591627e-01
2.2843708e-01
-2.0595490e-02
-2.1323950e-01
-3.0538208e-01
-3.0105045e-01
-1.9147665e-01
1.3337448e-02
2.7631160e-01
5.0136191e-01
5.3678412e-01
3.3979782e-01
5.1432350e-02
-1.7628903e-01
-3.0576380e-01
-3.4956352e-01
-3.1149730e-01
-1.9447214e-01
-1.5256277e-02
1.6998374e-01
2.3622217e-01
1.1886035e-01
-6.6700080e-02
-1.9599311e-01
-2.4587299e-01
-2.1522031e-01
-9.2339960e-02
1.1196714e-01
3.4531004e-01
4.9720621e-01
4.5504887e-01
2.5073194e-01
2.3419600e-02
-1.3729217e-01
-2.2160552e-01
-2.4565662e-01
-2.1536728e-01
-1.3683643e-01
-2.4528643e-02
9.2477109e-02
1.3298409e-01
5.1564069e-02
-7.0428370e-02
-1.5940159e-01
-2.1509042e-01
-2.4781995e-01
-2.5273061e-01
-2.1112851e-01
-1.1114797e-01
4.8446928e-02
2.1888832e-01
3.1700919e-01
3.3800409e-01
3.3712435e-01
2.8520741e-01
1.4037670e-01
-3.4198491e-03
-5.9694549e-02
-3.5079006e-02
3.9398446e-02
7.0663735e-02
-2.6312305e-02
-1.9115403e-01
-3.3566570e-01
-4.4440388e-01
-5.1528052e-01
-5.4235047e-01
-5.1434367e-01
-4.1465361e-01
-2.4244834e-01
-3.7732218e-02
1.3902850e-01
2.6082163e-01
3.6153488e-01
5.0488391e-01
6.8228972e-01
8.0781079e-01
8.3163653e-01
7.5627610e-01
5.8461010e-01
2.9657475e-01
-6.5711711e-02
-3.6321448e-01
-5.1053339e-01
-5.1297016e-01
-4.4937610e-01
-4.1850523e-01
-4.0215112e-01
-3.3711382e-01
-2.1317697e-01
-4.4562144e-02
1.3591541e-01
2.7207029e-01
2.9746321e-01
2.0869183e-01
7.5569752e-02
-5.1837548e-02
-1.5702906e-01
-2.3304084e-01
-2.7604430e-01
-2.8907023e-01
-2.6864057e-01
-1.8713625e-01
-3.0020353e-02
1.9870486e-01
4.3308789e-01
5.3895742e-01
4.6896391e-01
3.0883375e-01
1.5893887e-01
2.1411708e-02
-1.3208661e-01
-2.4557835e-01
-2.6451893e-01
-1.9733084e-01
-9.7752570e-02
-2.4959476e-02
1.2714854e-02
2.3317703e-02
-5.0931278e-04
-5.5636212e-02
-1.0840208e-01
-1.1655043e-01
-6.3595862e-02
3.6924352e-02
1.2715367e-01
1.3827712e-01
8.8707097e-02
4.9806457e-02
4.8978410e-02
4.0028136e-02
-4.6598414e-02
-1.8747255e-01
-3.0819761e-01
-3.8183430e-01
-4.0608178e-01
-3.7475301e-01
-2.7787711e-01
-1.1012315e-01
1.0777985e-01
3.0526044e-01
4.0230844e-01
4.0763554e-01
4.1707214e-01
5.0588789e-01
6.2897163e-01
6.5138685e-01
4.9912143e-01
2.1765691e-01
-7.9426540e-02
-3.0807792e-01
-4.6042257e-01
-5.4524821e-01
-5.6493513e-01
-5.3496532e-01
-4.7289697e-01
-3.8410217e-01
-2.6331761e-01
-1.0172431e-01
7.2270361e-02
1.9589598e-01
2.3679047e-01
2.3379424e-01
2.8472931e-01
4.0144131e-01
4.5898707e-01
3.6413890e-01
1.5681614e-01
-5.8245047e-02
-2.1240804e-01
-2.9537381e-01
-3.1072812e-01
-2.4135415e-01
-7.6872933e-02
1.5265533e-01
3.3351353e-01
3.3076318e-01
1.7515341e-01
9.0719684e-03
-9.9036687e-02
-1.4739390e-01
-1.5467426e-01
-1.4545004e-01
-1.2451192e-01
-8.7435804e-02
-4.1850530e-02
-8.9820720e-03
3.6178594e-03
1.1129842e-02
1.7836738e-02
8.2707495e-03
-2.5878451e-02
-6.5335403e-02
-8.3623750e-02
-7.6797967e-02
-6.3329725e-02
-5.7544590e-02
-4.5198830e-02
-6.9542220e-03
6.0663232e-02
1.2785269e-01
1.3504194e-01
8.1328440e-02
2.9062637e-02
6.1066284e-05
-2.9514216e-02
-6.8907573e-02
-9.5603013e-02
-7.7837241e-02
-4.6679705e-03
8.0111331e-02
9.7169048e-02
3.9789610e-02
-2.0724393e-02
-3.2396346e-02
1.6051136e-03
3.8582933e-02
3.9643881e-02
4.7299240e-03
-5.0006758e-02
-1.1365244e-01
-1.5859657e-01
-1.4579284e-01
-5.3107810e-02
1.2537431e-01
3.1122944e-01
3.6332765e-01
2.8127491e-01
1.6780822e-01
6.2188922e-02
-3.7771337e-02
-1.3318423e-01
-2.1884346e-01
-2.7627169e-01
-2.8859005e-01
-2.6201542e-01
-2.1499092e-01
-1.4646048e-01
-4.1990141e-02
9.0189434e-02
2.1064328e-01
2.6699168e-01
2.2401933e-01
1.1511329e-01
1.4389119e-02
-5.4467456e-02
-9.7510943e-02
-9.7949144e-02
-4.0736620e-02
4.8482846e-02
9.3209755e-02
5.0774527e-02
-2.0089430e-02
-5.3268216e-02
-4.4124116e-02
-2.3304964e-02
-1.3097048e-02
4.7433490e-03
5.9027747e-02
1.4920038e-01
2.0138877e-01
1.0834966e-01
-9.9654486e-02
-2.8193517e-01
-3.6669237e-01
-3.5127286e-01
-2.4303406e-01
-6.0000674e-02
1.7503220e-01
3.9604815e-01
4.7410156e-01
3.4275112e-01
1.0260191e-01
-8.3998026e-02
-1.3384014e-01
-8.6554237e-02
-2.9856447e-02
2.4732954e-02
9.8247703e-02
1.6993697e-01
1.8397649e-01
9.4762818e-02
-5.0595376e-02
-1.4025605e-01
-1.2641365e-01
-7.3330621e-02
-6.6713900e-02
-9.3180374e-02
-8.8006558e-02
-2.7757919e-02
3.0850915e-02
-7.1625909e-03
-1.2398584e-01
-2.3314214e-01
-2.9802058e-01
-3.0842152e-01
-2.5678012e-01
-1.3699939e-01
5.5937722e-02
2.9935578e-01
4.9986347e-01
5.3719131e-01
3.9288872e-01
1.9416535e-01
8.6436001e-02
5.4041265e-02
-8.5747681e-03
-9.3210925e-02
-1.2670966e-01
-8.4229289e-02
-1.9189697e-02
-4.2272521e-02
-1.7285768e-01
-3.1767519e-01
-4.1900446e-01
-4.7407792e-01
-4.8012755e-01
-4.2329090e-01
-2.8600410e-01
-8.4910005e-02
1.2969690e-01
3.0541238e-01
4.0825856e-01
4.6982720e-01
5.4606384e-01
6.3908440e-01
7.0393786e-01
6.7888843e-01
5.2838446e-01
2.7720294e-01
2.6421732e-04
-2.3709540e-01
-3.9932983e-01
-4.6943913e-01
-4.5890083e-01
-3.9702206e-01
-3.1230574e-01
-2.2869962e-01
-1.6893045e-01
-1.3795244e-01
-1.3103053e-01
-1.4642359e-01
-1.7951711e-01
-2.3342679e-01
-2.9600447e-01
-3.2436885e-01
-2.8569679e-01
-1.7144638e-01
3.7238910e-02
3.3546916e-01
6.3343928e-01
8.2373534e-01
8.6101812e-01
7.4648571e-01
5.4903177e-01
3.4091459e-01
1.0762195e-01
-1.3387532e-01
-3.1339419e-01
-3.9780698e-01
-4.0837394e-01
-4.0055440e-01
-4.0328583e-01
-4.0263696e-01
-3.8092749e-01
-3.3650785e-01
-2.6905430e-01
-1.7047933e-01
-3.6191281e-02
1.2544218e-01
2.7326823e-01
3.4048387e-01
3.1404358e-01
2.7350956e-01
3.0428933e-01
3.4291253e-01
2.5258891e-01
6.2950490e-02
-1.0853734e-01
-2.1181642e-01
-2.3974342e-01
-2.2281397e-01
-1.9008841e-01
-1.1890918e-01
1.3818664e-02
1.2617050e-01
1.1103750e-01
2.2214490e-02
-3.7888497e-02
-4.4457785e-02
-1.2316871e-03
5.4539842e-02
7.3299552e-02
4.7736292e-02
8.1895634e-03
-2.9526657e-02
-7.6910947e-02
-1.2427789e-01
-1.4891263e-01
-1.4392113e-01
-1.0793907e-01
-4.5584441e-02
3.1393725e-02
1.1676652e-01
2.1226625e-01
2.7603387e-01
2.3648835e-01
1.0900294e-01
-2.8198098e-02
-1.3402026e-01
-1.9766794e-01
-2.2063153e-01
-2.1556564e-01
-1.8970245e-01
-1.4709791e-01
-1.0644111e-01
-8.7272423e-02
-7.3792084e-02
-2.6031631e-02
7.2703280e-02
1.9006791e-01
2.2552831e-01
1.1618639e-01
-3.7948153e-02
-1.0606768e-01
-1.0195642e-01
-1.0648837e-01
-9.6563215e-02
4.5317183e-03
2.0020897e-01
3.9955892e-01
4.6991194e-01
3.4551345e-01
1.1385400e-01
-5.4216670e-02
-1.4358261e-01
-2.5436013e-01
-3.6129189e-01
-3.7679286e-01
-2.6370112e-01
-5.3555914e-02
1.4641981e-01
2.4348518e-01
2.3490907e-01
2.1279237e-01
2.3108152e-01
2.1269613e-01
1.3114638e-01
5.9797406e-02
4.0002505e-02
6.8881068e-02
6.9365820e-02
-3.0480402e-02
-1.5864735e-01
-2.2840721e-01
-2.5217531e-01
-2.6876518e-01
-2.7282770e-01
-2.3886338e-01
-1.6224785e-01
-5.6321386e-02
3.1967446e-02
6.6805494e-02
9.1185176e-02
1.5736260e-01
2.0879792e-01
1.5491345e-01
4.2482172e-02
-1.0999599e-02
4.7546012e-02
1.8115755e-01
2.4558883e-01
1.5707060e-01
2.2841782e-02
-5.2274508e-02
-9.2901246e-02
-1.5988575e-01
-2.4366696e-01
-2.9590061e-01
-2.9716504e-01
-2.4767208e-01
-1.7357600e-01
-9.8626329e-02
1.5574063e-03
1.5621973e-01
2.9849851e-01
3.0645470e-01
2.0069807e-01
1.1452456e-01
1.2768113e-01
2.1139823e-01
2.2584702e-01
1.0062555e-01
-6.0688355e-02
-1.6596869e-01
-2.1896491e-01
-2.5712174e-01
-3.0027574e-01
-3.2191192e-01
-2.9177434e-01
-2.1121730e-01
-1.1674683e-01
-4.1496160e-02
5.8874254e-02
2.6072522e-01
4.9976475e-01
6.0415342e-01
5.2937549e-01
3.7281956e-01
2.3435596e-01
1.1119034e-01
-6.1629335e-02
-2.6672869e-01
-4.2776585e-01
-5.0679851e-01
-5.0608911e-01
-4.3279917e-01
-2.9042087e-01
-8.5108677e-02
1.6850170e-01
4.2099196e-01
5.6427024e-01
5.1292989e-01
3.2666192e-01
1.4468211e-01
1.7816852e-02
-8.5638757e-02
-1.6984355e-01
-2.1052913e-01
-2.0525831e-01
-1.7991786e-01
-1.6873014e-01
-1.7791372e-01
-1.8364406e-01
-1.7011619e-01
-1.4175027e-01
-1.0604754e-01
-6.0832057e-02
1.2126137e-02
1.3404801e-01
2.8515382e-01
3.8479073e-01
3.5750747e-01
2.3249000e-01
1.1165391e-01
2.6353261e-02
-5.9502022e-02
-1.4676568e-01
-2.0811513e-01
-2.2883960e-01
-2.1236374e-01
-1.9520038e-01
-1.9995392e-01
-1.8175823e-01
-9.9166135e-02
-8.9937539e-03
5.2754406e-03
-1.4503123e-02
2.8037333e-02
1.6721102e-01
3.8218401e-01
5.5271671e-01
5.1721883e-01
3.0587396e-01
1.0034044e-01
-3.7351157e-02
-1.5249036e-01
-2.4729474e-01
-2.9781955e-01
-3.0230054e-01
-2.6811344e-01
-2.2080402e-01
-1.9200920e-01
-1.7144460e-01
-1.2422840e-01
-5.1917714e-02
9.7184807e-03
5.9271820e-02
1.3114662e-01
2.3333246e-01
3.2464398e-01
3.1308066e-01
1.5413911e-01
-4.4662175e-02
-1.5455305e-01
-1.8623032e-01
-2.2789365e-01
-2.8724135e-01
-2.9058480e-01
-1.9377129e-01
-2.0148623e-02
1.5272816e-01
2.2933538e-01
1.9063032e-01
1.5339549e-01
1.7001019e-01
1.5303129e-01
1.1910573e-01
1.7253431e-01
3.2364711e-01
4.4056865e-01
3.5684930e-01
9.4324521e-02
-1.7027599e-01
-3.2857166e-01
-3.9361249e-01
-4.1553723e-01
-4.0544510e-01
-3.4469351e-01
-2.1908929e-01
-3.4148930e-02
1.4230293e-01
2.0343513e-01
1.3897258e-01
5.5481948e-02
6.5223001e-03
-3.0844772e-02
-2.9110232e-02
5.6661078e-02
2.1817107e-01
3.7539072e-01
3.8660533e-01
2.0589446e-01
-4.2338304e-02
-2.3042428e-01
-3.3225254e-01
-3.6287277e-01
-3.2999133e-01
-2.3328891e-01
-7.4366417e-02
1.0845170e-01
2.2172255e-01
2.1695607e-01
1.7249120e-01
1.8612333e-01
2.2075711e-01
1.7154332e-01
5.5351897e-02
-4.0342623e-02
-7.3371243e-02
-6.1215368e-02
-6.9628086e-02
-1.3305399e-01
-2.2232089e-01
-2.9600503e-01
-3.4514774e-01
-3.7695422e-01
-3.7061471e-01
-2.9653414e-01
-1.4752570e-01
7.2336918e-02
3.1317502e-01
4.6845462e-01
5.1731278e-01
5.7410008e-01
6.4459479e-01
5.7164422e-01
3.2558224e-01
3.4812534e-02
-1.9636479e-01
-3.3290284e-01
-3.9595155e-01
-4.3313056e-01
-4.6566697e-01
-4.7701248e-01
-4.5020838e-01
-3.8323733e-01
-2.7673442e-01
-1.1876997e-01
1.0255980e-01
3.5805869e-01
5.3414566e-01
5.2813432e-01
4.3224080e-01
4.2902014e-01
4.8098035e-01
3.9008353e-01
1.4654711e-01
-9.7666055e-02
-2.5742252e-01
-3.2908804e-01
-3.4054098e-01
-3.2374879e-01
-2.8785429e-01
-2.2146838e-01
-1.5072041e-01
-1.3016075e-01
-1.4431222e-01
-1.2944168e-01
-5.3888034e-02
5.9048588e-02
1.4265950e-01
1.6428641e-01
1.8129772e-01
2.7750720e-01
3.9524503e-01
3.7714449e-01
2.1591135e-01
2.4123211e-02
-1.3069686e-01
-2.3377257e-01
-2.9772870e-01
-3.4049635e-01
-3.6289924e-01
-3.5899006e-01
-3.2101206e-01
-2.4895212e-01
-1.4424230e-01
1.1772932e-02
2.2459837e-01
4.4869879e-01
5.7385541e-01
5.0540791e-01
2.9425129e-01
6.8970281e-02
-9.6621060e-02
-1.8729784e-01
-2.0531145e-01
-1.5061118e-01
-5.1840758e-02
3.8307424e-02
7.7532977e-02
5.3669459e-02
2.7121484e-03
-2.3640281e-02
-3.6831503e-02
-7.2781334e-02
-8.7143104e-02
-2.9631580e-02
7.8921222e-02
1.7721714e-01
1.9101287e-01
1.0707169e-01
4.5469273e-03
-4.5960423e-02
-6.2548540e-02
-9.0702712e-02
-1.2054496e-01
-1.2822366e-01
-1.1321181e-01
-9.1862927e-02
-1.0895327e-01
-1.7564102e-01
-2.3530529e-01
-2.4561587e-01
-1.9658295e-01
-8.3213246e-02
8.3640532e-02
2.9309459e-01
5.1387137e-01
6.3750179e-01
5.4438167e-01
2.6668625e-01
-2.8279300e-02
-2.2437446e-01
-3.2364563e-01
-3.7307384e-01
-3.8921718e-01
-3.5697210e-01
-2.6395837e-01
-1.2234483e-01
1.2203081e-02
8.0092652e-02
1.1375094e-01
2.1297879e-01
3.3660934e-01
3.2220463e-01
1.8167668e-01
7.5072842e-02
8.7023138e-02
1.6229291e-01
1.5601150e-01
3.4049097e-02
-9.2707887e-02
-1.5709963e-01
-1.7856086e-01
-1.9285422e-01
-1.9575597e-01
-1.5413421e-01
-5.3562348e-02
6.1003721e-02
7.3345879e-02
-5.1541827e-02
-2.0292950e-01
-2.9769592e-01
-3.2517739e-01
-2.8349487e-01
-1.6992369e-01
2.5198537e-02
2.8071368e-01
4.8315570e-01
4.9533848e-01
3.1543069e-01
8.6281944e-02
-4.8953098e-02
-8.6149497e-02
-1.0658671e-01
-1.1142297e-01
-3.7941389e-02
1.3207722e-01
3.0866793e-01
3.4472241e-01
2.1830555e-01
6.4531699e-02
3.3373252e-03
7.6210651e-03
-3.0791314e-02
-1.2494901e-01
-1.9914814e-01
-2.1163329e-01
-1.7713365e-01
-1.3246012e-01
-9.8573888e-02
-7.5142073e-02
-5.5145643e-02
-3.5013908e-02
-2.5674348e-02
-3.1915581e-02
-3.1674926e-02
-5.3307457e-04
6.1487154e-02
9.1523359e-02
2.0310822e-02
-1.1539593e-01
-2.4368813e-01
-3.3631985e-01
-3.7623507e-01
-3.4411505e-01
-2.2542896e-01
-2.5593612e-02
1.8774947e-01
3.1735375e-01
3.3496478e-01
2.8374034e-01
2.3194546e-01
1.8557723e-01
7.5684502e-02
-9.0758706e-02
-2.1576407e-01
-2.0431106e-01
-3.2423659e-02
2.1333328e-01
4.3216933e-01
5.6537189e-01
5.9557716e-01
5.5115848e-01
4.2380743e-01
1.9886615e-01
-5.6277780e-02
-2.4851829e-01
-3.4605980e-01
-3.8007639e-01
-3.7611203e-01
-3.4084987e-01
-2.8704961e-01
-2.3304600e-01
-1.9727781e-01
-1.7834678e-01
-1.5517487e-01
-1.1237878e-01
-4.9611981e-02
2.5054178e-02
1.0762747e-01
1.9785584e-01
2.3482470e-01
1.7202518e-01
8.3956536e-02
3.0986675e-02
1.5809625e-02
4.3783979e-02
6.8338017e-02
1.1001527e-02
-1.1297600e-01
-2.2392198e-01
-2.8783569e-01
-3.1497465e-01
-3.1726772e-01
-2.8605453e-01
-1.9848778e-01
-4.9679969e-02
1.2533310e-01
2.4733555e-01
2.5776356e-01
2.0877472e-01
1.9212687e-01
1.9481945e-01
1.2659271e-01
-1.6721726e-02
-1.3712953e-01
-1.3579922e-01
2.6374774e-02
2.8962569e-01
5.2135953e-01
6.1229952e-01
5.1401148e-01
2.6759777e-01
-1.4341357e-03
-2.1262896e-01
-3.5340347e-01
-4.2776839e-01
-4.5748496e-01
-4.6686710e-01
-4.5982314e-01
-4.2681122e-01
-3.6299252e-01
-2.5642702e-01
-8.3434807e-02
1.6060336e-01
4.5830139e-01
7.2857383e-01
8.2229463e-01
6.7263965e-01
3.6096568e-01
3.9046041e-02
-1.8486010e-01
-2.9889258e-01
-3.3652781e-01
-3.1878805e-01
-2.5421372e-01
-1.7450181e-01
-1.5510704e-01
-2.3723097e-01
-3.5635478e-01
-4.3099924e-01
-4.3846010e-01
-3.8160369e-01
-2.4925589e-01
-3.7678431e-02
2.2960241e-01
4.8659097e-01
6.3941835e-01
6.5437220e-01
5.9760470e-01
5.4792215e-01
4.7542409e-01
3.1667071e-01
8.6208612e-02
-1.3752565e-01
-2.6709963e-01
-2.7576754e-01
-1.9874132e-01
-1.2589753e-01
-1.0991369e-01
-1.3635981e-01
-1.9077946e-01
-2.2014673e-01
-1.8470651e-01
-8.9503996e-02
5.4083373e-02
1.9229763e-01
2.2947500e-01
1.3832942e-01
2.9803495e-03
-1.0035743e-01
-1.6302599e-01
-1.9686759e-01
-2.0087812e-01
-1.6740464e-01
-9.2684524e-02
9.0665346e-03
6.6733021e-02
1.9857045e-02
-7.6092906e-02
-1.3536483e-01
-1.3464694e-01
-9.3960406e-02
-2.8243911e-02
7.1878229e-02
1.7990865e-01
2.3313014e-01
1.7895860e-01
5.1745597e-02
-1.3859336e-02
6.0124840e-02
2.3053047e-01
3.7446626e-01
3.9631858e-01
3.0235941e-01
1.2907576e-01
-8.1257696e-02
-2.7593591e-01
-4.2045607e-01
-5.0200747e-01
-5.2069434e-01
-4.8636534e-01
-4.1966894e-01
-3.2594725e-01
-1.7060077e-01
6.4019924e-02
3.0804689e-01
4.4961973e-01
4.7916514e-01
4.8592369e-01
4.9507497e-01
4.7813650e-01
4.1513101e-01
2.7065157e-01
4.2144879e-02
-2.1220070e-01
-4.2346304e-01
-5.6016095e-01
-6.1534774e-01
-5.7559201e-01
-4.2552037e-01
-1.6197635e-01
1.5485455e-01
4.2487707e-01
5.8392214e-01
5.7876521e-01
4.0310582e-01
1.3998901e-01
-9.9652252e-02
-2.3477934e-01
-2.5146903e-01
-2.3682408e-01
-2.6331445e-01
-2.6614458e-01
-1.9496243e-01
-7.0377232e-02
3.9765115e-02
2.9961935e-02
-6.4474257e-02
-8.9283956e-02
2.3848764e-02
1.8530587e-01
2.9733275e-01
3.9253654e-01
4.8522997e-01
4.8606211e-01
3.2580255e-01
7.2147917e-02
-1.3869254e-01
-2.4766117e-01
-2.6715857e-01
-2.6154121e-01
-2.8989678e-01
-3.2798396e-01
-3.4563854e-01
-3.4277386e-01
-3.0822836e-01
-2.2709832e-01
-8.3896822e-02
1.2740513e-01
3.4106971e-01
4.1050420e-01
3.1384337e-01
2.0598195e-01
1.7821085e-01
2.0189272e-01
1.8497269e-01
3.9780082e-02
-1.7658380e-01
-3.3015864e-01
-3.7037983e-01
-3.1760355e-01
-1.8863146e-01
1.3690365e-02
2.5687938e-01
4.7477909e-01
5.6292331e-01
4.2090701e-01
1.1580596e-01
-1.6834463e-01
-3.4869908e-01
-4.4790576e-01
-4.8980890e-01
-4.6663174e-01
-3.6956268e-01
-2.0087792e-01
1.2136742e-02
2.2512742e-01
4.3293631e-01
6.2332778e-01
6.9917468e-01
5.4250024e-01
2.0948852e-01
-9.9659887e-02
-2.9348552e-01
-3.9386845e-01
-4.3248706e-01
-4.2163931e-01
-3.4355404e-01
-1.8536243e-01
2.7459702e-02
1.9905903e-01
2.7698555e-01
3.2839617e-01
3.6466602e-01
3.0827767e-01
1.2698330e-01
-1.0867684e-01
-2.9097373e-01
-3.7408889e-01
-3.6312471e-01
-2.9546515e-01
-2.0505703e-01
-7.8627028e-02
8.7516423e-02
2.3613287e-01
2.4959606e-01
1.0164504e-01
-5.7914388e-02
-1.0533170e-01
-4.8467586e-02
-2.4509767e-03
-2.2584983e-02
-3.6353350e-03
1.0182561e-01
2.1666539e-01
2.2747408e-01
1.3390028e-01
8.1276230e-02
1.3521159e-01
2.2233886e-01
1.9807939e-01
3.3146179e-02
-1.1860645e-01
-1.7749258e-01
-1.7899508e-01
-1.9645473e-01
-2.6533293e-01
-3.0783741e-01
-2.5725759e-01
-1.3095475e-01
-2.7215093e-02
2.1935384e-04
3.7354823e-02
1.3184588e-01
2.2752652e-01
2.3276893e-01
1.5459861e-01
1.3113719e-01
2.1285530e-01
2.7846036e-01
1.5920523e-01
-1.2675973e-01
-3.9357965e-01
-5.6404565e-01
-6.8683447e-01
-8.2421454e-01
-9.5883094e-01
-9.8330502e-01
-8.2434975e-01
-5.0235603e-01
-1.0664358e-01
