4.9928336e-02
-2.0680225e-03
-6.8189914e-02
-1.2830038e-01
-1.7873462e-01
-2.1984408e-01
-1.6946270e-01
5.4004586e-02
3.5663953e-01
5.2718559e-01
5.4345275e-01
5.6744986e-01
6.3442838e-01
6.2950581e-01
4.6801792e-01
1.7229806e-01
-1.2398557e-01
-2.7723248e-01
-2.8954429e-01
-2.8528700e-01
-3.0877440e-01
-2.9116251e-01
-2.1209403e-01
-1.0757225e-01
-2.6676468e-02
3.5215817e-03
1.6710059e-02
3.1372735e-02
-1.2281137e-03
-9.0983672e-02
-1.6675366e-01
-1.9884337e-01
-1.9130205e-01
-1.4189213e-01
-7.0120103e-02
1.0905247e-02
1.1027768e-01
2.4109950e-01
3.4634219e-01
2.8411550e-01
5.7228181e-02
-1.5150250e-01
-2.4676175e-01
-2.4315707e-01
-1.7201030e-01
-6.5812178e-02
6.5197505e-02
2.0519700e-01
2.9265448e-01
2.3649683e-01
5.4111000e-02
-1.1894889e-01
-2.1497672e-01
-2.3255591e-01
-1.7730396e-01
-6.4957709e-02
1.0103999e-01
2.8939433e-01
3.9960854e-01
3.0849554e-01
3.2102848e-02
-2.6755731e-01
-4.8092382e-01
-5.7060338e-01
-5.0820375e-01
-2.9845255e-01
7.7138074e-03
3.3791458e-01
5.9211954e-01
6.4519939e-01
5.1264888e-01
3.3406418e-01
1.5075162e-01
-6.4546239e-02
-2.9872504e-01
-4.6888786e-01
-4.6539806e-01
-2.6812983e-01
-4.0033767e-02
2.6950589e-02
-2.0875027e-02
-3.5255854e-02
2.5282777e-02
1.1910788e-01
1.6506252e-01
1.6961793e-01
2.2654714e-01
3.2593769e-01
3.7846930e-01
3.5527206e-01
2.9483327e-01
2.2298004e-01
1.1984144e-01
-3.8273687e-02
-2.2576996e-01
-3.6023837e-01
-3.8880160e-01
-3.3395887e-01
-2.5661456e-01
-2.1367869e-01
-2.0702119e-01
-1.8963710e-01
-1.3387585e-01
-5.3699771e-02
1.3738570e-02
5.6265142e-02
1.1094315e-01
1.8655257e-01
2.0960851e-01
1.1859813e-01
-3.8240406e-02
-1.7408548e-01
-2.5798239e-01
-2.9360735e-01
-2.8547914e-01
-2.3249625e-01
-1.2973791e-01
9.7443046e-04
1.2176286e-01
2.2478372e-01
3.3091470e-01
4.6165601e-01
5.7889634e-01
5.8768650e-01
4.1329869e-01
1.0014404e-01
-1.9487931e-01
-3.7729821e-01
-4.4586753e-01
-4.3906279e-01
-4.0226829e-01
-3.5305165e-01
-3.0638609e-01
-2.7704764e-01
-2.4639828e-01
-1.4807994e-01
7.2218782e-02
3.9318152e-01
7.0436261e-01
8.5419474e-01
8.0842750e-01
6.4710661e-01
4.0928579e-01
1.2950139e-01
-1.2837289e-01
-3.2299301e-01
-4.3846233e-01
-4.7888560e-01
-4.6417445e-01
-4.2806768e-01
-3.9272813e-01
-3.4825517e-01
-2.8374908e-01
-2.1829222e-01
-1.7639146e-01
-1.4857657e-01
-1.0396811e-01
-5.0726599e-02
-4.0745463e-02
-8.0992385e-02
-9.0131710e-02
2.3472893e-02
2.5298027e-01
5.0378968e-01
6.9930456e-01
7.9980293e-01
7.6923401e-01
5.8736926e-01
2.6054662e-01
-1.2155908e-01
-4.1604612e-01
-5.7272200e-01
-6.2213380e-01
-5.8898459e-01
-4.7302982e-01
-2.6502601e-01
3.2632924e-02
3.4999658e-01
5.6153129e-01
6.1741555e-01
5.5872159e-01
4.1985017e-01
2.0399095e-01
-6.1205452e-02
-3.0842544e-01
-4.7040565e-01
-5.1466262e-01
-4.7035496e-01
-4.1431013e-01
-3.9370492e-01
-3.9949235e-01
-3.9997513e-01
-3.4114263e-01
-1.7386759e-01
1.0438342e-01
4.5948419e-01
8.1495971e-01
1.0277509e+00
9.5398794e-01
6.0758356e-01
1.7928439e-01
-1.7563691e-01
-4.3617029e-01
-6.2327684e-01
-7.2841228e-01
-7.0651261e-01
-5.3637760e-01
-2.6280304e-01
-6.4147975e-03
1.1944960e-01
1.6975921e-01
2.7727887e-01
4.3737894e-01
5.3531983e-01
4.8116421e-01
3.2388458e-01
2.1545452e-01
1.7317356e-01
7.6142425e-02
-1.1029975e-01
-2.9222082e-01
-3.6969448e-01
-3.3908703e-01
-2.6359091e-01
-1.9832368e-01
-1.6606523e-01
-1.5244178e-01
-1.2342666e-01
-3.0577582e-02
9.2031039e-02
1.6435673e-01
2.0844807e-01
2.0946325e-01
1.0237420e-01
-5.3071957e-02
-1.1625076e-01
-4.7051926e-06
2.4764694e-01
4.3648220e-01
4.4227369e-01
3.4263465e-01
2.2866302e-01
9.0887664e-02
-9.2824071e-02
-2.7924342e-01
-3.9125835e-01
-4.0632556e-01
-3.6628446e-01
-3.3422630e-01
-3.5089334e-01
-3.9882593e-01
-4.2785577e-01
-3.9688552e-01
-2.9184347e-01
-1.1935047e-01
1.1457756e-01
4.1211206e-01
7.0970108e-01
8.5783930e-01
7.9873429e-01
6.3770181e-01
4.4580376e-01
1.8461396e-01
-1.3689256e-01
-4.2691393e-01
-5.9504529e-01
-6.0961940e-01
-5.0497339e-01
-3.4688916e-01
-1.7870527e-01
-6.7955631e-03
1.6144077e-01
2.8080789e-01
2.8976894e-01
2.0741583e-01
1.5864284e-01
2.4105864e-01
3.7243258e-01
3.3637059e-01
9.2658062e-02
-1.7637963e-01
-3.7166656e-01
-4.8652798e-01
-5.1994539e-01
-5.0724035e-01
-4.6633602e-01
-3.8676867e-01
-2.6552367e-01
-1.0890908e-01
8.3157393e-02
3.1879066e-01
5.7472922e-01
7.8106836e-01
8.5600409e-01
7.4789065e-01
4.8996014e-01
2.1081886e-01
-9.9790308e-03
-2.2436465e-01
-4.3426683e-01
-5.5175168e-01
-5.7318887e-01
-5.4338621e-01
-4.7563281e-01
-3.7698265e-01
-2.3720958e-01
-4.2144740e-02
1.7151107e-01
3.0708910e-01
3.4277003e-01
3.6335546e-01
3.9839541e-01
4.0193578e-01
3.2650675e-01
1.6994657e-01
2.1383437e-02
-2.0047790e-02
-3.6858470e-03
-7.2347390e-02
-2.3131974e-01
-3.6510197e-01
-4.2569276e-01
-4.2385746e-01
-3.6896271e-01
-2.7369190e-01
-1.4737775e-01
4.3211803e-03
1.6745114e-01
3.3406876e-01
4.6292003e-01
4.9950779e-01
4.8069338e-01
4.1419721e-01
2.4983856e-01
3.1696561e-02
-1.4630647e-01
-2.3948855e-01
-2.7231357e-01
-3.0612518e-01
-3.5859128e-01
-3.9688272e-01
-4.0219741e-01
-3.7532633e-01
-3.1975644e-01
-2.4431613e-01
-1.4007607e-01
1.9240581e-02
2.2862885e-01
4.2204716e-01
5.0522698e-01
4.7284643e-01
4.1749717e-01
3.5836790e-01
2.1696220e-01
-2.8587097e-02
-2.6939338e-01
-3.7368145e-01
-3.2744277e-01
-2.3324609e-01
-1.8082042e-01
-1.3573598e-01
-1.6021906e-02
1.4012148e-01
1.9294199e-01
9.2887459e-02
-2.3970068e-02
1.5981916e-02
1.9093951e-01
3.3173357e-01
3.5543059e-01
3.0395950e-01
2.2130755e-01
9.1334223e-02
-9.6678213e-02
-2.6592531e-01
-2.9803403e-01
-1.4695315e-01
9.9107917e-02
2.3890889e-01
1.6661891e-01
-6.6762970e-03
-1.4944714e-01
-2.2286142e-01
-2.3012278e-01
-1.9504311e-01
-1.3942660e-01
-7.0344833e-02
2.0238322e-02
1.0231908e-01
1.1616727e-01
8.7975098e-02
6.5174150e-02
2.2462300e-02
-5.6414042e-02
-1.5167797e-01
-2.3527664e-01
-2.6910106e-01
-2.3701839e-01
-1.7163614e-01
-1.4566290e-01
-1.7711686e-01
-1.9453429e-01
-1.4856375e-01
-3.1428470e-02
1.2100475e-01
2.5148060e-01
3.8780506e-01
5.4958003e-01
6.2679034e-01
5.2376423e-01
3.2427442e-01
1.8092952e-01
1.0057762e-01
-1.4664093e-04
-1.5227289e-01
-3.0165061e-01
-3.5022286e-01
-2.6981434e-01
-1.5406770e-01
-1.6095800e-01
-3.2115640e-01
-4.9999791e-01
-5.9575986e-01
-5.7886194e-01
-4.4676841e-01
-2.1045029e-01
1.2746317e-01
5.2708842e-01
8.6543325e-01
1.0127570e+00
9.7278280e-01
8.2683309e-01
5.7673247e-01
2.1439974e-01
-1.7861677e-01
-4.9192254e-01
-6.4940908e-01
-6.3157045e-01
-4.9793009e-01
-3.9517769e-01
-3.9797910e-01
-4.1794294e-01
-3.8660742e-01
-2.9118460e-01
-1.5245757e-01
-1.1587091e-02
1.4872541e-01
3.4698502e-01
5.4977892e-01
6.5127283e-01
6.2155973e-01
5.7417358e-01
5.1546253e-01
3.5607341e-01
8.8549844e-02
-1.9523534e-01
-3.6157212e-01
-3.4291547e-01
-2.0705787e-01
-1.3361705e-01
-2.1064064e-01
-3.4937704e-01
-4.7297982e-01
-5.5397566e-01
-5.6272200e-01
-4.8455888e-01
-3.1256812e-01
-5.0773796e-02
2.5589176e-01
5.0055445e-01
6.4090990e-01
7.5056567e-01
8.1907705e-01
7.3887224e-01
4.6473692e-01
7.5230941e-02
-2.6773982e-01
-4.4001948e-01
-3.9967981e-01
-2.7386079e-01
-2.4733636e-01
-2.8912879e-01
-3.2783492e-01
-3.7361874e-01
-3.7744834e-01
-2.5645756e-01
8.5231068e-03
3.5034051e-01
6.2493288e-01
6.6354096e-01
4.8682577e-01
2.9341682e-01
1.4818567e-01
3.3304120e-03
-1.5806030e-01
-3.1725707e-01
-4.1343386e-01
-4.1129626e-01
-3.3717606e-01
-2.9325824e-01
-3.4217756e-01
-3.9262924e-01
-3.6266184e-01
-2.4547553e-01
-6.9155380e-02
1.1342745e-01
3.2118573e-01
5.8719354e-01
8.0647151e-01
8.3413618e-01
7.0705884e-01
5.6253419e-01
3.9956618e-01
1.6481152e-01
-1.2113813e-01
-3.9832199e-01
-5.7506239e-01
-5.9508254e-01
-5.0190638e-01
-4.1172760e-01
-3.8144760e-01
-3.6077375e-01
-3.1834942e-01
-2.7831258e-01
-2.4230837e-01
-1.5116994e-01
4.5909462e-02
3.3951449e-01
6.1667745e-01
7.1559407e-01
6.6596408e-01
6.2292113e-01
5.9345813e-01
4.7560063e-01
2.2743203e-01
-8.3557773e-02
-3.5191127e-01
-5.2444959e-01
-6.0089645e-01
-6.0961191e-01
-5.8923400e-01
-5.5549145e-01
-5.0083808e-01
-4.1984737e-01
-3.2001012e-01
-1.9658807e-01
-9.6751083e-03
2.6298436e-01
5.5012780e-01
7.0158131e-01
6.9121406e-01
6.5666532e-01
6.3433798e-01
5.3607446e-01
3.1792655e-01
3.5137812e-02
-1.9571599e-01
-2.9989140e-01
-3.0592873e-01
-3.2350866e-01
-4.1121266e-01
-4.9833837e-01
-5.1794011e-01
-4.7025594e-01
-3.6755173e-01
-2.1262866e-01
-6.3193569e-03
2.3752263e-01
4.7871425e-01
6.0469702e-01
5.4558341e-01
3.9346219e-01
2.0893427e-01
-2.8047322e-02
-2.6587122e-01
-4.1577333e-01
-4.3183638e-01
-3.3133711e-01
-2.2010281e-01
-1.6544299e-01
-8.4974578e-02
1.0216775e-01
3.7692212e-01
6.5486107e-01
8.0752745e-01
7.2083892e-01
4.0342580e-01
-8.1636977e-03
-3.6538245e-01
-5.7715666e-01
-6.4541277e-01
-6.3661105e-01
-5.8729812e-01
-4.9475146e-01
-3.6293747e-01
-2.0755001e-01
-2.9662789e-02
1.7321857e-01
3.7112253e-01
5.3208557e-01
6.1786287e-01
5.5135986e-01
3.2703636e-01
5.8787904e-02
-1.4856606e-01
-2.6776202e-01
-2.8696195e-01
-1.7313279e-01
4.9613583e-02
2.8765302e-01
4.4067387e-01
4.4360110e-01
3.2081323e-01
1.4833395e-01
-2.9282153e-02
-1.8932935e-01
-3.0054321e-01
-3.5474361e-01
-3.8033281e-01
-4.0646451e-01
-4.4235332e-01
-4.8057019e-01
-4.9648060e-01
-4.5545082e-01
-3.4609002e-01
-1.6795946e-01
8.0941529e-02
3.7896791e-01
6.3413602e-01
7.3839373e-01
7.3411711e-01
7.4292134e-01
7.4827277e-01
6.3253089e-01
3.6119599e-01
-6.8578693e-03
-3.8120259e-01
-6.6166249e-01
-7.9182256e-01
-7.6069669e-01
-5.9969174e-01
-3.7962968e-01
-1.5072087e-01
4.6458442e-02
1.3194672e-01
7.7677308e-02
-8.5620547e-03
-6.2866833e-03
1.1222786e-01
3.4616215e-01
6.2883237e-01
7.8912988e-01
7.2058095e-01
4.5567673e-01
1.1219219e-01
-1.9244537e-01
-3.9598880e-01
-4.8392201e-01
-4.8361745e-01
-4.3445574e-01
-3.6185839e-01
-2.8029840e-01
-2.0379993e-01
-1.3804677e-01
-1.0571416e-01
-1.1582982e-01
-9.9797266e-02
-3.3110734e-03
1.3754164e-01
2.3843051e-01
2.7715937e-01
3.2591193e-01
4.0016635e-01
4.3365290e-01
3.3968039e-01
9.2480072e-02
-1.8430876e-01
-3.5981957e-01
-4.0890746e-01
-4.0710799e-01
-4.3486065e-01
-4.6354221e-01
-4.3399237e-01
-3.1107795e-01
-1.0408803e-01
1.4038173e-01
3.9873416e-01
6.2941293e-01
7.3144286e-01
6.3676078e-01
4.2751257e-01
2.5851587e-01
1.6565942e-01
7.7805465e-02
-6.5884688e-02
-2.7696421e-01
-4.9219563e-01
-6.1644830e-01
-6.1082679e-01
-5.3425156e-01
-4.4329762e-01
-3.0568800e-01
-1.0479237e-01
1.0564950e-01
2.5494741e-01
3.4690094e-01
4.6632474e-01
6.1441587e-01
6.7593350e-01
6.0311173e-01
4.8118771e-01
3.7078680e-01
2.3156926e-01
3.7504273e-02
-1.7180623e-01
-3.5253188e-01
-4.6585812e-01
-4.7583249e-01
-3.9756026e-01
-3.2239154e-01
-3.0378610e-01
-2.8616607e-01
-2.2116351e-01
-1.0273678e-01
3.7278958e-02
1.4983388e-01
2.3028075e-01
2.8666047e-01
2.9241128e-01
2.0337247e-01
4.1482558e-02
-1.1300839e-01
-2.0736110e-01
-2.1910315e-01
-1.6524341e-01
-9.7812952e-02
-5.7905618e-02
-6.3222215e-02
-9.6130076e-02
-1.1066689e-01
-7.4346567e-02
2.2812176e-03
7.4832904e-02
1.2091991e-01
1.4602637e-01
1.7487482e-01
2.3602822e-01
2.8651931e-01
2.6597544e-01
1.9446089e-01
1.3054197e-01
9.3171768e-02
4.7359028e-02
-4.8308120e-02
-1.9172424e-01
-3.2815646e-01
-3.9572343e-01
-3.8466581e-01
-3.1442608e-01
-2.1238312e-01
-1.0304620e-01
4.4285117e-03
6.4778822e-02
3.8425519e-02
-4.1387372e-02
-8.3287872e-02
4.3183651e-03
2.4182094e-01
5.3692182e-01
7.1140677e-01
6.7030229e-01
4.6701842e-01
1.6533728e-01
-1.9367797e-01
-5.1359692e-01
-6.9610637e-01
-7.3423754e-01
-6.6245284e-01
-5.0762221e-01
-2.7955772e-01
2.0985956e-02
3.5847160e-01
6.5959816e-01
8.4492459e-01
8.5744905e-01
6.8248977e-01
3.9131880e-01
6.8908858e-02
-2.5468469e-01
-4.9956421e-01
-6.0466218e-01
-6.0969902e-01
-5.4277050e-01
-4.0695468e-01
-2.3041620e-01
-5.6367387e-02
9.0315084e-02
2.0816408e-01
2.5374866e-01
1.6128963e-01
-8.2067819e-03
-1.1358867e-01
-1.1398771e-01
-3.6921489e-02
1.0974403e-01
3.1708114e-01
5.3415588e-01
6.3884288e-01
5.0299562e-01
1.5993903e-01
-2.1174930e-01
-4.9958070e-01
-6.9607202e-01
-8.0503031e-01
-8.0152173e-01
-6.5191098e-01
-3.6226857e-01
-4.0626396e-03
3.0925266e-01
5.1525077e-01
6.5611229e-01
7.7415565e-01
8.0263777e-01
6.8396410e-01
4.8620181e-01
3.2721291e-01
2.3395768e-01
1.0291603e-01
-1.5045696e-01
-4.5503616e-01
-6.7341920e-01
-7.6507913e-01
-7.3864181e-01
-6.0121720e-01
-3.7896599e-01
-8.0894657e-02
2.5155877e-01
4.7725021e-01
4.8107609e-01
3.3959232e-01
1.7523947e-01
-5.2312970e-03
-1.9026174e-01
-3.1203303e-01
-3.1122424e-01
-1.6311296e-01
1.2316672e-01
4.3396194e-01
5.6110909e-01
4.6185778e-01
2.5198835e-01
-1.3230896e-02
-2.9744390e-01
-5.2175933e-01
-6.2621934e-01
-6.0648530e-01
-4.9364809e-01
-3.3585536e-01
-1.5405115e-01
9.1547493e-02
3.9152227e-01
6.1843635e-01
6.6353865e-01
5.6123360e-01
4.4901433e-01
4.1831006e-01
4.2936613e-01
3.6927654e-01
1.6761695e-01
-1.0459591e-01
-3.4936440e-01
-5.5054574e-01
-6.7757217e-01
-7.0322637e-01
-6.4976312e-01
-5.4372245e-01
-3.8200611e-01
-1.4695459e-01
1.0655849e-01
2.9392721e-01
4.1061103e-01
4.7788263e-01
5.0231352e-01
4.9652721e-01
4.6518655e-01
4.0498559e-01
2.9495947e-01
9.8664322e-02
-1.4324172e-01
-3.2855099e-01
-4.2852529e-01
-4.5735817e-01
-4.1669874e-01
-3.3169328e-01
-2.3243483e-01
-1.4273151e-01
-1.2655926e-01
-2.0024075e-01
-2.5821212e-01
-2.0644332e-01
-3.2140850e-02
2.0113986e-01
3.9970151e-01
5.3409455e-01
6.0535461e-01
5.9951086e-01
5.0547803e-01
3.1908402e-01
9.2192420e-02
-6.7563971e-02
-1.4367673e-01
-2.4446116e-01
-4.1325391e-01
-5.7988295e-01
-6.7756906e-01
-6.6792510e-01
-5.4250603e-01
-3.2763685e-01
-4.0745915e-02
3.1708422e-01
6.6287711e-01
8.3565722e-01
7.6447507e-01
5.0582449e-01
2.0118747e-01
5.6946067e-03
-6.8935954e-02
-1.1798814e-01
-2.0378864e-01
-2.9941017e-01
-3.2808572e-01
-2.8914990e-01
-2.1771920e-01
-1.0662877e-01
4.7265720e-02
1.7798951e-01
1.7652959e-01
4.5401810e-02
-1.0321919e-01
-1.9999096e-01
-2.3140518e-01
-1.9946101e-01
-1.1402814e-01
1.4836392e-02
1.6190459e-01
2.8787781e-01
3.4093302e-01
3.0044757e-01
2.2007666e-01
1.6340026e-01
1.0563009e-01
-3.4300441e-02
-2.4201868e-01
-4.2687909e-01
-5.2777202e-01
-5.1129662e-01
-3.7902522e-01
-1.5702852e-01
1.3286490e-01
4.6089518e-01
7.3400559e-01
8.1249126e-01
6.5234348e-01
3.4085724e-01
8.3731676e-03
-2.5194711e-01
-4.0751333e-01
-4.6363861e-01
-4.4830472e-01
-3.8924203e-01
-3.2348531e-01
-2.7468016e-01
-1.9714021e-01
-3.6125149e-02
1.9417099e-01
3.8830668e-01
4.4899456e-01
4.0307609e-01
2.9763332e-01
1.5094604e-01
1.1673659e-02
-8.5565490e-02
-1.3857481e-01
-1.5626819e-01
-1.6582039e-01
-2.0193979e-01
-2.7876307e-01
-3.6468064e-01
-4.0694666e-01
-3.7660330e-01
-2.5963875e-01
-5.1638825e-02
2.2776185e-01
5.3973956e-01
7.9206353e-01
8.7201670e-01
7.1831834e-01
3.4298093e-01
-9.9928700e-02
-4.1909829e-01
-5.6687812e-01
-5.8796792e-01
-5.1024586e-01
-3.4530733e-01
-1.4382908e-01
2.8136327e-02
1.6688864e-01
3.0587076e-01
4.4053159e-01
5.1397556e-01
4.5515684e-01
2.5621519e-01
-1.0591714e-02
-2.5790870e-01
-4.2168686e-01
-4.7484018e-01
-4.3725641e-01
-3.4671534e-01
-2.2388643e-01
-1.0222811e-01
-7.1580292e-03
8.7207736e-02
1.9751505e-01
2.9645420e-01
3.0373067e-01
1.3218796e-01
-1.6373938e-01
-4.0856602e-01
-4.7149008e-01
-3.3584877e-01
-9.4388882e-02
1.6212119e-01
4.1731671e-01
6.1952800e-01
6.7180209e-01
5.4887491e-01
3.3468031e-01
1.5305057e-01
4.7134090e-02
-6.1273076e-02
-2.1546934e-01
-3.4145140e-01
-3.8967037e-01
-3.8148103e-01
-3.7174017e-01
-3.8535156e-01
-3.7654600e-01
-2.9849056e-01
-1.5044697e-01
-2.6645151e-03
1.1406294e-01
2.9363405e-01
5.6708264e-01
8.0618868e-01
8.3760278e-01
6.1360453e-01
2.7610394e-01
4.3940792e-05
-1.5525492e-01
-2.6001398e-01
-3.8997326e-01
-5.1368720e-01
-5.6554254e-01
-5.2114115e-01
-3.9950850e-01
-2.4902682e-01
-1.0750164e-01
1.4497510e-02
1.1102119e-01
1.5479604e-01
1.4589837e-01
1.4950138e-01
2.0983497e-01
2.8787368e-01
3.0332061e-01
1.8544646e-01
-5.5891485e-02
-2.9653924e-01
-4.0684495e-01
-3.6622974e-01
-2.3693518e-01
-5.9006072e-02
1.1058120e-01
1.7017920e-01
9.1039072e-02
-1.8803979e-02
-8.0123854e-03
1.2924702e-01
2.6277630e-01
2.9910211e-01
2.5616189e-01
1.7614847e-01
2.1771339e-02
-2.0502761e-01
-3.5413065e-01
-2.9995942e-01
-6.9008889e-02
2.0674390e-01
3.7636934e-01
4.5366476e-01
5.0607883e-01
4.3454251e-01
1.8017387e-01
-1.7231619e-01
-4.9350048e-01
-6.8191312e-01
-7.2342660e-01
-6.7476768e-01
-6.0760463e-01
-5.3016472e-01
-3.8407611e-01
-1.1042356e-01
2.8127829e-01
6.9265403e-01
9.9223237e-01
1.1013407e+00
1.0223289e+00
7.7203695e-01
4.0059695e-01
4.7799907e-02
-1.9746800e-01
-3.8158068e-01
-5.5165840e-01
-6.9938317e-01
-7.8693118e-01
-7.5849531e-01
-5.8947220e-01
-3.1735583e-01
-2.1476561e-02
2.4450272e-01
4.5573409e-01
5.4796611e-01
4.6076715e-01
2.1952619e-01
-4.9768621e-02
-1.9329007e-01
-1.9670422e-01
-1.7866149e-01
-1.7658797e-01
-9.2243380e-02
8.9431966e-02
2.1116900e-01
1.7986343e-01
6.6723323e-02
-2.6263997e-02
-6.3104458e-02
-1.0658188e-01
-2.2140842e-01
-3.2126092e-01
-2.3356441e-01
4.7377805e-02
3.4408270e-01
5.4220100e-01
6.4087124e-01
6.8653522e-01
6.9210494e-01
5.6722613e-01
2.6523265e-01
-1.0526190e-01
-3.9420976e-01
-5.6960500e-01
-6.8483250e-01
-7.4956288e-01
-7.4196209e-01
-6.6744388e-01
-5.4886791e-01
-4.0774086e-01
-2.6097511e-01
-8.6264297e-02
1.8460742e-01
5.3444491e-01
8.1472057e-01
9.1455885e-01
8.3785345e-01
6.6990098e-01
4.8519216e-01
2.6866065e-01
1.3740632e-02
-2.1931436e-01
-3.6553042e-01
-4.1460751e-01
-4.0099030e-01
-3.4608336e-01
-2.5881676e-01
-1.6049930e-01
-8.0096994e-02
-3.4456769e-02
-2.3056357e-02
-2.8598986e-02
-4.3643821e-02
-8.0567904e-02
-1.3218734e-01
-1.7621546e-01
-1.9315205e-01
-1.7772620e-01
-1.3271959e-01
-7.0573782e-02
-1.3106175e-02
4.7115350e-02
1.2303705e-01
1.5095898e-01
4.0942514e-02
-1.3912482e-01
-2.2181391e-01
-1.1802372e-01
1.3925798e-01
4.2333644e-01
6.0916518e-01
6.4446542e-01
5.4164190e-01
3.3018869e-01
6.2303210e-02
-2.0798770e-01
-4.5083021e-01
-6.1509012e-01
-6.6673542e-01
-6.3162031e-01
-5.0530523e-01
-2.5097313e-01
9.0321588e-02
3.7748575e-01
4.8520161e-01
4.0999834e-01
2.2225969e-01
4.2874024e-02
-7.7824816e-03
9.2851500e-02
2.7772157e-01
4.0805021e-01
4.0825979e-01
3.4942582e-01
2.9619352e-01
2.3506142e-01
1.2808728e-01
-4.8967557e-02
-2.8751154e-01
-5.2454221e-01
-6.6766987e-01
-6.8206052e-01
-6.1546623e-01
-5.1448512e-01
-3.8338999e-01
-2.1826802e-01
-1.9279494e-02
1.7681873e-01
3.2770007e-01
4.4781000e-01
5.6356915e-01
6.5768359e-01
6.8360915e-01
5.9490516e-01
3.8584799e-01
1.1105749e-01
-1.7343874e-01
-4.2259870e-01
-6.0058790e-01
-6.8669064e-01
-6.5845639e-01
-5.3210754e-01
-3.9962473e-01
-3.1153466e-01
-1.9903920e-01
8.3809502e-03
3.1820099e-01
6.6841314e-01
9.1659530e-01
9.2565080e-01
6.8673681e-01
2.9737318e-01
-1.1217976e-01
-4.2583328e-01
-5.9996471e-01
-6.3439462e-01
-5.4062345e-01
-3.7979886e-01
-2.2757832e-01
-7.5491624e-02
1.0991559e-01
2.4785781e-01
2.1239106e-01
6.1413627e-02
-6.2168675e-03
8.4875201e-02
2.5241608e-01
3.5024093e-01
3.1347890e-01
2.2402419e-01
1.5690959e-01
8.1172051e-02
-4.9579477e-02
-1.9147910e-01
-2.9324250e-01
-3.5625380e-01
-3.7866311e-01
-3.3409989e-01
-1.9038582e-01
5.8676302e-02
3.4861766e-01
5.1530507e-01
4.0347420e-01
7.2480966e-02
-2.4130118e-01
-3.9411010e-01
-3.9107535e-01
-2.8174473e-01
-9.1738776e-02
1.7996935e-01
4.5687612e-01
5.9725180e-01
5.3521599e-01
3.4552189e-01
1.4241160e-01
-7.1303266e-02
-3.1014631e-01
-5.2295024e-01
-6.5460309e-01
-6.6129284e-01
-5.6918273e-01
-4.3172192e-01
-2.3357047e-01
3.7356471e-02
3.4812169e-01
6.2779417e-01
7.8502039e-01
7.7428072e-01
6.0419179e-01
3.4251941e-01
9.7654089e-02
-4.0253084e-02
-6.2970045e-02
-6.6556457e-02
-1.4478814e-01
-2.8832690e-01
-4.2302212e-01
-4.7748148e-01
-4.2427774e-01
-3.0658719e-01
-2.0259591e-01
-1.5958042e-01
-1.6449602e-01
-1.5692073e-01
-7.9551617e-02
6.3185572e-02
2.2522850e-01
3.5892419e-01
4.2845828e-01
4.4244594e-01
4.3203454e-01
3.9431479e-01
2.9028644e-01
1.3454568e-01
1.4823924e-02
-4.6977974e-02
-1.1699017e-01
-2.3141084e-01
-3.4639864e-01
-3.9435128e-01
-3.4533889e-01
-2.0459735e-01
1.6712752e-02
2.3978339e-01
3.0924376e-01
1.8200827e-01
-2.7766245e-02
-2.0188654e-01
-2.7796208e-01
-2.5503066e-01
-1.7885434e-01
-7.1358759e-02
6.2087687e-02
1.6693602e-01
1.6842201e-01
5.7719138e-02
-1.0540869e-01
-2.3689475e-01
-2.7982331e-01
-2.3403841e-01
-1.1609771e-01
4.4231377e-02
2.5059033e-01
4.9445119e-01
6.4131840e-01
6.0719464e-01
4.4603014e-01
2.5127597e-01
7.9613510e-02
-9.0156493e-02
-2.8395185e-01
-4.7350828e-01
-5.9573138e-01
-6.3268268e-01
-6.1799968e-01
-5.5268535e-01
-4.1179456e-01
-2.0217986e-01
1.9246989e-02
1.8158349e-01
2.7293087e-01
3.5231745e-01
4.8551759e-01
6.3825888e-01
6.8583905e-01
5.5516870e-01
2.6256190e-01
-9.0646426e-02
-3.8034655e-01
-5.5290402e-01
-5.7704669e-01
-4.2738932e-01
-1.2450040e-01
2.0864932e-01
4.1714419e-01
4.8410421e-01
4.5261881e-01
3.3805417e-01
1.5302123e-01
-6.9344126e-02
-2.4084483e-01
-2.7833614e-01
-2.4914527e-01
-2.9538918e-01
-4.0199146e-01
-4.6264025e-01
-4.2376508e-01
-2.5760230e-01
2.5043633e-02
3.3231568e-01
5.6585959e-01
6.3342759e-01
5.2278619e-01
3.7214028e-01
2.8323526e-01
2.4811519e-01
1.9267999e-01
4.9430034e-02
-1.7781553e-01
-4.3010236e-01
-6.1949988e-01
-6.9561140e-01
-6.8099639e-01
-6.2271173e-01
-5.1592348e-01
-3.1543797e-01
-1.6356384e-02
3.0579533e-01
5.3385029e-01
5.8704552e-01
4.8076859e-01
3.2927712e-01
2.9274100e-01
3.9692973e-01
4.5444435e-01
3.1984231e-01
4.7852960e-02
-1.9912096e-01
-2.9406360e-01
-2.1223360e-01
-1.7816656e-02
1.5416653e-01
1.7692503e-01
4.8848194e-02
-1.2198897e-01
-2.5922000e-01
-3.6409737e-01
-4.4256457e-01
-4.6660105e-01
-3.9949182e-01
-2.2671311e-01
2.4818082e-02
2.5883618e-01
3.5927014e-01
3.0650339e-01
1.6492468e-01
1.0394234e-02
-7.8298316e-02
-4.6679940e-02
8.3349202e-02
2.2149644e-01
2.4825882e-01
1.4412522e-01
4.5714295e-02
4.3985588e-02
7.0820807e-02
3.0190671e-02
-6.8395211e-02
-1.5799987e-01
-2.1101110e-01
-2.5325943e-01
-3.1404151e-01
-3.6836934e-01
-3.6310933e-01
-2.6440253e-01
-6.9297852e-02
1.6804730e-01
3.4920572e-01
4.1217633e-01
3.6745236e-01
2.6056212e-01
1.3388617e-01
2.6840647e-02
-2.5793382e-02
-1.9393531e-02
-1.7211575e-02
-9.9433868e-02
-2.2908469e-01
-2.8744642e-01
-2.1034298e-01
-5.8656832e-02
6.8369651e-02
1.9916184e-01
3.6328925e-01
4.4872554e-01
3.4390460e-01
6.5532581e-02
-2.3432611e-01
-3.8639135e-01
-3.3349920e-01
-1.7160308e-01
-4.9995820e-02
3.2729330e-02
1.2801810e-01
1.4433079e-01
1.0717536e-02
-1.8936523e-01
-3.2351224e-01
-2.8245781e-01
-6.3981720e-02
1.8313652e-01
3.0418295e-01
3.2707967e-01
3.9604567e-01
5.1269172e-01
5.5435804e-01
4.5008164e-01
2.0809487e-01
-8.3969300e-02
-3.1456526e-01
-4.4675162e-01
-4.9384683e-01
-4.6841518e-01
-3.8130352e-01
-2.4858613e-01
-9.2512165e-02
4.6413378e-02
1.2618820e-01
1.3610285e-01
7.2140657e-02
-4.7023753e-02
-1.5671521e-01
-2.4184586e-01
-3.3426603e-01
-4.1190288e-01
-4.2852775e-01
-3.5296137e-01
-1.7715081e-01
7.3493583e-02
3.3311001e-01
5.1703331e-01
6.0479086e-01
6.3500848e-01
6.2326758e-01
5.3997056e-01
3.5352739e-01
1.0635470e-01
-7.9570941e-02
-1.1266506e-01
-4.5034626e-02
-1.3664870e-02
-7.3675900e-02
-1.8934062e-01
-3.0584902e-01
-3.7503882e-01
-3.7811740e-01
-3.3819759e-01
-2.9002376e-01
-2.4889265e-01
-2.1577174e-01
-1.6836439e-01
-7.2842968e-02
6.9128275e-02
2.1280932e-01
3.2146784e-01
3.8525817e-01
4.0671531e-01
4.0445824e-01
3.8539198e-01
3.0457299e-01
1.2203100e-01
-1.0794739e-01
-2.7317922e-01
-3.4583857e-01
-3.8649069e-01
-4.0081120e-01
-3.5401492e-01
-2.4847042e-01
-1.0233943e-01
2.4626458e-02
4.3714975e-02
-1.8149317e-02
-3.0548930e-02
3.9274435e-02
1.1358412e-01
1.8272660e-01
2.9469941e-01
4.3378207e-01
4.9583839e-01
3.8208455e-01
1.5508848e-01
-3.4502630e-02
-1.0739546e-01
-1.2777050e-01
-1.9230077e-01
-2.5239558e-01
-2.2920696e-01
-1.0770084e-01
4.4169859e-02
1.1230467e-01
8.4207245e-02
3.5610400e-03
-1.2261493e-01
-2.8245104e-01
-4.2066385e-01
-4.7629936e-01
-4.2515058e-01
-2.8749733e-01
-1.6001843e-01
-1.3180797e-01
-1.3767559e-01
-1.9425062e-02
2.7733702e-01
6.1746312e-01
8.4158248e-01
8.9864607e-01
7.9839756e-01
5.8572753e-01
2.9273386e-01
-5.2551107e-02
-3.3174995e-01
-4.1513099e-01
-2.7758475e-01
-7.2553581e-02
-3.5131765e-02
-1.7864489e-01
-3.5923680e-01
-4.9246949e-01
-5.5352854e-01
-5.3416878e-01
-4.0585955e-01
-1.4969298e-01
2.1393695e-01
5.7584726e-01
7.7914589e-01
7.5200480e-01
4.9505219e-01
1.2116085e-01
-2.2248902e-01
-5.0280215e-01
-6.8805674e-01
-7.2005576e-01
-6.0408049e-01
-4.1199261e-01
-1.9643711e-01
5.6765180e-02
3.5751976e-01
6.6471600e-01
8.6487618e-01
8.3197862e-01
5.8420294e-01
2.5701561e-01
-5.3085226e-02
-3.0565326e-01
-4.6100735e-01
-4.9425344e-01
-4.1865533e-01
-2.5600752e-01
-6.7111289e-02
5.3210407e-02
1.0247504e-01
1.7233983e-01
2.7745435e-01
2.9175981e-01
1.4623183e-01
-7.6267751e-02
-2.8059666e-01
-4.0354110e-01
-4.1161753e-01
-3.3834460e-01
-2.0334784e-01
4.3486352e-02
3.7698539e-01
6.2111416e-01
6.3925010e-01
4.8381246e-01
2.8695007e-01
1.2199444e-01
-3.1421598e-02
-2.2164155e-01
-4.0653438e-01
-5.0070418e-01
-4.8443457e-01
-3.7926128e-01
-2.0800969e-01
1.6353700e-02
2.7502894e-01
4.9176025e-01
5.5833470e-01
4.2506474e-01
1.5339299e-01
-1.2433307e-01
-3.2109954e-01
-4.2188283e-01
-4.3081383e-01
-3.5874650e-01
-2.3149617e-01
-1.1290188e-01
-7.3660903e-02
-9.9034819e-02
-1.1443460e-01
-6.6253230e-02
6.2468564e-02
2.1998305e-01
3.3416186e-01
4.1290498e-01
4.7741995e-01
4.5790176e-01
2.7731953e-01
-3.3879622e-03
-2.3819559e-01
-3.3615214e-01
-2.9908172e-01
-2.1480007e-01
-1.5272896e-01
-6.4179568e-02
1.0263876e-01
2.9510241e-01
3.7386515e-01
2.1903442e-01
-1.0543902e-01
-3.9880258e-01
-5.2685556e-01
-4.7692474e-01
-2.7675429e-01
3.0122098e-02
3.7189458e-01
6.2485292e-01
6.1689170e-01
3.2078050e-01
-6.3623159e-02
-3.2408759e-01
-3.9202189e-01
-3.2021660e-01
-1.7491723e-01
2.9715327e-02
2.5697908e-01
3.9096496e-01
3.1284976e-01
4.9516773e-02
-2.4238670e-01
-4.3096924e-01
-4.5502556e-01
-3.3593366e-01
-1.3828264e-01
1.1313013e-01
3.8810854e-01
5.7927105e-01
5.6627192e-01
3.5822605e-01
9.4930907e-02
-9.2642144e-02
-1.7766276e-01
-2.0190991e-01
-1.7537438e-01
-9.2188743e-02
1.5439428e-02
8.8565069e-02
6.5461490e-02
-6.6039052e-02
-2.2993206e-01
-3.4338630e-01
-3.8952427e-01
-3.9537039e-01
-3.7889286e-01
-3.1269288e-01
-1.6715392e-01
6.0411852e-02
3.1783859e-01
5.0381768e-01
5.7055010e-01
5.2491532e-01
3.5991755e-01
1.0615228e-01
-1.1852329e-01
-2.0413000e-01
-1.2920872e-01
6.3907073e-02
2.3115964e-01
1.9501800e-01
-1.0846765e-02
-2.0484149e-01
-3.0554807e-01
-3.3930179e-01
-3.4334672e-01
-3.2759255e-01
-2.7804502e-01
-1.8692467e-01
-7.4221765e-02
3.7049754e-02
1.5217161e-01
2.8081455e-01
4.1827692e-01
5.2646099e-01
5.3359075e-01
4.1106951e-01
1.9356303e-01
-4.5760577e-02
-2.5006367e-01
-4.1163102e-01
-4.9783811e-01
-4.4585203e-01
-2.1105908e-01
1.4887272e-01
4.4261298e-01
5.2870571e-01
3.9996940e-01
1.3438597e-01
-1.3229311e-01
-2.7858567e-01
-2.6351121e-01
-1.5903468e-01
-7.5188499e-02
-6.7853294e-02
-1.2335256e-01
-1.6427413e-01
-1.3978606e-01
-7.3339658e-02
-2.8018726e-02
-4.1481783e-02
-6.1383954e-02
-1.2446926e-02
1.2970251e-01
2.7618356e-01
2.7571398e-01
1.2004734e-01
-6.8697882e-02
-1.7744508e-01
-1.7862597e-01
-1.6155529e-01
-2.0017522e-01
-2.1237602e-01
-7.6737525e-02
1.7605220e-01
3.9071711e-01
4.6009071e-01
3.9003241e-01
2.1724808e-01
-8.3199085e-03
-1.9134094e-01
-2.4835684e-01
-1.5848642e-01
4.1042849e-02
2.1412966e-01
2.1951293e-01
1.0590545e-01
-3.3617797e-03
-6.2828105e-02
-1.1752952e-01
-2.3314789e-01
-3.5729971e-01
-4.1273871e-01
-4.0568955e-01
-3.4218890e-01
-2.1113824e-01
-5.8369020e-02
5.6506810e-02
1.1006743e-01
1.2119528e-01
1.4525094e-01
2.1750193e-01
3.5058807e-01
5.4846676e-01
7.4668317e-01
8.1307588e-01
6.7619615e-01
3.6452399e-01
-5.8677501e-03
-3.0340056e-01
-4.9213846e-01
-5.8756782e-01
-6.0813051e-01
-5.9862828e-01
-5.7634260e-01
-5.0312713e-01
-3.6466287e-01
-1.8636330e-01
-2.8474050e-02
6.0538995e-02
9.4917894e-02
1.2143561e-01
1.9859727e-01
3.3947899e-01
4.8867858e-01
5.7140085e-01
5.2300992e-01
3.1833651e-01
1.3617441e-02
-2.7295974e-01
-4.2593607e-01
-3.8415343e-01
-1.7016676e-01
1.1695943e-01
3.2187193e-01
3.4045688e-01
2.1183919e-01
2.7920042e-02
-1.3563268e-01
-2.3464288e-01
-2.7125850e-01
-2.5666260e-01
-1.9457314e-01
-9.5981207e-02
2.4825280e-02
1.2785011e-01
1.5041946e-01
8.4414208e-02
-3.1707701e-02
-1.4368654e-01
-1.9751079e-01
-1.8176544e-01
-1.1965577e-01
-4.0871603e-02
-3.0099347e-04
-3.1509763e-02
-7.2962075e-02
-5.5287750e-02
4.3611293e-02
2.0009507e-01
3.2422608e-01
3.4632731e-01
3.0135201e-01
2.3300864e-01
1.1493366e-01
-5.7079538e-02
-2.2730225e-01
-3.2927597e-01
-3.2398695e-01
-2.4048072e-01
-1.5167162e-01
-8.4299939e-02
-1.8671223e-02
4.7127360e-02
9.5954421e-02
1.1685489e-01
1.1248435e-01
8.9299222e-02
4.8965889e-02
-1.9603469e-02
-1.0969354e-01
-1.5644591e-01
-8.6198536e-02
1.3991207e-01
4.4958374e-01
6.6509138e-01
6.6529475e-01
4.4365603e-01
1.1112278e-01
-1.9264557e-01
-4.1138374e-01
-5.5165679e-01
-6.2987672e-01
-6.4195356e-01
-5.8134539e-01
-4.5608046e-01
-2.7757849e-01
-5.8724149e-02
1.6712474e-01
3.3045350e-01
3.8672745e-01
3.5768974e-01
2.8591562e-01
2.1062721e-01
1.2330045e-01
-2.8730679e-03
-1.3748671e-01
-2.2313126e-01
-2.2308928e-01
-1.5636992e-01
-8.8960352e-02
-3.4921563e-02
6.9241756e-02
2.5314044e-01
4.5636886e-01
6.0015323e-01
6.4130680e-01
5.2975958e-01
2.6985367e-01
-5.1629278e-02
-3.8579431e-01
-6.8053263e-01
-8.3808467e-01
-8.2547161e-01
-6.7325309e-01
-3.9937589e-01
-3.7480355e-02
3.4372296e-01
6.3719672e-01
7.1254364e-01
5.2873097e-01
2.0303858e-01
-6.4895588e-02
-1.2933382e-01
-6.1830632e-02
-3.6355342e-02
-2.1255818e-02
6.2964389e-02
1.5337701e-01
1.7058488e-01
8.4436885e-02
-4.8482210e-02
-1.0448561e-01
-2.9091612e-02
7.1645355e-02
6.9512341e-02
3.6178572e-03
-4.8226562e-02
-8.0221743e-02
-1.0961797e-01
-1.7801531e-01
-2.8749676e-01
-4.0647242e-01
-4.9631480e-01
-4.9594611e-01
-3.8230087e-01
-1.6523264e-01
1.4007145e-01
4.7633600e-01
7.1889543e-01
7.3628028e-01
5.3692249e-01
2.8949983e-01
1.3402007e-01
3.8551336e-02
-6.9296947e-02
-1.5622469e-01
-1.7270865e-01
-1.0869838e-01
-4.1728822e-02
-1.0535785e-01
-2.8703403e-01
-4.6756773e-01
-5.8506711e-01
-6.1794270e-01
-5.3902751e-01
-3.4520403e-01
-7.1010833e-02
2.1271873e-01
4.2185548e-01
5.1348191e-01
5.1103398e-01
5.1516869e-01
6.3083645e-01
8.0335540e-01
8.7179859e-01
7.5664698e-01
4.6899615e-01
8.8698352e-02
-2.8168366e-01
-5.8992395e-01
-7.9923125e-01
-8.7481995e-01
-8.1502973e-01
-6.4707108e-01
-4.2059868e-01
-1.8223985e-01
5.0283947e-02
2.4796401e-01
3.4398638e-01
3.0689763e-01
1.8305526e-01
2.7156097e-02
-1.2722545e-01
-2.3513127e-01
-2.4813502e-01
-1.5883679e-01
-8.9818525e-03
1.4672346e-01
2.7800494e-01
3.6808858e-01
4.0286605e-01
4.1038210e-01
4.3008016e-01
4.1218267e-01
2.5569358e-01
-1.2069901e-02
-2.6870641e-01
-4.4525038e-01
-5.1788623e-01
-5.0438833e-01
-4.5793604e-01
-4.1874483e-01
-4.1208576e-01
-4.1415737e-01
-3.5000941e-01
-1.9238589e-01
3.3280036e-02
2.9312521e-01
5.1936362e-01
6.3036141e-01
6.2896850e-01
5.9411773e-01
5.6564788e-01
4.9658545e-01
3.1572227e-01
3.9629430e-02
-2.4196876e-01
-4.3837610e-01
-4.8633553e-01
-4.1520371e-01
-3.0213144e-01
-1.4697605e-01
8.3227820e-02
2.9825034e-01
3.3142792e-01
1.7554716e-01
-3.7447613e-02
-2.1254196e-01
-2.9693095e-01
-2.7749606e-01
-2.0380167e-01
-1.3609990e-01
-1.0391975e-01
-9.1758186e-02
-7.5378973e-02
-5.8785690e-02
-3.1768215e-02
3.9688242e-02
1.6137606e-01
2.6941769e-01
3.1145799e-01
3.1754573e-01
3.1165802e-01
2.4650412e-01
8.4186437e-02
-1.2797686e-01
-3.2218300e-01
-4.5400525e-01
-4.9188198e-01
-4.3768725e-01
-3.1416138e-01
-1.4577404e-01
4.6385304e-02
1.8725993e-01
1.7946138e-01
8.3792414e-02
3.3031748e-02
7.2352219e-02
1.7688848e-01
2.4000604e-01
1.6474694e-01
4.0362065e-03
-9.0445118e-02
-8.4120199e-02
-7.6750780e-02
-7.9644005e-02
-2.1289752e-02
1.4767872e-01
3.8275067e-01
5.2900712e-01
4.8331717e-01
2.9351006e-01
1.0411770e-01
-2.9299197e-02
-1.8180547e-01
-3.7205373e-01
-5.4015155e-01
-6.0770341e-01
-5.1762331e-01
-2.9819370e-01
-4.2820378e-02
1.1854032e-01
1.7665068e-01
2.3290908e-01
2.6543536e-01
2.5996554e-01
2.8292706e-01
3.5055482e-01
4.0676684e-01
3.3546907e-01
1.0532298e-01
-1.5707295e-01
-3.1409695e-01
-3.4629233e-01
-3.1662020e-01
-2.6202583e-01
-1.8531982e-01
-9.5701802e-02
-2.1619615e-02
9.9198468e-03
1.3716254e-02
3.3688804e-02
8.5191630e-02
1.1099814e-01
5.6287235e-02
-2.9028622e-02
-6.1274623e-02
1.9690739e-03
1.3608534e-01
2.1025548e-01
1.3213750e-01
-8.2920673e-03
-8.1553653e-02
-1.0531987e-01
-1.7110673e-01
-2.7165317e-01
-3.4250316e-01
-3.5082350e-01
-3.0161123e-01
-2.4406859e-01
-1.9377101e-01
-8.9208501e-02
1.1545217e-01
3.3011373e-01
3.8315018e-01
2.5732322e-01
1.1206225e-01
1.0154277e-01
2.2126543e-01
3.1605287e-01
2.8189377e-01
1.6446921e-01
3.0077586e-02
-8.5378413e-02
-1.2334960e-01
-6.7767064e-02
4.7060492e-02
1.9265676e-01
3.2677992e-01
3.7125590e-01
2.8886841e-01
1.5199768e-01
5.9130788e-02
-1.5606186e-02
-1.5253230e-01
-2.9543943e-01
-3.5230588e-01
-3.1712720e-01
-2.6370881e-01
-2.9146745e-01
-3.9096202e-01
-4.7143681e-01
-4.7545172e-01
-3.9442121e-01
-2.4448959e-01
-4.4762777e-02
1.9274761e-01
4.5526525e-01
7.1514300e-01
8.7683744e-01
7.9693411e-01
4.8834652e-01
1.3084606e-01
-1.4582680e-01
-3.1573723e-01
-3.8566540e-01
-3.6398845e-01
-2.7890098e-01
-1.8831243e-01
-1.3869896e-01
-1.2188487e-01
-1.0433362e-01
-7.9683862e-02
-5.9845526e-02
-2.9857549e-02
3.2748423e-02
1.2292327e-01
2.3616692e-01
3.2462145e-01
3.0076661e-01
1.6814076e-01
1.6546991e-02
-8.6631855e-02
-1.4136969e-01
-1.7765584e-01
-2.0223976e-01
-2.0109130e-01
-1.5993230e-01
-9.3867757e-02
-6.6826253e-02
-1.1120511e-01
-1.6144744e-01
-1.3188712e-01
-5.1564474e-02
-3.7880094e-02
-9.5028816e-02
-1.0101403e-01
4.0132317e-02
3.3068190e-01
6.2442315e-01
7.1343233e-01
5.7070087e-01
3.7355382e-01
2.1930605e-01
2.7204882e-02
-2.2700030e-01
-4.6819100e-01
-6.2279885e-01
-6.5436076e-01
-5.8350588e-01
-4.5137600e-01
-2.8257394e-01
-7.5837555e-02
1.2947458e-01
2.5670854e-01
3.2627811e-01
3.9564284e-01
4.6435316e-01
5.0351026e-01
4.2454170e-01
1.8238770e-01
-9.3777340e-02
-2.3168361e-01
-2.5281013e-01
-2.9689100e-01
-3.6240686e-01
-3.7153792e-01
-2.8898996e-01
-1.1396031e-01
7.4417972e-02
1.7686248e-01
1.6213931e-01
1.1139608e-01
1.2451266e-01
1.7044212e-01
2.3049869e-01
3.3791352e-01
4.7738672e-01
5.4046283e-01
3.8718159e-01
5.0830144e-02
-2.8980194e-01
-5.0269201e-01
-5.8296683e-01
-5.8202889e-01
-5.1489432e-01
-3.7010028e-01
-1.6344812e-01
4.5567282e-02
1.7404556e-01
1.7608523e-01
1.1346854e-01
9.9361045e-02
1.3219487e-01
1.2564514e-01
9.4320154e-02
1.1738671e-01
2.3249927e-01
3.7921207e-01
3.8654859e-01
1.6682737e-01
-1.5620192e-01
-4.0674818e-01
-5.3355973e-01
-5.6323811e-01
-4.8549709e-01
-2.7971646e-01
2.5059560e-02
3.1770503e-01
4.4207482e-01
3.8167066e-01
3.0361758e-01
3.5043000e-01
4.5323517e-01
4.2985873e-01
2.4593798e-01
1.6715230e-03
-2.0091193e-01
-3.0539373e-01
-3.4575184e-01
-3.9178053e-01
-4.7351087e-01
-5.6471495e-01
-6.1369296e-01
-5.9816728e-01
-5.2351096e-01
-3.8503746e-01
-1.5838564e-01
1.7386824e-01
5.7581067e-01
9.1877427e-01
1.0779426e+00
1.0956087e+00
1.0411377e+00
8.4099901e-01
4.5113220e-01
-2.6753264e-02
-4.4086921e-01
-7.0725755e-01
-8.3794729e-01
-8.8418763e-01
-8.6472689e-01
-7.6776060e-01
-6.0434959e-01
-4.0319335e-01
-1.7727073e-01
9.2042449e-02
4.0977645e-01
6.9861508e-01
8.0495394e-01
6.7683434e-01
4.7609982e-01
4.0682749e-01
4.5198760e-01
4.0713032e-01
2.0038403e-01
-6.5555908e-02
-2.8582744e-01
-4.1611160e-01
-4.4974948e-01
-4.0490094e-01
-3.2582112e-01
-2.4955098e-01
-1.9539706e-01
-1.7097639e-01
-1.6976064e-01
-1.7949826e-01
-1.7986042e-01
-1.4716742e-01
-7.5742825e-02
3.1257742e-02
1.7388235e-01
3.7975110e-01
5.8415981e-01
6.1458344e-01
4.3316660e-01
1.3523418e-01
-1.6351641e-01
-3.6990425e-01
-4.5386562e-01
-4.3219601e-01
-3.4549372e-01
-2.3467392e-01
-1.4855849e-01
-1.1455782e-01
-9.7841538e-02
-5.3652186e-02
3.5040714e-02
1.5741174e-01
2.2605372e-01
1.3328540e-01
-8.6064249e-02
-2.8278964e-01
-3.6356829e-01
-3.2335485e-01
-1.5295874e-01
1.4311463e-01
4.9814746e-01
8.0820549e-01
9.7935324e-01
9.6847499e-01
7.7549654e-01
4.7239778e-01
1.4754238e-01
-1.7202813e-01
-4.3889050e-01
-5.8782153e-01
-5.9732531e-01
-4.7698488e-01
-3.0547781e-01
-1.9491047e-01
-1.5986059e-01
-1.4452907e-01
-1.3159226e-01
-1.2473384e-01
-1.0094849e-01
-5.1104855e-02
1.9408291e-02
6.6501739e-02
1.3051635e-02
-1.2172130e-01
-2.2817323e-01
-2.4003846e-01
-1.7303961e-01
-2.5539592e-02
2.0318917e-01
4.5932016e-01
6.6003429e-01
6.8580033e-01
4.7914258e-01
1.2315821e-01
-2.2522984e-01
-4.3973452e-01
-5.2424159e-01
-5.5426328e-01
-5.2977191e-01
-4.1331687e-01
-2.0169972e-01
6.0407083e-02
2.6044156e-01
3.1377691e-01
2.9091781e-01
3.4834380e-01
4.5908843e-01
4.4559993e-01
3.1756504e-01
2.2729139e-01
2.5527133e-01
3.2068706e-01
2.2813636e-01
-3.3953560e-02
-2.7923350e-01
-4.1956035e-01
-4.7659676e-01
-4.6883389e-01
-4.2202012e-01
-3.5356998e-01
-2.7116954e-01
-1.9577666e-01
-1.6287654e-01
-1.7929439e-01
-1.8384604e-01
-1.3415291e-01
-3.8017916e-02
1.0396584e-01
2.8096793e-01
4.5616161e-01
5.7969933e-01
5.8847323e-01
4.4443053e-01
1.9212802e-01
-6.7441982e-02
-2.5973701e-01
-3.5180659e-01
-3.4980098e-01
-2.8620356e-01
-1.6505854e-01
3.1725821e-02
2.3662342e-01
3.0709586e-01
2.3049816e-01
1.4105364e-01
1.4463511e-01
1.7809466e-01
1.0569444e-01
-4.7086215e-02
-1.7819906e-01
-2.6365311e-01
-3.1204804e-01
-3.1641445e-01
-2.7835734e-01
-2.1440871e-01
-1.4578091e-01
-1.0517678e-01
-1.0495575e-01
-1.0584863e-01
-4.3553352e-02
1.0619135e-01
2.8648819e-01
3.8256128e-01
3.3200779e-01
1.8112309e-01
-2.9544020e-03
-1.3477845e-01
-1.2141435e-01
3.0124934e-02
2.4202361e-01
4.2208603e-01
4.7268505e-01
3.4663665e-01
1.1052538e-01
-1.0882437e-01
-2.4334337e-01
-3.2148683e-01
-4.1010113e-01
-5.1214141e-01
-5.6626386e-01
-5.2684833e-01
-4.0261766e-01
-2.1231727e-01
4.8211119e-02
3.5413224e-01
6.6275156e-01
8.9604775e-01
9.2359502e-01
7.1484460e-01
3.6135452e-01
-2.5720664e-02
-3.3741353e-01
-5.0495104e-01
-5.2432009e-01
-4.4460903e-01
-3.4846313e-01
-2.8386178e-01
-2.4000950e-01
-1.9415568e-01
-1.2760201e-01
-3.7551011e-02
5.5442432e-02
1.2951277e-01
1.8407550e-01
2.3051036e-01
2.4570907e-01
2.0895609e-01
1.5698481e-01
1.2160416e-01
1.0834291e-01
1.1282753e-01
8.8648848e-02
-1.6811406e-02
-1.8073356e-01
-3.2543210e-01
-4.1220142e-01
-4.3153076e-01
-3.5921298e-01
-2.1285551e-01
-3.7347615e-02
1.3201093e-01
2.5346359e-01
2.9960757e-01
2.6151521e-01
1.7951440e-01
1.6416790e-01
2.4131419e-01
3.0047079e-01
2.5209663e-01
9.3544106e-02
-8.7863176e-02
-1.8695051e-01
-1.6627882e-01
-7.2891888e-02
1.2873311e-02
2.0772217e-02
-8.9443653e-02
-2.6034352e-01
-3.9349886e-01
-4.3592282e-01
-3.6792714e-01
-2.0822991e-01
-3.2477741e-02
7.8957766e-02
1.0687391e-01
9.1700069e-02
1.1585253e-01
2.4445305e-01
4.4926872e-01
6.5154982e-01
7.5678965e-01
6.5478861e-01
3.2748579e-01
-8.0546686e-02
-3.9205447e-01
-5.5233053e-01
-5.8423213e-01
-5.0477572e-01
-3.3999942e-01
-1.3290004e-01
4.5849014e-02
1.0969262e-01
4.5393110e-02
-6.3799020e-02
-1.2472271e-01
-9.9394053e-02
-1.8044916e-02
5.9360060e-02
1.0635693e-01
1.2593435e-01
9.6886692e-02
4.9343027e-03
-8.9206877e-02
-9.0759643e-02
4.2797887e-02
2.6233388e-01
4.4553588e-01
4.8618182e-01
3.6060331e-01
1.0546121e-01
-1.8451232e-01
-3.9459538e-01
-4.6133011e-01
-4.0289814e-01
-3.4840243e-01
-3.5263211e-01
-3.0060519e-01
-1.3509601e-01
1.1440326e-01
3.8716463e-01
5.6523436e-01
5.4495743e-01
3.4767455e-01
1.0508194e-01
-8.8846191e-02
-2.2363164e-01
-3.0478841e-01
-3.2005973e-01
-2.6000786e-01
-1.2748559e-01
1.3331581e-02
3.4802756e-02
-8.4402894e-02
-2.1149154e-01
-2.1785024e-01
-5.8516868e-02
1.8415978e-01
3.6354342e-01
4.6875908e-01
5.4934752e-01
5.7143317e-01
4.6762053e-01
2.4890452e-01
3.1014891e-02
-1.1025815e-01
-1.9753478e-01
-2.8607573e-01
-4.0149145e-01
-5.1250107e-01
-5.7551236e-01
-5.7374636e-01
-5.1480639e-01
-4.1511527e-01
-2.8494707e-01
-1.3238783e-01
3.2824876e-02
2.0205542e-01
3.6329679e-01
4.6195571e-01
4.3637385e-01
3.0621553e-01
1.6908074e-01
1.3975609e-01
2.2414657e-01
3.3331265e-01
4.2571719e-01
4.4339635e-01
2.9488028e-01
7.3635396e-03
-2.9718882e-01
-5.1337848e-01
-6.1037323e-01
-6.0567108e-01
-4.9393026e-01
-2.6669795e-01
5.0608781e-02
3.8117021e-01
6.3154916e-01
7.2125191e-01
5.9341809e-01
2.7994627e-01
-1.0225880e-01
-4.3244694e-01
-6.4198694e-01
-7.1543210e-01
-6.7005113e-01
-5.2557456e-01
-2.8582699e-01
3.2221914e-02
3.2886098e-01
4.2658408e-01
2.5657074e-01
-6.9900909e-03
-1.2359023e-01
-1.4449408e-02
1.9534808e-01
3.8042406e-01
5.7709782e-01
7.5096602e-01
7.4955701e-01
5.1759732e-01
1.4799374e-01
-1.8995398e-01
-3.8177401e-01
-4.2831652e-01
-4.2154124e-01
-4.4190997e-01
-4.7787981e-01
-4.9512375e-01
-4.7899072e-01
-4.1964682e-01
-2.9999952e-01
-9.3219016e-02
1.9791641e-01
4.8106663e-01
5.9408857e-01
5.1573766e-01
4.0204880e-01
3.3260812e-01
2.4893904e-01
6.7022195e-02
-2.0787983e-01
-4.5790466e-01
-5.8085786e-01
-5.5243192e-01
-4.2502935e-01
-2.5788138e-01
-3.5546643e-02
2.4922891e-01
5.3391920e-01
6.9931192e-01
6.1614418e-01
3.1701623e-01
1.8786029e-02
-1.3571148e-01
-2.3485429e-01
-3.8376955e-01
-5.0801177e-01
-5.1913418e-01
-3.9717778e-01
-1.6122378e-01
1.3015791e-01
4.3932798e-01
7.1155065e-01
8.0818539e-01
5.9572642e-01
1.6468764e-01
-2.3859270e-01
-5.0615180e-01
-6.3934929e-01
-6.4063674e-01
-5.3266642e-01
-3.3518872e-01
-6.7141361e-02
2.2350514e-01
4.2720125e-01
4.9676915e-01
5.3329842e-01
5.5465882e-01
4.6503045e-01
2.2032183e-01
-1.2074775e-01
-4.1445033e-01
-5.4792131e-01
-4.9148685e-01
-3.2452975e-01
-1.4775953e-01
3.8612546e-02
2.3116251e-01
3.4434437e-01
2.6954524e-01
2.3704957e-02
-2.3386926e-01
-3.8635741e-01
-4.2475469e-01
-3.8801682e-01
-2.8945618e-01
-9.8129330e-02
1.7960954e-01
4.4838276e-01
5.4654409e-01
4.4220737e-01
3.2046516e-01
3.0873509e-01
3.4560001e-01
2.8598861e-01
1.0568378e-01
-5.2741572e-02
-1.3999218e-01
-2.0590580e-01
-2.9098837e-01
-4.1651043e-01
-5.2231072e-01
-5.3877495e-01
-4.5468434e-01
-3.1622534e-01
-1.6611343e-01
2.1773544e-02
2.4624844e-01
4.1728655e-01
4.1525967e-01
2.6281496e-01
1.4142265e-01
1.4117398e-01
1.7177454e-01
7.6632869e-02
-1.3882751e-01
-3.0960249e-01
-3.8837237e-01
-4.7698294e-01
-7.0111727e-01
-1.0075932e+00
-1.1522554e+00
-1.0012615e+00
-6.0292542e-01
-7.6607807e-02
