3.3398949e-03
1.2201244e-02
-4.3056136e-03
-6.0132367e-02
-1.5827564e-01
-2.4805865e-01
-2.5529808e-01
-1.4180976e-01
5.7609010e-02
2.3797286e-01
3.7574967e-01
5.4095743e-01
7.1909560e-01
8.1195444e-01
7.3954773e-01
4.7477058e-01
1.0339234e-01
-2.0137591e-01
-3.5702214e-01
-4.0841544e-01
-4.0453431e-01
-3.4788236e-01
-2.3525358e-01
-8.5231875e-02
4.6853963e-02
9.6380473e-02
7.5080468e-02
3.9749784e-02
-2.9173560e-03
-6.4927724e-02
-1.2644866e-01
-1.6781462e-01
-1.8570186e-01
-1.8046564e-01
-1.5604490e-01
-1.1552844e-01
-5.5734219e-02
2.2808003e-02
9.5133096e-02
1.0067952e-01
3.3485398e-02
-1.6532694e-02
5.0075034e-03
7.8148765e-02
1.4293949e-01
1.4651629e-01
1.1417167e-01
9.3196809e-02
7.8278059e-02
1.5404275e-02
-1.0701487e-01
-2.1295546e-01
-2.5257548e-01
-2.4097459e-01
-1.9809545e-01
-1.0967018e-01
5.2368870e-02
2.6597954e-01
4.1717253e-01
3.6047434e-01
1.1253740e-01
-1.5456026e-01
-3.3276250e-01
-4.0304241e-01
-3.5695016e-01
-1.8905035e-01
8.2773144e-02
3.7852724e-01
5.6935751e-01
5.5175688e-01
3.5154591e-01
9.3221281e-02
-1.5230061e-01
-3.5736022e-01
-4.9263370e-01
-5.3389743e-01
-4.5087096e-01
-2.8169982e-01
-1.4719045e-01
-1.3510500e-01
-1.8682884e-01
-1.4745383e-01
3.4033478e-02
2.8343182e-01
4.9873042e-01
6.5300828e-01
7.8360367e-01
8.5439732e-01
7.9750773e-01
5.9636893e-01
2.8999722e-01
-4.5181172e-02
-3.3224667e-01
-5.2066536e-01
-6.0044022e-01
-5.8201178e-01
-4.7905622e-01
-3.2092628e-01
-1.7022502e-01
-9.9642806e-02
-1.0150964e-01
-8.7516868e-02
-1.4067888e-02
9.4723948e-02
1.6528767e-01
1.5795525e-01
1.5408763e-01
2.1016860e-01
2.5910718e-01
1.9073879e-01
3.6463863e-03
-1.8868944e-01
-3.2490806e-01
-4.1103902e-01
-4.5291194e-01
-4.4446321e-01
-3.7435029e-01
-2.5678167e-01
-1.3167343e-01
-4.4866421e-03
1.6798871e-01
4.1853887e-01
6.9464030e-01
8.6003966e-01
8.1474645e-01
5.7315177e-01
2.4452601e-01
-5.2915524e-02
-2.6857783e-01
-4.1707096e-01
-5.2643052e-01
-5.9090457e-01
-5.9338695e-01
-5.2678454e-01
-3.8133217e-01
-1.4548552e-01
1.6130591e-01
4.4655824e-01
5.8345874e-01
5.2457212e-01
3.6538914e-01
2.3335573e-01
1.5441978e-01
1.0063733e-01
5.0162452e-02
-6.2132285e-03
-6.0073151e-02
-1.0978480e-01
-1.5547446e-01
-1.8754530e-01
-2.0313435e-01
-2.0759958e-01
-1.9680604e-01
-1.7243404e-01
-1.4856412e-01
-1.1452619e-01
-5.0253792e-02
3.9868344e-02
1.1366527e-01
1.0500867e-01
-1.7105773e-04
-1.4561676e-01
-2.6957829e-01
-3.3126536e-01
-3.0042429e-01
-1.6414732e-01
5.7648642e-02
2.7850269e-01
3.6704900e-01
2.4705853e-01
8.1972233e-03
-1.5950267e-01
-1.9244243e-01
-1.4914291e-01
-5.9391977e-02
1.0903148e-01
3.5267374e-01
5.7301905e-01
6.8757508e-01
6.8172954e-01
5.6827647e-01
3.8372854e-01
1.6687531e-01
-6.4700597e-02
-2.8854081e-01
-4.5799696e-01
-5.4238275e-01
-5.3767690e-01
-4.5678712e-01
-3.2527748e-01
-1.9679685e-01
-1.4698037e-01
-1.6851646e-01
-1.8333413e-01
-1.4274584e-01
-2.3775054e-02
1.8446725e-01
4.1769715e-01
5.4032369e-01
4.6323399e-01
2.4511948e-01
2.5542370e-02
-1.3420495e-01
-2.3241824e-01
-2.6864025e-01
-2.5329942e-01
-2.0189110e-01
-1.3797615e-01
-1.1070286e-01
-1.5300691e-01
-2.0518799e-01
-1.6914717e-01
3.9327684e-04
2.8190162e-01
5.7125458e-01
7.2672777e-01
6.7210130e-01
4.3145305e-01
1.1033657e-01
-1.7011307e-01
-3.5099074e-01
-4.3176170e-01
-4.2124909e-01
-3.4040566e-01
-2.4058135e-01
-1.7947521e-01
-1.7055586e-01
-1.7679048e-01
-1.6705442e-01
-1.4336981e-01
-1.1102119e-01
-6.0262126e-02
1.2413622e-02
1.0818437e-01
2.3282197e-01
4.0423737e-01
6.0894505e-01
7.3823145e-01
6.8318700e-01
4.4170453e-01
1.2015161e-01
-1.5731964e-01
-3.4347205e-01
-4.4177923e-01
-4.6570412e-01
-4.2623293e-01
-3.3718561e-01
-2.3784647e-01
-2.0521598e-01
-2.6711509e-01
-3.3803403e-01
-3.4709991e-01
-2.7969704e-01
-1.3538815e-01
6.2520934e-02
2.9111530e-01
5.4027521e-01
7.5890438e-01
8.3999317e-01
7.1986835e-01
4.3741223e-01
7.8981394e-02
-2.6921089e-01
-5.2536228e-01
-6.5136574e-01
-6.4964436e-01
-5.2689922e-01
-3.0449479e-01
-7.4815739e-02
7.2753502e-02
1.8108874e-01
3.0216683e-01
3.8748631e-01
3.7261140e-01
2.7363063e-01
1.9219859e-01
2.2747118e-01
3.3215290e-01
3.2321241e-01
1.2203547e-01
-1.6032244e-01
-3.9900022e-01
-5.6157793e-01
-6.5577650e-01
-6.8132501e-01
-6.2584169e-01
-4.7782136e-01
-2.4000261e-01
3.6261344e-02
2.8546251e-01
5.0240044e-01
6.7958570e-01
7.9167938e-01
8.0792547e-01
6.7566190e-01
4.2010256e-01
1.6042827e-01
-4.1977772e-02
-2.2705213e-01
-4.0191261e-01
-5.3158323e-01
-6.1850588e-01
-6.6265129e-01
-6.4718860e-01
-5.6719325e-01
-4.1754609e-01
-1.8293808e-01
1.2202315e-01
4.0958267e-01
6.1820931e-01
7.5393972e-01
7.9439291e-01
6.9394107e-01
4.4133219e-01
1.2277246e-01
-1.2600560e-01
-2.4856251e-01
-2.7448705e-01
-2.7125323e-01
-2.8226038e-01
-3.0089885e-01
-3.1129409e-01
-3.0041926e-01
-2.6029633e-01
-1.9216777e-01
-8.8568304e-02
5.6147351e-02
2.1954409e-01
3.6674012e-01
4.2802903e-01
3.5802795e-01
2.3038338e-01
1.1971106e-01
2.7146554e-02
-6.6264600e-02
-1.5620860e-01
-2.2231454e-01
-2.5941226e-01
-2.8928103e-01
-3.3973680e-01
-4.0010626e-01
-4.4078954e-01
-4.4275264e-01
-3.9767970e-01
-2.9944204e-01
-1.2872921e-01
1.2758999e-01
4.2505989e-01
6.5743711e-01
7.3029728e-01
6.8334250e-01
6.4493434e-01
6.1706387e-01
4.8413312e-01
1.7977460e-01
-2.1687712e-01
-5.4960254e-01
-7.4807322e-01
-8.2173186e-01
-7.8442777e-01
-6.4765172e-01
-4.2145711e-01
-1.3606302e-01
1.1886274e-01
2.6289910e-01
3.5752624e-01
5.1857884e-01
7.1376113e-01
8.1640431e-01
7.5924520e-01
5.6910011e-01
3.1495540e-01
3.6146409e-02
-2.2609092e-01
-3.9818642e-01
-4.2691456e-01
-3.2329237e-01
-1.5504502e-01
-2.3234902e-02
-3.6008629e-02
-1.8313568e-01
-3.2868685e-01
-3.9812023e-01
-3.9178464e-01
-3.0667006e-01
-1.4546421e-01
7.9291138e-02
3.4370294e-01
5.5597500e-01
5.7782742e-01
4.2678857e-01
2.3872404e-01
5.4128222e-02
-1.2213462e-01
-2.5721323e-01
-3.3099235e-01
-3.3731660e-01
-2.8429372e-01
-2.1286266e-01
-2.0201534e-01
-2.6263002e-01
-3.0315404e-01
-2.6035049e-01
-1.2644286e-01
8.3466167e-02
3.2906932e-01
5.7119461e-01
7.5217664e-01
7.6507708e-01
5.4831376e-01
2.0827451e-01
-8.7831091e-02
-2.7835064e-01
-3.7437776e-01
-3.9731916e-01
-3.6230568e-01
-2.7323051e-01
-1.4367003e-01
-4.9919084e-02
-9.8808365e-02
-2.6497887e-01
-4.1727507e-01
-4.8589186e-01
-4.5702774e-01
-3.1588938e-01
-5.9885977e-02
2.8699169e-01
6.5126365e-01
9.1362523e-01
9.8645309e-01
8.8092833e-01
6.5869406e-01
3.4215728e-01
-2.2158027e-02
-3.2230977e-01
-4.9458720e-01
-5.4511615e-01
-4.9694870e-01
-3.9835890e-01
-3.3666177e-01
-3.3991444e-01
-3.2981335e-01
-2.6343320e-01
-1.8131307e-01
-1.1329198e-01
-1.2425789e-02
1.7614611e-01
4.2008258e-01
6.1823628e-01
6.5139830e-01
5.2294372e-01
3.5441223e-01
1.7825184e-01
-2.1299075e-02
-1.8678755e-01
-2.6009429e-01
-2.3571007e-01
-1.2836666e-01
-4.6372366e-03
-2.5004036e-03
-1.5443032e-01
-3.3693987e-01
-4.6763456e-01
-5.3812384e-01
-5.4269590e-01
-4.7006700e-01
-2.9666569e-01
-1.3185823e-02
3.2086948e-01
5.7749804e-01
7.0063129e-01
7.5728727e-01
7.5463407e-01
6.0344391e-01
3.0236944e-01
-1.1926875e-02
-2.1606569e-01
-2.8917821e-01
-2.6456686e-01
-2.4666341e-01
-3.1923617e-01
-4.1186962e-01
-4.4458150e-01
-4.0015033e-01
-2.7045750e-01
-5.5416580e-02
2.2658745e-01
5.0751501e-01
6.6760540e-01
5.9424455e-01
3.3627442e-01
7.2979717e-02
-1.1546195e-01
-2.4483280e-01
-3.2593584e-01
-3.5898353e-01
-3.3878580e-01
-2.6483838e-01
-1.6407025e-01
-1.2542983e-01
-1.8876198e-01
-2.5669495e-01
-2.4961713e-01
-1.7414586e-01
-6.4995723e-02
7.7183881e-02
2.8887048e-01
5.4332538e-01
7.3231123e-01
7.4332988e-01
5.8781926e-01
3.8433587e-01
1.7194962e-01
-6.4251273e-02
-2.8213289e-01
-4.3211492e-01
-5.0098787e-01
-4.9446478e-01
-4.3389846e-01
-3.7623703e-01
-3.4920250e-01
-3.0184245e-01
-1.9888109e-01
-6.5749837e-02
4.5805030e-02
1.3610231e-01
2.7374452e-01
4.5789029e-01
5.8081952e-01
5.4189065e-01
4.0136383e-01
3.2640023e-01
3.4337248e-01
3.1412243e-01
1.4446715e-01
-8.6804218e-02
-2.7126067e-01
-3.8745313e-01
-4.5456710e-01
-4.9991828e-01
-5.3578943e-01
-5.5677296e-01
-5.5268128e-01
-5.1356794e-01
-4.3172665e-01
-2.9497694e-01
-8.1563158e-02
2.0264739e-01
4.8382604e-01
6.4839782e-01
6.9255801e-01
7.3328419e-01
7.7900330e-01
7.1667966e-01
4.8821857e-01
1.6667107e-01
-1.0571310e-01
-2.4368793e-01
-2.5733039e-01
-2.7394502e-01
-3.8667335e-01
-5.0347574e-01
-5.3915902e-01
-4.9770561e-01
-3.9840601e-01
-2.5665375e-01
-6.8523353e-02
1.6004953e-01
3.8107592e-01
4.9988176e-01
4.8127663e-01
4.0213654e-01
2.9224892e-01
1.1776559e-01
-1.0193317e-01
-2.9707583e-01
-4.1195911e-01
-4.4348809e-01
-4.1981964e-01
-3.5658900e-01
-2.3453167e-01
-3.0536301e-02
2.3673369e-01
4.7800956e-01
5.7819140e-01
5.0862774e-01
3.2440788e-01
8.7998695e-02
-1.4223857e-01
-3.2327986e-01
-4.3508087e-01
-4.6610277e-01
-4.2231770e-01
-3.2316071e-01
-2.1159063e-01
-1.3647197e-01
-8.5899500e-02
7.3994124e-04
1.4695746e-01
3.3813697e-01
5.4843981e-01
7.1181148e-01
7.6923101e-01
6.9380882e-01
4.6490424e-01
1.1664315e-01
-2.3259860e-01
-4.7234463e-01
-5.7166957e-01
-5.4890995e-01
-4.4248562e-01
-2.7895585e-01
-6.7067452e-02
1.1515377e-01
1.5864600e-01
8.6539215e-02
8.0811688e-03
-1.1317650e-02
9.7442087e-03
-3.3451912e-02
-1.8940205e-01
-3.6948477e-01
-4.8722996e-01
-5.0737616e-01
-4.2257003e-01
-2.3747119e-01
3.0456593e-02
3.1467934e-01
5.4201524e-01
6.7075550e-01
7.1842285e-01
7.2885611e-01
6.8698058e-01
5.4658778e-01
2.7835321e-01
-8.2315340e-02
-4.0973861e-01
-5.8728075e-01
-5.7779804e-01
-3.8923586e-01
-1.0459290e-01
1.2456141e-01
2.1469535e-01
1.6518156e-01
1.7434868e-02
-1.3607076e-01
-2.1659039e-01
-2.0726009e-01
-1.1712411e-01
2.5148476e-02
1.3232570e-01
1.1640122e-01
-1.1211476e-02
-1.5947532e-01
-2.3519393e-01
-1.9435246e-01
-4.0668111e-02
1.7614189e-01
3.3223605e-01
2.8017755e-01
3.9654616e-02
-1.9705240e-01
-3.2102922e-01
-3.3939638e-01
-2.7567163e-01
-1.5876915e-01
-1.4041333e-02
1.3109147e-01
2.2529479e-01
2.1920028e-01
1.7713078e-01
2.2177235e-01
3.3975174e-01
3.8974725e-01
2.6158686e-01
1.8581241e-02
-1.7200964e-01
-2.3271984e-01
-2.1442709e-01
-2.3876592e-01
-3.3460705e-01
-3.9598646e-01
-3.6291560e-01
-2.4877617e-01
-7.7036736e-02
1.3207797e-01
3.7290317e-01
6.1238178e-01
7.4075377e-01
6.3560242e-01
3.5097629e-01
7.2419313e-02
-1.2308684e-01
-2.5606652e-01
-3.6589715e-01
-4.7794408e-01
-5.6519438e-01
-5.9643758e-01
-5.6794193e-01
-5.0927402e-01
-4.3805787e-01
-3.0229445e-01
-5.5143142e-02
2.5592517e-01
5.1455940e-01
6.6339762e-01
7.3147146e-01
7.2290948e-01
6.0738741e-01
4.0355731e-01
2.1932245e-01
1.4819626e-01
1.3664473e-01
5.4504595e-02
-1.2486539e-01
-2.9815738e-01
-3.7383327e-01
-3.3648312e-01
-2.3487229e-01
-1.9330960e-01
-2.6217982e-01
-3.3714876e-01
-3.4279235e-01
-2.7699376e-01
-1.5006121e-01
2.3141659e-02
2.2925131e-01
4.2027736e-01
5.1222294e-01
4.3020908e-01
2.0949679e-01
-1.3843169e-02
-1.6852567e-01
-2.7126393e-01
-3.5382381e-01
-4.1253959e-01
-4.1990046e-01
-3.6214231e-01
-2.2878591e-01
-1.6911468e-02
1.9938524e-01
2.7592943e-01
1.7602581e-01
3.1085075e-02
-1.3787540e-04
1.2974044e-01
3.4167358e-01
5.0815433e-01
5.3539940e-01
4.0179676e-01
2.0932486e-01
1.1620244e-01
1.3007894e-01
1.1360196e-01
-2.0102124e-02
-2.0590689e-01
-3.3604982e-01
-3.7528959e-01
-3.4978516e-01
-3.2093195e-01
-3.2201107e-01
-3.2833905e-01
-3.1351072e-01
-2.7206797e-01
-1.9974670e-01
-8.5716172e-02
7.6380771e-02
2.8380463e-01
4.9582816e-01
6.1723636e-01
5.7623139e-01
3.8236206e-01
1.1228043e-01
-1.3798229e-01
-3.2284522e-01
-4.4628211e-01
-5.1078447e-01
-5.0356823e-01
-4.1132116e-01
-2.2262281e-01
5.2712387e-02
3.5347045e-01
6.0756224e-01
7.4885946e-01
7.1723713e-01
5.1988791e-01
2.4838356e-01
4.0826477e-03
-1.8764585e-01
-3.4705679e-01
-4.6613979e-01
-5.2947929e-01
-5.4154994e-01
-5.0946609e-01
-4.3294668e-01
-3.0438245e-01
-1.1229537e-01
1.1374827e-01
2.5686402e-01
1.9900363e-01
8.5835867e-03
-1.0845166e-01
-4.6573207e-02
1.7524122e-01
4.5662697e-01
6.6469397e-01
7.3872732e-01
6.5823082e-01
4.1355993e-01
8.1351810e-02
-2.1662802e-01
-4.3184243e-01
-5.6938274e-01
-6.3479590e-01
-6.2837047e-01
-5.4053837e-01
-3.7575134e-01
-1.8501842e-01
-5.2625733e-02
-1.9658797e-02
-7.6048781e-03
1.1089288e-01
3.5959849e-01
6.3139376e-01
7.8763915e-01
7.8773577e-01
6.7734336e-01
4.8171968e-01
2.1283578e-01
-7.6702899e-02
-3.1291054e-01
-4.5694803e-01
-5.0998132e-01
-4.8969537e-01
-4.1495771e-01
-2.9117646e-01
-1.3717185e-01
-4.1516678e-04
4.8970157e-02
-8.4390170e-03
-8.6097235e-02
-1.1858737e-01
-1.0347334e-01
-4.1273705e-02
6.9444022e-02
2.2190775e-01
3.6562087e-01
4.0710837e-01
2.8019840e-01
2.7802323e-02
-2.3179649e-01
-4.2346188e-01
-5.3502255e-01
-5.6572095e-01
-5.0923996e-01
-3.6609864e-01
-1.9171820e-01
-7.9144711e-02
-3.1076586e-02
6.7317510e-02
2.5951712e-01
4.4287087e-01
5.4724509e-01
5.8037888e-01
5.7594779e-01
5.9119604e-01
6.2725488e-01
5.9033185e-01
4.0007371e-01
1.1766540e-01
-1.4250460e-01
-3.7711009e-01
-5.8531595e-01
-7.0484879e-01
-7.1822794e-01
-6.4799294e-01
-5.1218467e-01
-3.2467322e-01
-9.8067967e-02
1.6138677e-01
4.2029931e-01
6.0626207e-01
6.6134031e-01
5.5384648e-01
3.1796343e-01
7.0637036e-02
-1.1197563e-01
-2.3088724e-01
-2.9153947e-01
-2.8304505e-01
-2.3629448e-01
-2.2496745e-01
-2.5183811e-01
-2.5140162e-01
-1.8525152e-01
-6.4132351e-02
4.2837907e-02
6.3789700e-02
3.7145577e-02
6.5269929e-02
1.7480714e-01
3.1237684e-01
4.1787008e-01
4.3210502e-01
3.2784524e-01
1.7105729e-01
5.3577226e-02
-3.0471328e-02
-1.3113999e-01
-2.2805659e-01
-3.0323481e-01
-3.7588250e-01
-4.3740956e-01
-4.7312289e-01
-4.7414406e-01
-4.3085846e-01
-3.5106528e-01
-2.3397814e-01
-3.9561136e-02
2.7846130e-01
6.4462794e-01
8.7126868e-01
8.6767878e-01
6.6368500e-01
3.7991218e-01
1.7595107e-01
6.9388783e-02
-2.6470436e-02
-1.4754529e-01
-2.6156903e-01
-3.3131500e-01
-3.5227516e-01
-3.3006509e-01
-2.6648967e-01
-1.6905121e-01
-6.3417698e-02
1.0496264e-03
-4.6762867e-03
-4.5697108e-02
-7.0378468e-02
-6.8571528e-02
-4.6686190e-02
3.0582772e-03
7.9247758e-02
1.6172374e-01
2.1778744e-01
2.1149382e-01
1.5615269e-01
1.1006342e-01
7.8870734e-02
1.9659155e-02
-7.9528264e-02
-1.9187475e-01
-2.7634880e-01
-3.0890681e-01
-2.9497768e-01
-2.4571896e-01
-1.5843495e-01
-1.7069485e-02
1.9030211e-01
3.9457888e-01
4.6375669e-01
3.7847857e-01
2.4201821e-01
1.3560519e-01
5.1996984e-02
-4.9603539e-02
-1.5909452e-01
-2.3851610e-01
-2.7181018e-01
-2.5995960e-01
-2.0901221e-01
-1.1893180e-01
4.5651992e-03
1.2785352e-01
1.8704313e-01
1.6030979e-01
1.1275188e-01
8.9605047e-02
8.5056269e-02
7.6685158e-02
4.0083779e-02
-1.6014840e-02
-8.1046270e-02
-1.4888659e-01
-2.0627154e-01
-2.5078664e-01
-2.7823076e-01
-2.8380740e-01
-2.6379875e-01
-2.1392867e-01
-1.2443349e-01
2.1703805e-02
2.2359346e-01
4.5602123e-01
6.5364030e-01
7.0665163e-01
5.6167051e-01
3.0224286e-01
5.1244000e-02
-1.3578622e-01
-2.5516103e-01
-3.1721576e-01
-3.2954498e-01
-3.0212409e-01
-2.5144913e-01
-1.9104622e-01
-1.2900618e-01
-6.7644407e-02
-1.3178216e-02
3.4211280e-02
8.9299547e-02
1.5067698e-01
1.8825768e-01
1.5963591e-01
7.3403928e-02
-7.4311769e-03
-4.9908751e-02
-5.4111317e-02
-4.6315154e-02
-5.3138742e-02
-5.6381136e-02
-4.8960707e-02
-6.3821847e-02
-1.0640968e-01
-1.4613153e-01
-1.6529926e-01
-1.4583866e-01
-7.7818919e-02
-9.0013785e-03
2.5277573e-02
7.2865009e-02
1.7098676e-01
2.8432201e-01
3.3307662e-01
2.7040453e-01
1.5297094e-01
6.5073480e-02
2.3327719e-02
-2.7264466e-02
-1.1924839e-01
-1.9910908e-01
-2.4149094e-01
-2.8256951e-01
-3.2729220e-01
-3.3802341e-01
-2.7403085e-01
-1.2083976e-01
5.7494184e-02
1.1122537e-01
2.5888964e-02
-1.5819732e-02
8.4852548e-02
2.8032610e-01
4.7615747e-01
5.7521921e-01
5.6644769e-01
5.1034419e-01
4.2124631e-01
2.3341109e-01
-4.6429593e-02
-2.8590393e-01
-4.1466818e-01
-4.5916882e-01
-4.5473537e-01
-4.1460820e-01
-3.2753219e-01
-1.8856520e-01
-3.5214378e-02
4.8863424e-02
4.9412645e-02
5.9278124e-02
1.3112534e-01
2.3749498e-01
3.0368013e-01
2.4324880e-01
6.9541113e-02
-1.1916183e-01
-2.6169673e-01
-3.3754894e-01
-3.3949351e-01
-2.7799177e-01
-1.6576612e-01
-3.8027895e-02
5.4290554e-02
1.1048417e-01
1.5528113e-01
1.5427880e-01
4.4470399e-02
-1.5118900e-01
-3.0641928e-01
-3.1530155e-01
-1.6038921e-01
1.1115511e-01
3.9607615e-01
6.0925417e-01
7.3572032e-01
7.5758164e-01
6.2730221e-01
3.5184768e-01
2.0489923e-02
-2.8077441e-01
-5.0575463e-01
-6.3089427e-01
-6.4752857e-01
-5.5126234e-01
-3.6513646e-01
-1.7615657e-01
-8.4641895e-02
-1.0761307e-01
-1.6442732e-01
-1.5385045e-01
-3.9648340e-02
1.3793317e-01
3.2001410e-01
4.7649857e-01
5.8644842e-01
6.2030514e-01
5.5545248e-01
4.0246258e-01
2.1888901e-01
5.4362064e-02
-9.8392586e-02
-2.5896057e-01
-4.0230492e-01
-4.7124583e-01
-4.2883664e-01
-2.9183441e-01
-1.5200894e-01
-7.9719377e-02
-3.8664393e-02
2.8041551e-03
3.4695228e-02
4.6271973e-02
4.0856701e-02
3.6355597e-02
3.4078127e-02
2.2749425e-02
2.4928179e-02
1.0562266e-01
2.1952732e-01
2.0044143e-01
2.0411478e-02
-1.8852039e-01
-3.1933685e-01
-3.3394433e-01
-2.5097059e-01
-1.3754531e-01
-4.5833556e-02
5.2168064e-02
1.8238542e-01
3.0340998e-01
3.9820308e-01
4.6478617e-01
4.7743055e-01
4.2071277e-01
2.8692292e-01
8.6030806e-02
-1.2550547e-01
-2.8556841e-01
-3.7911487e-01
-4.2110128e-01
-4.2643205e-01
-4.0249919e-01
-3.6016161e-01
-3.0821819e-01
-2.4496406e-01
-1.6467407e-01
-4.5979255e-02
1.4153144e-01
3.5596550e-01
4.7044957e-01
4.5571297e-01
3.9465123e-01
3.2701896e-01
2.4952766e-01
1.4408002e-01
1.1085528e-02
-1.1030804e-01
-1.8873154e-01
-2.2820790e-01
-2.4507025e-01
-2.3691281e-01
-2.0368412e-01
-1.5779254e-01
-1.0818865e-01
-6.3126753e-02
-2.3778959e-02
2.4792889e-02
9.6934313e-02
1.5954688e-01
1.6332409e-01
1.2276219e-01
7.5642893e-02
3.1719295e-02
-1.1716463e-02
-5.3353362e-02
-8.7610164e-02
-1.1233228e-01
-1.2982645e-01
-1.4512107e-01
-1.5596866e-01
-1.5127890e-01
-1.1823802e-01
-4.1526511e-02
7.0260502e-02
1.7653584e-01
2.5225645e-01
2.9103787e-01
2.8755879e-01
2.3145929e-01
1.2544842e-01
9.4550874e-03
-8.0141697e-02
-1.3429757e-01
-1.6596526e-01
-1.9403029e-01
-2.1956664e-01
-2.3335658e-01
-2.4187578e-01
-2.5751401e-01
-2.8777828e-01
-3.3227335e-01
-3.5824267e-01
-3.3084687e-01
-2.2362302e-01
-3.3516976e-03
3.0107659e-01
5.8064489e-01
7.5943269e-01
8.4082489e-01
8.2694285e-01
6.9672489e-01
4.4993989e-01
1.2602874e-01
-2.0503408e-01
-4.8035151e-01
-6.5471875e-01
-7.0978999e-01
-6.7422882e-01
-5.8545688e-01
-4.5377332e-01
-2.8428955e-01
-1.0146230e-01
7.8516530e-02
2.8297855e-01
5.3044198e-01
7.5083863e-01
8.1927067e-01
6.9483635e-01
4.5304612e-01
1.9038731e-01
-4.2778893e-02
-2.3722730e-01
-3.8612534e-01
-4.7833731e-01
-5.0400423e-01
-4.6626543e-01
-3.9155803e-01
-3.3873899e-01
-3.2411500e-01
-2.6409564e-01
-9.4661836e-02
1.3854504e-01
3.3832724e-01
4.7296401e-01
5.8459184e-01
6.6176914e-01
6.1433527e-01
3.9690792e-01
9.9314081e-02
-1.2899531e-01
-2.4398034e-01
-2.9980944e-01
-3.5009024e-01
-3.9671103e-01
-3.9593458e-01
-3.2734899e-01
-2.2888834e-01
-1.9779151e-01
-2.5858706e-01
-2.9575394e-01
-2.2052897e-01
-1.7298432e-02
2.9164512e-01
6.1852631e-01
8.3717164e-01
8.5663297e-01
6.5133742e-01
3.0125376e-01
-3.1168470e-02
-2.5715128e-01
-3.7472845e-01
-3.9895242e-01
-3.5307628e-01
-2.5946345e-01
-1.3805853e-01
-2.2700805e-02
2.2528844e-02
-3.2929434e-02
-1.3369668e-01
-2.0869997e-01
-2.2587274e-01
-1.7847463e-01
-6.8530472e-02
1.0137322e-01
3.0715907e-01
4.6244269e-01
4.6951682e-01
3.2481649e-01
1.1236635e-01
-8.2193757e-02
-2.2545691e-01
-3.2953991e-01
-4.1377437e-01
-4.7170715e-01
-4.8321803e-01
-4.4298326e-01
-3.6824263e-01
-2.6713948e-01
-1.1193763e-01
1.2156741e-01
4.1206733e-01
6.8522968e-01
8.5919612e-01
8.8359117e-01
7.4203220e-01
4.7637525e-01
1.8064113e-01
-5.0466062e-02
-1.9140852e-01
-2.7912263e-01
-3.3274213e-01
-3.5503735e-01
-3.4877225e-01
-3.1341962e-01
-2.6233217e-01
-2.1863178e-01
-1.9670912e-01
-1.9348068e-01
-1.9801028e-01
-1.9534464e-01
-1.6864239e-01
-1.1389503e-01
-4.3535771e-02
2.3406640e-02
6.8799734e-02
1.0559244e-01
1.7032831e-01
2.4675955e-01
2.6858959e-01
2.0752523e-01
1.1210039e-01
5.2231029e-02
7.4899013e-02
1.9178948e-01
3.2584515e-01
3.4819377e-01
2.3918476e-01
1.1854513e-01
2.9256780e-02
-1.0185745e-01
-2.6730956e-01
-4.0705203e-01
-4.9648282e-01
-5.1599737e-01
-4.4400510e-01
-2.7588412e-01
-2.6702018e-02
2.4245101e-01
3.9584524e-01
3.2536972e-01
9.1113163e-02
-1.2602860e-01
-2.0056359e-01
-1.2206243e-01
2.8241712e-02
1.2956104e-01
1.4233696e-01
1.6149794e-01
2.6607076e-01
4.0318805e-01
4.8187747e-01
4.5032239e-01
3.0217039e-01
8.6073602e-02
-1.1642043e-01
-2.5553181e-01
-3.3739690e-01
-3.8895363e-01
-4.2331959e-01
-4.4879141e-01
-4.7685791e-01
-4.9262992e-01
-4.6888339e-01
-3.8805747e-01
-2.4030728e-01
-4.2273290e-02
1.7365147e-01
4.0445853e-01
6.1500396e-01
6.9632267e-01
5.9217095e-01
3.4953971e-01
7.4043720e-02
-1.3417589e-01
-2.3965940e-01
-2.5553934e-01
-2.0570582e-01
-8.5335666e-02
8.4279817e-02
2.1956731e-01
2.8117836e-01
2.8765018e-01
2.7382175e-01
2.6881210e-01
2.2789514e-01
8.9815286e-02
-8.8905907e-02
-1.9694742e-01
-2.3717798e-01
-2.8724759e-01
-3.4858606e-01
-3.6610217e-01
-3.1436187e-01
-1.9415516e-01
-1.5331106e-02
1.8097690e-01
3.0267085e-01
2.9069854e-01
2.0635298e-01
1.3308741e-01
7.7119530e-02
-2.0667423e-03
-1.1583260e-01
-2.2806775e-01
-3.1316590e-01
-3.6275278e-01
-3.6852926e-01
-3.3445226e-01
-2.5575565e-01
-1.0476409e-01
1.2960787e-01
4.0217236e-01
6.2511660e-01
7.0168695e-01
5.6485371e-01
2.5033870e-01
-1.0300595e-01
-3.7067561e-01
-5.2952883e-01
-6.0295977e-01
-5.8122510e-01
-4.3951051e-01
-1.6599318e-01
2.1138110e-01
5.8868164e-01
8.3838183e-01
8.8505541e-01
6.9961898e-01
3.4748944e-01
-1.4599530e-02
-2.8855371e-01
-4.5495711e-01
-5.2355135e-01
-5.2097415e-01
-4.6830101e-01
-3.8652452e-01
-3.1155831e-01
-3.0189414e-01
-3.5601657e-01
-3.6936378e-01
-2.5489469e-01
1.2812774e-03
3.3390547e-01
6.3178608e-01
8.2594348e-01
8.7610500e-01
7.6520193e-01
5.5298580e-01
3.5239517e-01
2.2382684e-01
1.2630781e-01
-2.2140003e-02
-2.2280926e-01
-3.8437308e-01
-4.6359321e-01
-4.8950660e-01
-4.9707012e-01
-5.0810800e-01
-5.2206309e-01
-5.2203645e-01
-4.8929438e-01
-4.0741974e-01
-2.6943543e-01
-9.3003624e-02
1.1073473e-01
3.3537735e-01
5.2177149e-01
6.0342025e-01
5.8967425e-01
5.3609323e-01
4.6127163e-01
3.5360589e-01
2.2603417e-01
1.3660005e-01
1.2546382e-01
1.1093762e-01
-2.8846230e-02
-2.5907830e-01
-4.4769067e-01
-5.5092355e-01
-5.7575117e-01
-5.1093988e-01
-3.3907666e-01
-5.1405581e-02
3.0389103e-01
5.8105313e-01
6.3064525e-01
4.7487326e-01
2.4968412e-01
3.1434883e-02
-1.5738578e-01
-3.0252939e-01
-3.8466257e-01
-3.7776472e-01
-2.9050044e-01
-1.7192954e-01
-7.1770645e-02
-5.1257805e-03
4.2078221e-02
7.7822912e-02
1.2194310e-01
1.8419188e-01
2.2821889e-01
2.6088451e-01
3.0557909e-01
3.0128627e-01
1.9974240e-01
4.3058495e-02
-9.3710656e-02
-1.6416401e-01
-1.6338771e-01
-1.1386186e-01
-7.7997844e-02
-9.9165161e-02
-1.3880737e-01
-1.5716266e-01
-1.5955179e-01
-1.6060570e-01
-1.7599310e-01
-2.1598245e-01
-2.7456587e-01
-3.3076733e-01
-3.5300551e-01
-3.1140130e-01
-1.8777072e-01
4.8604142e-03
2.2060311e-01
4.3413214e-01
6.0019823e-01
6.2166615e-01
4.7993110e-01
2.8600520e-01
1.7603924e-01
1.8044604e-01
2.1259625e-01
1.8290218e-01
5.9911411e-02
-1.3679849e-01
-3.3974961e-01
-4.7157641e-01
-5.0440348e-01
-4.5876751e-01
-3.7520608e-01
-2.7708050e-01
-1.6084641e-01
-7.7605158e-03
1.8844248e-01
3.6864717e-01
4.8515313e-01
5.5668655e-01
5.7772675e-01
5.0613558e-01
3.2313422e-01
6.6610973e-02
-1.8264939e-01
-3.6217299e-01
-4.5030256e-01
-4.5073879e-01
-4.0318916e-01
-3.5094564e-01
-2.8020620e-01
-1.5067934e-01
5.3115250e-02
2.7764620e-01
4.0864017e-01
4.0241667e-01
3.1359601e-01
1.9473621e-01
6.8795150e-02
-4.6624392e-02
-1.2574570e-01
-1.5055533e-01
-1.3165383e-01
-8.9391687e-02
-4.5988467e-02
-2.6763934e-02
-3.2740324e-02
-4.2336858e-02
-4.9375085e-02
-6.1392939e-02
-7.2510648e-02
-7.1450650e-02
-5.1649400e-02
-1.2475355e-02
3.6411051e-02
8.3596673e-02
1.0563861e-01
7.6635310e-02
3.3598271e-03
-8.5792295e-02
-1.6490043e-01
-2.1854629e-01
-2.4106577e-01
-2.3043377e-01
-1.9821021e-01
-1.5392718e-01
-7.9834021e-02
4.7556396e-02
1.9191964e-01
2.8420671e-01
3.3340920e-01
3.6003460e-01
3.3854190e-01
2.5823467e-01
1.2655123e-01
-1.1813999e-02
-8.0916314e-02
-4.2090740e-02
2.3721883e-02
-9.5618077e-03
-1.1990194e-01
-2.0253360e-01
-2.0794476e-01
-1.3176673e-01
-4.4535929e-02
-2.6152450e-02
-3.1186210e-02
1.8332430e-02
8.8598509e-02
1.0222372e-01
6.9389587e-02
3.0527189e-02
-3.1986071e-03
-4.3509977e-02
-1.3159860e-01
-2.5022997e-01
-3.2272187e-01
-3.0461685e-01
-2.0244482e-01
-5.4943369e-02
1.1642378e-01
3.1113789e-01
4.8904898e-01
5.6614719e-01
5.0631007e-01
3.6645643e-01
1.9662311e-01
9.5773854e-03
-1.5755043e-01
-2.6424637e-01
-3.0836635e-01
-3.2373737e-01
-3.3588957e-01
-3.2787642e-01
-2.7492227e-01
-1.6800964e-01
-2.9680161e-02
4.2431368e-02
-2.4593719e-02
-1.4860549e-01
-2.1014783e-01
-1.6199456e-01
6.0835575e-03
2.3823883e-01
3.9643294e-01
3.9892040e-01
3.0022717e-01
1.5694747e-01
2.8552256e-03
-6.8559294e-02
-1.2088600e-03
1.6077592e-01
3.2048566e-01
3.6242237e-01
2.2427258e-01
-1.8604935e-02
-2.1205261e-01
-2.9095534e-01
-2.7843325e-01
-1.8508070e-01
-2.5283900e-02
1.2659541e-01
1.7270075e-01
9.7306311e-02
-2.1808298e-02
-1.0644722e-01
-1.2338919e-01
-7.4776134e-02
-2.0487646e-02
-4.8585941e-02
-1.5618928e-01
-2.6562049e-01
-3.2977355e-01
-3.3536830e-01
-2.6813342e-01
-1.1312486e-01
1.3256179e-01
4.3481616e-01
6.6757556e-01
6.8847400e-01
5.1265988e-01
2.6083105e-01
1.9500027e-02
-1.6085258e-01
-2.6390748e-01
-3.0363353e-01
-2.9298386e-01
-2.5058546e-01
-2.0157664e-01
-1.4910836e-01
-8.2276636e-02
-1.4084408e-02
2.6610864e-02
1.4535137e-02
-5.4906486e-02
-1.3990020e-01
-1.8846508e-01
-1.7617396e-01
-9.9235820e-02
3.8308895e-02
2.2390296e-01
4.1646310e-01
5.1693725e-01
4.3234640e-01
2.1814549e-01
2.1410966e-02
-9.1631431e-02
-1.5206670e-01
-1.9406025e-01
-2.0533269e-01
-1.7281247e-01
-1.2312607e-01
-9.6073028e-02
-1.1485915e-01
-1.7089706e-01
-2.1722874e-01
-2.1961290e-01
-1.9239718e-01
-1.4252600e-01
-3.0923104e-02
1.7340420e-01
4.2293916e-01
5.9056425e-01
5.5706144e-01
3.3131176e-01
5.6346714e-02
-1.3964042e-01
-2.2475721e-01
-2.1720957e-01
-1.4193730e-01
-2.4898845e-02
8.6787830e-02
1.2599471e-01
5.9655002e-02
-6.2686211e-02
-1.6183406e-01
-2.1112754e-01
-2.2785406e-01
-2.1829037e-01
-1.6762137e-01
-6.3009885e-02
8.8785411e-02
2.3514995e-01
2.9159693e-01
2.4655594e-01
1.7395896e-01
1.2622123e-01
9.4322106e-02
5.1501083e-02
3.1189211e-03
-4.1639246e-02
-9.1229066e-02
-1.4885281e-01
-2.1172655e-01
-2.7749748e-01
-3.3912403e-01
-3.8448140e-01
-4.0607886e-01
-3.9678661e-01
-3.4237261e-01
-2.2098631e-01
-1.8504057e-02
2.1893142e-01
3.8676972e-01
4.2476669e-01
3.5162158e-01
2.4533829e-01
2.2328846e-01
2.9778046e-01
3.6772504e-01
3.8704064e-01
3.5099366e-01
2.3612050e-01
1.1444164e-02
-2.8349671e-01
-5.0522505e-01
-5.4646501e-01
-3.9695192e-01
-1.2818857e-01
1.5188668e-01
3.6375298e-01
4.3711797e-01
3.6003103e-01
2.2183401e-01
1.2701378e-01
8.3079822e-02
6.3729810e-03
-1.2596502e-01
-2.4089012e-01
-2.9225886e-01
-2.9013811e-01
-2.5319899e-01
-2.1752292e-01
-2.3547623e-01
-3.1023348e-01
-3.7871360e-01
-3.7672611e-01
-2.7031320e-01
-7.8809505e-02
1.3927055e-01
3.4779902e-01
5.2612800e-01
6.4169665e-01
6.3445328e-01
4.6663824e-01
2.2304695e-01
5.4437544e-02
3.1887414e-02
7.1855549e-02
3.4301093e-02
-8.6465731e-02
-2.1472418e-01
-3.0469593e-01
-3.2418496e-01
-2.6707799e-01
-1.8735537e-01
-1.5666109e-01
-1.8856532e-01
-2.3379747e-01
-2.1783378e-01
-1.0365350e-01
8.9544115e-02
2.8739014e-01
3.6534362e-01
2.4105462e-01
-1.1043977e-02
-2.1717037e-01
-2.8139068e-01
-2.0543936e-01
-2.7025864e-02
1.9072788e-01
3.7473818e-01
4.5626938e-01
3.9400587e-01
2.3120395e-01
8.3104656e-02
1.0687870e-02
3.6924049e-03
2.5880279e-02
7.7660357e-03
-7.9453701e-02
-1.8986895e-01
-2.6446816e-01
-2.7421579e-01
-2.1969075e-01
-1.2115721e-01
-1.3474142e-02
5.7408505e-02
6.5555059e-02
4.3522408e-02
2.7815537e-02
7.6443036e-03
-3.9615364e-02
-1.0263105e-01
-1.5245281e-01
-1.7146106e-01
-1.4263438e-01
-5.7205436e-02
4.7631337e-02
1.2267508e-01
1.7914406e-01
2.3677326e-01
2.7334943e-01
2.4001983e-01
1.2336144e-01
1.5939911e-03
-5.2173540e-02
-3.6351036e-02
-1.8349071e-02
-6.9504074e-02
-1.5534650e-01
-2.0917249e-01
-2.1578600e-01
-1.8099601e-01
-1.1444491e-01
-3.2347316e-02
4.8165727e-02
1.3123027e-01
2.0121482e-01
2.1322024e-01
1.7477841e-01
1.1831653e-01
5.1483511e-02
-1.7861832e-02
-8.4227809e-02
-1.3939303e-01
-1.7103383e-01
-1.8080756e-01
-1.7170082e-01
-1.3424290e-01
-5.4730305e-02
6.7619921e-02
2.1069313e-01
2.9143977e-01
2.3078234e-01
8.5503578e-02
-4.6003673e-02
-1.3763629e-01
-2.0056373e-01
-2.3894945e-01
-2.3825719e-01
-1.8383059e-01
-7.9626714e-02
2.3420106e-02
6.6304805e-02
5.4071332e-02
1.8828727e-02
-2.8728154e-02
-6.3005067e-02
-2.4557855e-02
1.0950915e-01
2.7600597e-01
3.5512432e-01
2.7297023e-01
9.8531379e-02
-2.7095282e-02
-3.1149595e-02
7.4432930e-02
1.8722173e-01
1.8351893e-01
7.5798949e-02
-5.3016696e-02
-1.6244891e-01
-2.3268975e-01
-2.5324998e-01
-2.3191348e-01
-1.8297254e-01
-1.1393865e-01
-3.3907030e-02
3.4827847e-02
8.5322453e-02
1.1894044e-01
1.0686967e-01
4.7979106e-02
-1.3289368e-02
-4.6375835e-02
-4.8684825e-02
-2.9328144e-02
-2.0383590e-02
-5.5934609e-02
-1.0203835e-01
-1.0137935e-01
-4.6038709e-02
3.0696943e-02
7.9884070e-02
8.7163604e-02
7.1273447e-02
2.2381451e-02
-6.7195705e-02
-1.4843668e-01
-1.6408069e-01
-1.0399916e-01
2.4256850e-03
9.2323022e-02
8.1633690e-02
-3.1953883e-02
-1.3375450e-01
-1.2000301e-01
2.7875087e-02
2.6222143e-01
4.8674421e-01
6.0411179e-01
5.5865272e-01
3.4192465e-01
3.0963596e-02
-2.4386074e-01
-4.1992944e-01
-4.9879926e-01
-4.7912069e-01
-3.6458619e-01
-1.6851241e-01
8.0813551e-02
2.9287845e-01
3.5652907e-01
2.5766592e-01
8.5809999e-02
-5.2475484e-02
-1.0638558e-01
-9.6555514e-02
-6.5998876e-02
-2.8298173e-02
1.6650462e-02
2.9529793e-02
-3.9546850e-02
-1.6070657e-01
-2.5876395e-01
-3.0487520e-01
-2.9988660e-01
-2.4450110e-01
-1.3428726e-01
5.2018462e-02
3.0232843e-01
5.5057556e-01
7.0352922e-01
6.6117952e-01
4.2703400e-01
1.3498510e-01
-9.6361673e-02
-2.4635404e-01
-3.3966054e-01
-3.9077983e-01
-4.0717496e-01
-3.9509410e-01
-3.5865020e-01
-3.0129649e-01
-2.2283627e-01
-1.3467334e-01
-6.8224934e-02
-9.5927031e-03
1.1413898e-01
3.2423145e-01
5.4168188e-01
6.5023352e-01
5.7922638e-01
3.5589502e-01
9.1725350e-02
-1.1365916e-01
-2.3956828e-01
-3.0197430e-01
-2.9817898e-01
-2.1128102e-01
-7.4329921e-02
2.3623561e-02
3.5703825e-02
-1.3263708e-02
-8.4033729e-02
-1.4737572e-01
-1.7760475e-01
-1.6677093e-01
-1.2810058e-01
-5.9134491e-02
3.9363692e-02
1.2488584e-01
1.4559388e-01
9.8444704e-02
2.2745824e-02
-4.6702968e-02
-5.6537188e-02
5.8817102e-03
7.2509882e-02
1.2375012e-01
1.8120750e-01
2.3556515e-01
2.7316629e-01
2.7851106e-01
2.3177018e-01
1.3251489e-01
-2.7271909e-04
-1.3597282e-01
-2.3583402e-01
-2.7951991e-01
-2.6757241e-01
-2.0955123e-01
-1.3076316e-01
-6.1108565e-02
-2.7667573e-03
5.4210715e-02
6.9888851e-02
1.9670655e-02
-3.6155512e-02
-5.0540551e-02
-2.7304993e-02
1.2418182e-02
4.0251195e-02
4.7156829e-02
4.2756569e-02
3.4358815e-02
1.9463518e-02
-1.4211796e-02
-6.2198920e-02
-8.8154765e-02
-6.7683094e-02
-9.9621445e-03
4.8504700e-02
5.4786675e-02
1.5425273e-02
5.9776812e-04
4.2160264e-02
8.4299374e-02
5.8726935e-02
-4.6246172e-03
-3.7823866e-02
-1.8964853e-02
3.3925698e-02
7.5199660e-02
7.5525787e-02
5.1010609e-02
3.9370657e-02
3.7202684e-02
6.8770428e-03
-4.9006366e-02
-1.0207450e-01
-1.3362506e-01
-1.3831368e-01
-1.2667463e-01
-1.0462804e-01
-7.3013134e-02
-3.6864385e-02
-2.5517785e-03
3.0414752e-02
6.9062578e-02
1.1916028e-01
1.6118689e-01
1.4031885e-01
5.1970192e-02
-3.5902381e-02
-8.1653272e-02
-9.2948955e-02
-8.8115784e-02
-7.4836045e-02
-4.9351298e-02
-1.2340164e-02
3.3033582e-02
5.1602669e-02
-1.5229072e-02
-1.5266182e-01
-2.8355906e-01
-3.4779189e-01
-3.1655176e-01
-1.8415953e-01
4.0603120e-02
3.3119590e-01
6.0618122e-01
7.3904036e-01
6.6174428e-01
4.1557442e-01
1.1669372e-01
-1.1661036e-01
-2.5533361e-01
-3.3066119e-01
-3.4763171e-01
-3.0477202e-01
-2.3553550e-01
-1.8681586e-01
-1.7858794e-01
-1.8725888e-01
-1.6156443e-01
-5.7525603e-02
8.5645772e-02
1.8550162e-01
2.5503039e-01
3.3115211e-01
3.8150350e-01
3.8039592e-01
3.2303627e-01
1.9208501e-01
2.4923178e-02
-1.0517850e-01
-1.9191753e-01
-2.6356247e-01
-3.1393252e-01
-3.3031558e-01
-3.1930343e-01
-2.8944698e-01
-2.5193486e-01
-2.0741623e-01
-1.3728003e-01
-3.6048625e-02
6.9963335e-02
1.7076028e-01
3.0009555e-01
4.5412035e-01
5.6231280e-01
5.5836734e-01
4.1231878e-01
1.7380095e-01
-4.2038859e-02
-1.8181253e-01
-2.6080406e-01
-2.9699521e-01
-3.0200651e-01
-2.7940188e-01
-2.3713154e-01
-1.9565117e-01
-1.7214700e-01
-1.5755435e-01
-1.2596583e-01
-6.9140770e-02
-2.0931758e-02
-6.2982912e-03
1.8995053e-02
9.9450156e-02
2.3803756e-01
3.6884878e-01
3.4888854e-01
1.6818726e-01
-1.3822164e-02
-1.0353993e-01
-1.3074298e-01
-1.5813837e-01
-2.0061540e-01
-2.2722471e-01
-2.1664088e-01
-1.6249338e-01
-8.1580263e-02
2.9658899e-03
1.0354110e-01
2.4660709e-01
3.9194856e-01
4.4693205e-01
3.9495535e-01
2.9267043e-01
1.7065614e-01
2.3716116e-02
-1.3820037e-01
-2.8626607e-01
-3.9270714e-01
-4.3895988e-01
-4.2430385e-01
-3.5439407e-01
-2.2728358e-01
-4.0308852e-02
1.8112128e-01
3.8398859e-01
4.9904223e-01
4.6415349e-01
3.1397227e-01
1.6921889e-01
7.4736227e-02
-1.7443209e-02
-1.2681122e-01
-2.2822069e-01
-2.9319855e-01
-3.0459215e-01
-2.6858343e-01
-2.0327670e-01
-1.1704006e-01
-2.6573620e-02
4.3606449e-02
9.1787259e-02
1.2207253e-01
1.3471953e-01
1.2858037e-01
9.6840127e-02
4.8434482e-02
1.0884627e-02
1.4447695e-02
8.0635770e-02
1.6914848e-01
1.6509014e-01
4.1557908e-02
-9.4435796e-02
-1.6405421e-01
-1.5540581e-01
-1.1531578e-01
-1.1316557e-01
-1.2926423e-01
-1.0015123e-01
-4.6289989e-02
-3.1196597e-02
-3.9106367e-02
-9.1105547e-03
8.4517516e-02
2.3123916e-01
3.5543584e-01
3.5440245e-01
2.4109687e-01
1.2531148e-01
3.6771687e-02
-7.7739707e-02
-2.0891573e-01
-3.0065750e-01
-3.3451233e-01
-3.1605082e-01
-2.8014847e-01
-2.6806677e-01
-2.5937924e-01
-2.0045731e-01
-9.7175685e-02
1.9081212e-05
1.0467312e-01
2.6493967e-01
4.7032734e-01
6.5249829e-01
7.1153742e-01
5.7764606e-01
2.8211374e-01
-5.9519651e-02
-3.3827928e-01
-5.1611016e-01
-5.9766403e-01
-5.8969758e-01
-4.9949655e-01
-3.6766730e-01
-2.5746082e-01
-1.8075161e-01
-8.4527318e-02
1.1380089e-01
3.8101765e-01
5.6081592e-01
6.2672392e-01
6.6622322e-01
6.8939017e-01
6.1659297e-01
3.7953324e-01
4.3663955e-02
-2.4610102e-01
-4.2297751e-01
-5.0376659e-01
-5.1623633e-01
-4.7169457e-01
-3.7810543e-01
-2.4833993e-01
-1.0097776e-01
2.6323447e-02
8.6809012e-02
7.3802650e-02
4.1821287e-02
3.0351096e-02
3.6193229e-02
8.3185678e-02
1.8673337e-01
2.9581798e-01
3.2208288e-01
2.1646156e-01
4.2296693e-02
-1.0024605e-01
-1.7400891e-01
-2.0222442e-01
-2.1624294e-01
-2.0886958e-01
-1.6045951e-01
-6.8199329e-02
4.5711170e-02
1.1690737e-01
1.1146713e-01
9.0643871e-02
1.0825704e-01
1.3143289e-01
1.1016860e-01
5.8736275e-02
1.1093666e-02
-3.0677233e-02
-7.7250292e-02
-1.3356566e-01
-1.9033594e-01
-2.4374131e-01
-2.9105237e-01
-3.2628685e-01
-3.3996367e-01
-3.0567880e-01
-1.9808895e-01
-1.0584809e-02
2.3279604e-01
4.4710991e-01
5.4870599e-01
5.5870031e-01
5.5103710e-01
5.0935887e-01
3.4817414e-01
9.5426268e-02
-1.3236577e-01
-2.7470576e-01
-3.3192580e-01
-3.3795566e-01
-3.4471880e-01
-3.7380452e-01
-3.9732420e-01
-3.9010028e-01
-3.4378212e-01
-2.4299248e-01
-7.3972476e-02
1.5591695e-01
3.8911911e-01
5.2314900e-01
5.1309387e-01
4.3474462e-01
3.9929449e-01
3.7584726e-01
2.3927705e-01
2.0838369e-02
-1.6111422e-01
-2.6759977e-01
-3.1120153e-01
-3.3097583e-01
-3.5694232e-01
-3.7129936e-01
-3.4545369e-01
-2.9371210e-01
-2.4488668e-01
-1.7371580e-01
-2.9053437e-02
2.0771299e-01
4.6142472e-01
5.7759123e-01
5.1099524e-01
3.7810896e-01
3.1141299e-01
2.8416959e-01
1.6271350e-01
-4.6149328e-02
-2.3629851e-01
-3.6030082e-01
-4.2007663e-01
-4.3250300e-01
-4.1667063e-01
-3.9564505e-01
-3.9250098e-01
-3.9594540e-01
-3.5828597e-01
-2.3462478e-01
-7.2499989e-03
2.9561606e-01
5.9012105e-01
7.7277013e-01
7.7465684e-01
5.8345701e-01
2.7321709e-01
-2.0014500e-03
-1.2602955e-01
-8.7457751e-02
3.3254352e-02
1.0141910e-01
3.6816352e-02
-1.0534904e-01
-1.9712315e-01
-1.9338140e-01
-1.4531202e-01
-8.9061064e-02
-2.7183674e-02
4.0948618e-02
1.1882836e-01
1.8311637e-01
1.7992169e-01
9.3539706e-02
-3.1140852e-02
-1.3600740e-01
-1.8944732e-01
-1.9630605e-01
-1.8880840e-01
-1.8890542e-01
-1.9087983e-01
-1.8967153e-01
-1.8428422e-01
-1.8197733e-01
-1.8351449e-01
-1.5324787e-01
-5.7299192e-02
7.9620156e-02
2.1001920e-01
3.4500902e-01
4.8187867e-01
5.4719647e-01
4.8203454e-01
2.9724177e-01
6.5222096e-02
-1.3445955e-01
-2.6313942e-01
-3.2578682e-01
-3.4154399e-01
-3.1655039e-01
-2.4720221e-01
-1.4948570e-01
-6.1320819e-02
-1.0049985e-03
5.0084910e-02
1.3185135e-01
2.7547546e-01
3.9964028e-01
3.6449817e-01
1.9789887e-01
3.1496906e-02
-7.1709269e-02
-1.0671884e-01
-1.0518007e-01
-1.0318685e-01
-1.0136647e-01
-9.7321495e-02
-9.9462150e-02
-1.1104301e-01
-1.2841408e-01
-1.4465836e-01
-1.5560435e-01
-1.6161946e-01
-1.7687456e-01
-2.1189302e-01
-2.4642106e-01
-2.5023330e-01
-2.0916026e-01
-1.1432040e-01
4.1786409e-02
2.2885334e-01
3.6906387e-01
3.8289126e-01
2.6654570e-01
1.2140730e-01
7.2961561e-02
1.9955260e-01
4.2599498e-01
5.4670877e-01
4.7858341e-01
2.9019435e-01
7.6205353e-02
-8.3268686e-02
-1.7587745e-01
-2.3777601e-01
-2.7311959e-01
-2.6624116e-01
-2.3632753e-01
-2.1335301e-01
-1.9937762e-01
-1.8591319e-01
-1.6088673e-01
-1.0954053e-01
-3.6703638e-02
3.7327824e-02
9.5835937e-02
1.0833111e-01
5.8502715e-02
-1.3295118e-02
-6.1753991e-02
-7.3940821e-02
-5.9450487e-02
-3.4658923e-02
-3.1011704e-02
-7.9289743e-02
-1.5404287e-01
-2.0492374e-01
-1.9914731e-01
-1.1525812e-01
5.1943097e-02
2.6000842e-01
4.1287493e-01
4.2105353e-01
2.7549904e-01
6.9701168e-02
-9.5032449e-02
-1.9390966e-01
-2.5564871e-01
-3.1460022e-01
-3.5557848e-01
-3.1898918e-01
-1.7655301e-01
5.3868997e-02
3.1250538e-01
5.0987369e-01
5.8219762e-01
5.0862572e-01
3.1875223e-01
1.0008720e-01
-3.4461923e-02
-1.3478996e-02
1.3304525e-01
2.5606542e-01
2.0710341e-01
1.5881430e-02
-1.8566972e-01
-3.3287965e-01
-4.2622781e-01
-4.8182877e-01
-5.0271706e-01
-4.8398943e-01
-4.2727520e-01
-3.2728902e-01
-1.7248227e-01
4.4313471e-02
3.0767594e-01
5.7205680e-01
7.6726436e-01
8.0529286e-01
6.5445812e-01
3.8079384e-01
8.4920335e-02
-1.5435217e-01
-3.1386065e-01
-4.0948810e-01
-4.5889657e-01
-4.7792527e-01
-4.8310990e-01
-4.8533240e-01
-4.7507919e-01
-4.3144274e-01
-3.3396739e-01
-1.7259997e-01
1.6728838e-02
1.7513865e-01
3.1293795e-01
5.0259237e-01
7.2345746e-01
8.4851032e-01
7.9574747e-01
5.5716849e-01
2.2585213e-01
-2.9144999e-02
-1.2425059e-01
-9.8471978e-02
-4.8092818e-02
-6.9283614e-02
-1.7267338e-01
-2.8067731e-01
-3.4810163e-01
-3.8273357e-01
-3.9293939e-01
-3.8925198e-01
-3.7890287e-01
-3.5259862e-01
-2.9436497e-01
-2.1014421e-01
-1.0589576e-01
5.3332435e-02
2.9011442e-01
5.5592482e-01
7.4840502e-01
7.7424030e-01
6.2134804e-01
3.6860138e-01
1.1341800e-01
-1.0050142e-01
-2.6296347e-01
-3.5058284e-01
-3.5604787e-01
-3.2309725e-01
-3.2292073e-01
-3.8770801e-01
-4.7911843e-01
-5.3443905e-01
-5.1141753e-01
-3.8965676e-01
-1.7413489e-01
9.7801055e-02
3.7996933e-01
6.1913349e-01
7.5462781e-01
7.5526535e-01
6.2541806e-01
4.2706099e-01
2.5334032e-01
1.3754503e-01
3.5431092e-02
-1.1241204e-01
-2.8018733e-01
-3.8117915e-01
-3.6057546e-01
-2.2062722e-01
-2.4273521e-02
1.3170497e-01
1.7091171e-01
8.8114225e-02
-3.7682109e-02
-1.1533365e-01
-1.0924354e-01
-2.5918699e-02
8.5952410e-02
1.3214824e-01
7.5928012e-02
-1.8699810e-02
-9.8379330e-02
-1.5562484e-01
-1.9566493e-01
-2.2456950e-01
-2.4862638e-01
-2.7436950e-01
-2.8809968e-01
-2.6878662e-01
-2.0274963e-01
-7.0292531e-02
1.2086420e-01
2.6413115e-01
2.7052561e-01
1.9901961e-01
1.2361419e-01
5.9007351e-02
2.0460767e-02
3.5323125e-02
1.0787100e-01
2.2289424e-01
3.6531129e-01
4.6198545e-01
4.2583901e-01
2.7459747e-01
7.0052570e-02
-1.4938371e-01
-3.4779037e-01
-4.9124608e-01
-5.6219382e-01
-5.6176160e-01
-4.9634379e-01
-3.7337544e-01
-2.0558016e-01
2.0351734e-03
2.6063433e-01
5.3360799e-01
6.9573088e-01
6.4665823e-01
4.4522559e-01
2.3306049e-01
8.4028261e-02
-1.8982813e-02
-1.2777538e-01
-2.6061130e-01
-3.9763446e-01
-5.0614932e-01
-5.6063442e-01
-5.5568005e-01
-4.7982022e-01
-3.1083049e-01
-4.5731278e-02
2.8683728e-01
5.9985779e-01
7.8811312e-01
8.1324212e-01
6.6023338e-01
3.6540352e-01
4.7958331e-02
-1.9684124e-01
-3.2380328e-01
-3.2948027e-01
-2.9654972e-01
-2.9903104e-01
-2.8612279e-01
-2.0438538e-01
-7.8927199e-02
1.7076466e-02
2.0748172e-02
-2.8825785e-02
-3.9141649e-02
2.2901497e-02
9.1198748e-02
1.1603365e-01
1.6245217e-01
2.6267410e-01
3.3562137e-01
2.8119246e-01
1.1357118e-01
-4.1405928e-02
-1.1491606e-01
-1.3278670e-01
-1.6209542e-01
-2.3123691e-01
-2.9291597e-01
-3.1299542e-01
-2.8692607e-01
-2.0945997e-01
-7.7306800e-02
1.0864233e-01
3.2322493e-01
4.9908872e-01
5.0794632e-01
3.2038776e-01
9.4135381e-02
-6.8245735e-02
-1.8790365e-01
-2.9069866e-01
-3.7127612e-01
-4.1263325e-01
-4.0520895e-01
-3.3816451e-01
-2.1239740e-01
-3.5214826e-02
1.8701760e-01
4.0550449e-01
5.3866851e-01
5.2090504e-01
3.5313298e-01
1.3968229e-01
-8.7030123e-03
-7.7784938e-02
-1.5410553e-01
-2.8745372e-01
-3.9188807e-01
-3.9442794e-01
-3.0572483e-01
-1.5925846e-01
2.9559497e-02
2.5601349e-01
4.6959928e-01
5.7532838e-01
4.7323222e-01
2.0215838e-01
-4.5119779e-02
-1.6702705e-01
-1.8763608e-01
-1.8773126e-01
-2.2096452e-01
-2.2718674e-01
-1.5751098e-01
-3.4003085e-02
6.7230841e-02
1.0530313e-01
1.3561920e-01
1.6156677e-01
1.1819742e-01
-5.4648321e-03
-1.4030574e-01
-2.1377945e-01
-2.0320827e-01
-1.0868895e-01
-1.5994864e-02
-8.8546793e-03
-4.6481088e-03
6.3599509e-02
1.3438708e-01
1.0623270e-01
-2.8928064e-02
-1.4291507e-01
-1.4684687e-01
-6.9666418e-02
-8.2494206e-03
6.8200810e-03
6.7497562e-02
2.0131034e-01
3.0906817e-01
2.9237652e-01
1.6708827e-01
4.7839598e-02
1.1078716e-02
5.0482114e-02
6.6035540e-02
-8.4352862e-03
-8.9187693e-02
-1.4123199e-01
-2.0015587e-01
-2.5798523e-01
-2.9240556e-01
-2.7667291e-01
-1.9648242e-01
-9.1610326e-02
-5.2665624e-02
-9.1539006e-02
-1.0672792e-01
-4.2285426e-02
4.6067403e-02
7.1237088e-02
6.0582811e-02
1.3425786e-01
2.9848375e-01
4.0907537e-01
3.3066899e-01
1.3020244e-01
5.7620003e-03
3.0178512e-03
-1.2896626e-02
-1.6430863e-01
-3.8644928e-01
-5.1092013e-01
-4.6477315e-01
-2.8944229e-01
-7.1928731e-02
