-1.1499871e-02
1.2413798e-01
2.4457494e-01
2.9344002e-01
2.3454637e-01
1.0069576e-01
-3.4917816e-02
-9.8862678e-02
-8.1634099e-02
-3.5103790e-02
3.4765428e-02
1.6080956e-01
3.1087627e-01
4.0052460e-01
3.8254979e-01
2.8085204e-01
1.5621885e-01
3.0308178e-02
-1.2728189e-01
-3.1229329e-01
-4.5378122e-01
-4.8987198e-01
-4.1042197e-01
-2.5987368e-01
-1.0152384e-01
6.3525852e-02
2.6244318e-01
4.2991644e-01
4.3186641e-01
2.7952207e-01
1.1841223e-01
-2.4357043e-03
-9.3963347e-02
-1.4011364e-01
-1.5215129e-01
-1.4745903e-01
-1.1223051e-01
-3.3228097e-02
5.9615750e-02
8.1372133e-02
6.1326718e-03
-7.8118338e-02
-1.1348841e-01
-1.1535108e-01
-1.0470658e-01
-7.1323597e-02
8.1487144e-03
1.1561800e-01
1.9790187e-01
1.8917913e-01
7.3024656e-02
-7.8497279e-02
-1.9471551e-01
-2.3892112e-01
-1.9529855e-01
-7.7741378e-02
8.0465788e-02
2.2199278e-01
2.8714794e-01
2.6269871e-01
1.4681271e-01
-6.2013521e-02
-3.0092432e-01
-4.7762659e-01
-5.2174024e-01
-4.0017418e-01
-1.4376549e-01
1.7269969e-01
4.5255608e-01
5.9676280e-01
6.0895661e-01
5.4564835e-01
3.7471576e-01
9.5786896e-02
-1.7093093e-01
-2.8908137e-01
-2.1914921e-01
-7.2586605e-02
-4.1040048e-02
-1.6302779e-01
-2.8669087e-01
-3.3121903e-01
-3.2167572e-01
-2.7724220e-01
-2.0318321e-01
-8.8013294e-02
6.6990327e-02
2.2523466e-01
3.4574728e-01
4.3807241e-01
5.1755511e-01
5.3074612e-01
4.2890820e-01
2.0747643e-01
-6.4232564e-02
-2.5692822e-01
-3.0160628e-01
-2.1714495e-01
-1.1593592e-01
-1.0875588e-01
-1.6340980e-01
-1.8507703e-01
-1.4574873e-01
-9.1060493e-02
-6.7523595e-02
-6.6382735e-02
-4.9928299e-02
8.1530848e-04
6.4842052e-02
9.7541893e-02
6.7871565e-02
-1.7137272e-02
-1.2248855e-01
-2.1640270e-01
-2.7928327e-01
-2.9225060e-01
-2.3607039e-01
-1.2694009e-01
-1.3509678e-02
8.5376391e-02
2.0326485e-01
3.8075555e-01
5.7601308e-01
6.9291152e-01
6.7438856e-01
4.7295005e-01
1.1014563e-01
-2.4996687e-01
-4.7108013e-01
-5.6589481e-01
-5.9835533e-01
-5.8403843e-01
-5.0893073e-01
-3.8804269e-01
-2.4003763e-01
-4.7616325e-02
2.1386664e-01
5.0643640e-01
7.1083474e-01
7.3019882e-01
5.5675417e-01
2.6179916e-01
-2.5844835e-02
-2.0010402e-01
-2.4437244e-01
-1.9317329e-01
-8.4977932e-02
2.4050207e-02
7.2683471e-02
4.3974579e-02
-3.8681689e-02
-1.3050806e-01
-1.7725526e-01
-1.7711175e-01
-1.8414415e-01
-2.1951501e-01
-2.4916602e-01
-2.3699118e-01
-1.8863051e-01
-1.4403466e-01
-1.2217925e-01
-9.8965712e-02
-2.5758786e-02
1.3691213e-01
3.5537840e-01
5.2695494e-01
5.6301023e-01
4.3475347e-01
1.9586129e-01
-5.0000749e-02
-2.2591308e-01
-3.2571538e-01
-3.8374378e-01
-3.8064373e-01
-2.7402196e-01
-9.6067457e-02
1.1369773e-01
3.4201111e-01
5.3281098e-01
6.4390556e-01
6.4428092e-01
4.8135280e-01
2.0441793e-01
-6.9305066e-02
-2.8063861e-01
-4.0444526e-01
-4.4123138e-01
-4.3347038e-01
-4.2435867e-01
-4.2862847e-01
-4.4615733e-01
-4.6947662e-01
-4.6229945e-01
-3.6567316e-01
-1.4799176e-01
1.7863045e-01
5.4555296e-01
8.2799299e-01
9.1528351e-01
7.8844421e-01
5.4577811e-01
2.9020385e-01
3.9638022e-02
-1.9663398e-01
-3.8278397e-01
-4.9308025e-01
-5.1880182e-01
-4.6974041e-01
-3.9871968e-01
-3.5592033e-01
-2.9910220e-01
-1.4630340e-01
1.1395925e-01
4.0420901e-01
6.0695129e-01
6.4492569e-01
5.1642487e-01
2.7600988e-01
1.7464929e-02
-1.6552551e-01
-2.4568206e-01
-2.5412005e-01
-2.1459029e-01
-1.6209263e-01
-1.5111259e-01
-1.8407097e-01
-2.1098255e-01
-1.9813370e-01
-1.2855657e-01
-2.2861140e-02
9.1290111e-02
2.3203834e-01
3.1849092e-01
2.5201804e-01
1.0816171e-01
1.3167881e-02
3.7473516e-02
1.5070353e-01
2.2573706e-01
2.0143943e-01
9.5455097e-02
-4.9597166e-02
-1.7050908e-01
-2.5313761e-01
-2.9406235e-01
-2.6597647e-01
-1.6188851e-01
-2.2667052e-02
3.6971232e-02
-5.2234557e-02
-1.9715489e-01
-2.9791476e-01
-3.4217441e-01
-3.2699345e-01
-2.4830856e-01
-9.0904420e-02
1.6666612e-01
4.6704810e-01
6.7958333e-01
7.4593630e-01
7.0639955e-01
5.7234418e-01
3.2419070e-01
4.0586627e-03
-2.9073918e-01
-4.7866419e-01
-5.4089542e-01
-5.1110223e-01
-4.3037379e-01
-3.1121952e-01
-1.6036566e-01
-1.0222698e-02
9.9863807e-02
1.3150566e-01
1.0310311e-01
1.3456479e-01
3.1633315e-01
5.4070316e-01
5.7277013e-01
3.6965325e-01
9.4459869e-02
-1.5024723e-01
-3.2479215e-01
-4.0497812e-01
-4.1367671e-01
-3.9089472e-01
-3.5811017e-01
-3.1748346e-01
-2.7505109e-01
-2.3660133e-01
-1.8150462e-01
-6.1082198e-02
1.6458762e-01
4.4729930e-01
6.5228015e-01
7.0790198e-01
6.4443339e-01
4.8680040e-01
2.2745203e-01
-7.0810906e-02
-2.8798644e-01
-3.9764395e-01
-4.3851404e-01
-4.3558032e-01
-4.0848467e-01
-3.6434527e-01
-2.6724345e-01
-9.1320940e-02
1.0106649e-01
2.4988049e-01
3.5042809e-01
4.1258215e-01
4.3183136e-01
3.6432206e-01
1.9291435e-01
7.1752177e-03
-8.2695850e-02
-9.4427522e-02
-1.1611512e-01
-1.6768752e-01
-2.1477049e-01
-2.5552193e-01
-2.9784157e-01
-3.0547835e-01
-2.4467957e-01
-1.3441624e-01
-2.5076567e-02
5.9210856e-02
1.4807811e-01
2.7395106e-01
3.8388067e-01
3.9424423e-01
3.0348280e-01
1.5171626e-01
-1.9777705e-02
-1.4996214e-01
-2.0293426e-01
-2.0195485e-01
-2.0039811e-01
-2.3108384e-01
-2.7132181e-01
-2.8457605e-01
-2.6575946e-01
-2.1816567e-01
-1.5140415e-01
-6.5002166e-02
6.5904238e-02
2.1526182e-01
3.2802807e-01
3.7581669e-01
3.7247616e-01
3.9579383e-01
4.5542995e-01
4.4253465e-01
2.9351378e-01
7.4091323e-02
-1.1953771e-01
-2.6926167e-01
-3.9992855e-01
-4.8810281e-01
-5.0027694e-01
-4.5372497e-01
-3.8206601e-01
-3.1630366e-01
-2.5000842e-01
-1.1947026e-01
1.1290051e-01
3.6827022e-01
5.0195294e-01
4.8675123e-01
4.2282799e-01
3.6256951e-01
2.7131243e-01
1.1131231e-01
-6.6790605e-02
-1.3675627e-01
-4.0081844e-02
1.2314844e-01
1.8144312e-01
9.8023640e-02
-2.6159399e-02
-1.3939683e-01
-2.3151312e-01
-2.7139565e-01
-2.5235547e-01
-1.9807357e-01
-1.2825289e-01
-4.4602715e-02
2.8809830e-02
5.1301222e-02
2.9592509e-02
-7.4498409e-03
-3.7662715e-02
-5.2251501e-02
-7.3754363e-02
-1.0444912e-01
-1.0458572e-01
-4.4749448e-02
3.5667687e-02
3.6709811e-02
-6.5134051e-02
-1.7645213e-01
-2.2111546e-01
-1.7371195e-01
-3.6629880e-02
1.5320364e-01
3.6798015e-01
5.5528465e-01
6.0296921e-01
4.7984996e-01
2.8320311e-01
1.1567441e-01
1.2703890e-02
-7.4916769e-02
-1.9300676e-01
-3.0391600e-01
-3.5849484e-01
-3.4045179e-01
-2.7715606e-01
-2.5391627e-01
-3.1941024e-01
-4.1695555e-01
-4.6928692e-01
-4.4203503e-01
-3.1942114e-01
-9.7536205e-02
2.0610585e-01
5.4511114e-01
8.1125691e-01
9.0208564e-01
8.3886745e-01
7.1152967e-01
5.3891085e-01
2.8109143e-01
-2.1937083e-02
-2.7493576e-01
-4.3128527e-01
-4.8661088e-01
-4.7231688e-01
-4.4712047e-01
-4.3950424e-01
-4.2947123e-01
-4.0069358e-01
-3.4314545e-01
-2.5136228e-01
-1.3205123e-01
9.8692001e-03
1.5647832e-01
3.0495569e-01
4.3298362e-01
5.1233994e-01
5.7619319e-01
5.7844695e-01
4.1372727e-01
1.1589579e-01
-1.7522260e-01
-3.4386446e-01
-3.3992322e-01
-1.9660131e-01
-2.3517383e-02
5.7924689e-02
9.0200205e-03
-1.1450458e-01
-2.5087816e-01
-3.5356340e-01
-3.8704563e-01
-3.3580929e-01
-1.9462866e-01
1.5727335e-02
2.1434768e-01
3.4460211e-01
4.4514994e-01
5.1932885e-01
4.9463679e-01
3.2956174e-01
7.2236655e-02
-1.8731850e-01
-3.5628287e-01
-3.4422271e-01
-1.8321547e-01
-4.1245048e-02
-2.6367882e-02
-1.1610359e-01
-2.2733662e-01
-2.7262997e-01
-1.9704637e-01
3.6757220e-03
2.6846619e-01
4.8157984e-01
4.9686108e-01
3.1505572e-01
1.2830007e-01
3.7574075e-02
5.6737593e-03
-3.5293463e-02
-1.2488631e-01
-2.2463879e-01
-2.8953200e-01
-3.2382484e-01
-3.6321846e-01
-4.2467333e-01
-4.7869582e-01
-4.8295563e-01
-4.0451326e-01
-2.3236436e-01
1.9725611e-02
3.1961137e-01
6.0855729e-01
7.9680536e-01
8.0531262e-01
7.0365984e-01
6.3029148e-01
5.4235383e-01
3.3193959e-01
2.5232384e-02
-2.7949473e-01
-4.9724722e-01
-5.9104493e-01
-5.7971108e-01
-5.0904650e-01
-4.1979459e-01
-3.4836972e-01
-3.1018838e-01
-2.8227557e-01
-2.3099441e-01
-8.9642339e-02
1.9582169e-01
5.3562604e-01
7.3555841e-01
6.9670703e-01
5.2820783e-01
4.0470364e-01
3.5221076e-01
2.5687859e-01
6.1013226e-02
-1.6389516e-01
-3.3927476e-01
-4.3838382e-01
-4.6896895e-01
-4.5798663e-01
-4.2558220e-01
-3.8224455e-01
-3.3224105e-01
-2.7648520e-01
-2.1368702e-01
-1.2732529e-01
1.8994469e-02
2.3125211e-01
4.3372682e-01
4.9694625e-01
4.1503603e-01
3.3897847e-01
3.2349753e-01
2.7631616e-01
1.4810580e-01
3.9270954e-03
-7.8941678e-02
-8.7711499e-02
-7.8696023e-02
-1.1249699e-01
-1.8170490e-01
-2.4324585e-01
-2.7592805e-01
-2.8536150e-01
-2.7691080e-01
-2.3194425e-01
-1.1331507e-01
7.5585539e-02
2.5730894e-01
3.2130304e-01
2.5317304e-01
1.5818868e-01
8.9050570e-02
-2.0908741e-02
-2.0231969e-01
-3.2679503e-01
-2.7955297e-01
-1.2848372e-01
-2.2348345e-02
1.1267404e-02
5.9519176e-02
1.7260036e-01
3.4420641e-01
5.2252665e-01
6.1906664e-01
5.3576048e-01
2.4445264e-01
-1.5942845e-01
-5.2025449e-01
-7.1243972e-01
-7.1979001e-01
-6.1052698e-01
-4.3050647e-01
-2.1644735e-01
-2.5140596e-02
1.3294285e-01
2.6690106e-01
3.7671551e-01
4.7116528e-01
5.4133463e-01
5.5344100e-01
4.6333478e-01
2.5114679e-01
-4.7638533e-02
-3.2983145e-01
-4.9991034e-01
-5.3808155e-01
-4.5507471e-01
-2.5386572e-01
3.9347444e-02
3.0985246e-01
4.3288742e-01
3.6764894e-01
1.5841267e-01
-5.8115570e-02
-1.5968706e-01
-1.2721668e-01
-2.5931273e-02
5.1733768e-02
4.3280315e-02
-7.5893276e-02
-2.5457907e-01
-3.8848748e-01
-4.3512372e-01
-4.1239646e-01
-3.0957599e-01
-1.0292357e-01
1.4452305e-01
3.2046699e-01
4.2028604e-01
5.2703151e-01
6.5463354e-01
7.2431439e-01
6.6249258e-01
4.6908148e-01
1.9702319e-01
-9.8541395e-02
-3.6642639e-01
-5.6677897e-01
-6.9406874e-01
-7.4870049e-01
-7.1466756e-01
-6.0201828e-01
-4.4182727e-01
-2.5331927e-01
-3.6180101e-02
2.2071685e-01
4.8136450e-01
6.7543333e-01
7.8444622e-01
7.9325059e-01
6.5612693e-01
3.9346382e-01
8.0930729e-02
-1.9115801e-01
-3.5493198e-01
-4.1708207e-01
-4.1914614e-01
-3.9275752e-01
-3.4846106e-01
-2.8969002e-01
-2.1843917e-01
-1.3856728e-01
-7.4909969e-02
-5.1610067e-02
-5.7614505e-02
-5.4176392e-02
-1.5336758e-02
5.3869122e-02
1.2456992e-01
1.9491066e-01
3.1047785e-01
4.5224536e-01
5.0810485e-01
3.9694264e-01
1.5544880e-01
-9.7354120e-02
-2.6542692e-01
-3.2771130e-01
-3.3918230e-01
-3.5908330e-01
-3.6940541e-01
-3.3024792e-01
-2.3594014e-01
-9.8494005e-02
6.6395507e-02
2.3504747e-01
3.5565527e-01
3.6504200e-01
2.8718110e-01
2.2757139e-01
2.2571616e-01
2.4260816e-01
2.2834317e-01
1.3420720e-01
-4.8519910e-02
-2.5696344e-01
-4.0499042e-01
-4.5552915e-01
-4.4092139e-01
-3.9571780e-01
-3.0789564e-01
-1.6758311e-01
-1.2872691e-02
7.8611951e-02
1.1330621e-01
1.9074259e-01
3.0983988e-01
3.8429740e-01
4.0405758e-01
4.0950098e-01
3.9035574e-01
3.0607832e-01
1.7114024e-01
2.5869210e-02
-1.2430337e-01
-2.3668689e-01
-2.5149031e-01
-2.0061759e-01
-1.7853125e-01
-2.2057643e-01
-2.7980440e-01
-3.0108850e-01
-2.5120146e-01
-1.4485840e-01
-2.6914104e-02
9.1197970e-02
2.0636761e-01
2.8300654e-01
2.8603954e-01
1.9531074e-01
2.6218592e-02
-1.4866020e-01
-2.5530091e-01
-2.6360500e-01
-1.8517204e-01
-7.3260629e-02
2.4095610e-03
2.6942408e-02
4.1203189e-02
5.3749309e-02
4.1782981e-02
2.7229239e-02
5.3353907e-02
1.0968972e-01
1.7159158e-01
2.2460778e-01
2.3635748e-01
2.0890679e-01
1.7469713e-01
1.3270416e-01
4.7604488e-02
-7.6484492e-02
-1.9595699e-01
-2.9043899e-01
-3.5007534e-01
-3.5050497e-01
-2.6538704e-01
-1.0337465e-01
7.0375102e-02
1.7350111e-01
1.6733534e-01
5.5952826e-02
-1.1855267e-01
-2.7055821e-01
-3.0694250e-01
-1.8485465e-01
6.0661384e-02
3.2722072e-01
5.1257055e-01
5.8277507e-01
5.3881753e-01
3.8266999e-01
1.2247183e-01
-1.7514105e-01
-4.0443458e-01
-5.2794284e-01
-5.4801294e-01
-4.6830273e-01
-3.1318037e-01
-1.0290362e-01
1.3541126e-01
3.5865448e-01
5.3441717e-01
6.1179752e-01
5.3269873e-01
3.2032296e-01
5.3665876e-02
-2.0656378e-01
-3.9272833e-01
-4.7608909e-01
-4.9290029e-01
-4.6056576e-01
-3.7402438e-01
-2.3445058e-01
-6.0207218e-02
1.2150318e-01
2.7348391e-01
3.3377143e-01
2.4819555e-01
6.4666106e-02
-6.8591789e-02
-7.5430882e-02
2.1235070e-02
1.7580709e-01
3.3264704e-01
4.3934802e-01
4.3961786e-01
2.7717471e-01
1.3394832e-02
-2.0654877e-01
-3.3619656e-01
-4.0225336e-01
-4.4249234e-01
-4.5115286e-01
-3.7723591e-01
-2.1788210e-01
-4.3140632e-02
6.8547615e-02
1.0645140e-01
1.3353641e-01
2.0480044e-01
2.9373794e-01
3.3128200e-01
3.1441652e-01
3.1669340e-01
3.4807424e-01
3.1951011e-01
1.6143139e-01
-6.7294801e-02
-2.5574090e-01
-3.7751782e-01
-4.5003228e-01
-4.7226525e-01
-4.2025335e-01
-2.6818260e-01
-2.8553945e-02
2.0090223e-01
2.8559317e-01
2.4653299e-01
1.9174881e-01
1.0892828e-01
-3.2023698e-02
-1.9201582e-01
-3.1153766e-01
-3.2282792e-01
-1.7631872e-01
7.7751469e-02
3.0665196e-01
4.5513353e-01
4.9143082e-01
3.1325306e-01
-4.2435806e-02
-3.7930453e-01
-5.5244152e-01
-5.0053912e-01
-2.6057065e-01
-7.9411878e-05
1.1477645e-01
1.2537356e-01
1.6018088e-01
1.9436375e-01
1.5005293e-01
4.3515705e-02
-1.4017814e-03
1.2749309e-01
3.7340056e-01
5.4248688e-01
5.0742257e-01
3.3533221e-01
9.4498825e-02
-2.3132112e-01
-5.5029672e-01
-7.2298732e-01
-7.0349726e-01
-5.2893278e-01
-2.8933874e-01
-6.8093969e-02
9.7125634e-02
2.3427375e-01
3.8634161e-01
5.3155373e-01
6.0848714e-01
5.6734561e-01
4.1860597e-01
2.0516236e-01
-3.3791672e-02
-2.3008548e-01
-3.4177853e-01
-3.8133192e-01
-3.6461957e-01
-3.1188812e-01
-2.4092887e-01
-1.4112020e-01
-1.5184213e-02
7.8540014e-02
6.3456149e-02
-6.1972812e-02
-2.0766185e-01
-2.7434800e-01
-2.4090517e-01
-1.5302261e-01
-4.4455538e-02
7.8486350e-02
2.0940445e-01
3.1606490e-01
3.8256751e-01
3.9675775e-01
3.3560785e-01
2.7210714e-01
2.2733102e-01
9.1877071e-02
-1.3782541e-01
-3.7368342e-01
-5.3821217e-01
-5.8623175e-01
-5.3599588e-01
-4.1679185e-01
-2.2063050e-01
6.9334651e-02
3.8146521e-01
5.8334826e-01
6.2406557e-01
5.2190658e-01
3.4226980e-01
1.7933142e-01
5.9867614e-02
-3.2779167e-02
-1.1689047e-01
-1.6978076e-01
-1.6251343e-01
-1.4936907e-01
-1.5512927e-01
-1.3712772e-01
-8.2521671e-02
-2.8657383e-02
-2.9960782e-02
-9.7573984e-02
-1.7989632e-01
-2.3447922e-01
-2.7313060e-01
-2.8920669e-01
-2.1886929e-01
-2.5295562e-02
2.3740490e-01
4.7797790e-01
6.1326186e-01
5.8887940e-01
4.2684487e-01
1.8397023e-01
-7.9199247e-02
-3.1039950e-01
-4.8713764e-01
-5.9594165e-01
-6.2672274e-01
-5.6479823e-01
-4.0443627e-01
-1.4852627e-01
1.9347690e-01
5.5355030e-01
8.3185700e-01
9.6127598e-01
8.8517489e-01
5.9343086e-01
1.8870582e-01
-1.8395464e-01
-4.3818469e-01
-5.5739111e-01
-5.6055972e-01
-4.6621476e-01
-3.3874546e-01
-2.4545970e-01
-1.4718812e-01
1.7150851e-02
2.2519223e-01
3.6775710e-01
3.5847576e-01
2.1741889e-01
2.3564124e-02
-1.3058276e-01
-1.9601044e-01
-1.9444555e-01
-1.4908178e-01
-6.6630040e-02
2.9785529e-02
8.3393925e-02
3.0080815e-02
-1.0602362e-01
-2.3070744e-01
-2.8887631e-01
-2.6161151e-01
-1.3301956e-01
8.2803538e-02
3.4486762e-01
5.7844169e-01
6.7159645e-01
5.4795761e-01
2.6365153e-01
-2.2895371e-02
-2.1702622e-01
-3.3296853e-01
-4.1404742e-01
-4.5786205e-01
-4.2513030e-01
-3.1152929e-01
-1.6154400e-01
-1.9641854e-02
1.0429002e-01
2.1389665e-01
2.9726553e-01
3.3233400e-01
3.1232053e-01
2.3494714e-01
8.3285147e-02
-1.1761802e-01
-2.7992516e-01
-3.5558638e-01
-3.5268204e-01
-2.6939895e-01
-1.2955245e-01
2.9999396e-02
2.0884062e-01
3.7308353e-01
4.5706699e-01
4.1519765e-01
2.1860173e-01
-7.9019736e-02
-3.3570978e-01
-4.4380282e-01
-4.0783884e-01
-2.8780555e-01
-9.8252065e-02
1.5245559e-01
3.9920326e-01
5.4528279e-01
5.1830035e-01
3.5485422e-01
1.6877109e-01
9.8192155e-03
-1.3146628e-01
-2.4860011e-01
-3.4218098e-01
-4.1042315e-01
-4.3209099e-01
-4.0840701e-01
-3.6066926e-01
-2.6948350e-01
-1.0501518e-01
3.8963600e-02
6.2433085e-02
5.2649834e-02
1.2128079e-01
2.5485705e-01
3.9728206e-01
4.8305750e-01
4.4308814e-01
3.1256762e-01
2.0400090e-01
1.4806862e-01
8.7658134e-02
-3.8561549e-02
-2.1920440e-01
-3.6483572e-01
-4.2393586e-01
-4.1089018e-01
-3.4286969e-01
-2.4330397e-01
-1.4195998e-01
-6.4688529e-02
-1.1688750e-02
7.4495678e-02
2.3237270e-01
4.1564655e-01
5.5558926e-01
5.8505510e-01
4.4585523e-01
1.7378267e-01
-1.0656424e-01
-2.8349337e-01
-3.2794461e-01
-2.8819932e-01
-2.0497096e-01
-1.0287746e-01
-3.2203493e-02
-3.1933900e-02
-7.7930577e-02
-1.0198598e-01
-8.3967371e-02
-6.6368042e-02
-5.6239777e-02
-5.7699732e-02
-1.2085360e-01
-2.2453099e-01
-2.8454428e-01
-2.4972002e-01
-1.0466562e-01
1.1959535e-01
3.3511819e-01
4.5112807e-01
5.1115233e-01
5.7598797e-01
5.1567379e-01
2.4654959e-01
-1.1460156e-01
-4.0312446e-01
-5.2361304e-01
-4.7961423e-01
-3.4613021e-01
-2.3454988e-01
-1.8952155e-01
-1.4801398e-01
-4.2091631e-02
1.3258672e-01
3.1874831e-01
4.4523205e-01
4.7803261e-01
4.2274443e-01
2.9963614e-01
1.6560851e-01
1.0493253e-01
9.2640846e-02
3.3639538e-02
-9.0956435e-02
-2.6414405e-01
-4.4739327e-01
-5.5175768e-01
-5.1343809e-01
-3.6849692e-01
-1.9998876e-01
-3.8257946e-02
1.2397640e-01
2.7733095e-01
3.8349040e-01
3.9971786e-01
3.3021316e-01
2.1786516e-01
8.0513968e-02
-7.9222369e-02
-2.1142597e-01
-2.5336955e-01
-2.3158032e-01
-2.2803397e-01
-2.5238702e-01
-2.4523413e-01
-1.7504109e-01
-7.7998480e-02
-1.6171656e-02
-9.9696596e-03
4.2964055e-03
1.3567184e-01
3.5411232e-01
4.9020141e-01
4.8454526e-01
4.1325206e-01
3.7462101e-01
3.7232461e-01
2.9388173e-01
8.2732837e-02
-1.7818612e-01
-3.6609060e-01
-4.4115871e-01
-4.3945011e-01
-3.8905533e-01
-3.0177506e-01
-2.1090156e-01
-1.5620112e-01
-1.3977865e-01
-1.2594186e-01
-7.8798675e-02
2.2034412e-02
1.6040177e-01
2.8286758e-01
3.6315960e-01
3.9316370e-01
3.4968349e-01
2.3380367e-01
7.8389081e-02
-6.7051628e-02
-1.5564517e-01
-1.7634647e-01
-1.6826188e-01
-1.7225324e-01
-1.7613963e-01
-1.5161688e-01
-9.8654956e-02
-4.2587177e-02
-4.4792457e-03
1.8354522e-02
4.3368301e-02
7.6604328e-02
8.9957706e-02
6.6483381e-02
2.1155601e-02
-3.8964428e-02
-1.0137354e-01
-1.2830506e-01
-1.1144701e-01
-8.7024020e-02
-7.8213507e-02
-8.4203943e-02
-1.0669155e-01
-1.5116311e-01
-2.0719880e-01
-2.4762318e-01
-2.2133841e-01
-8.1364682e-02
1.7157086e-01
4.7162838e-01
6.9725438e-01
7.6302420e-01
6.5300572e-01
4.1170103e-01
1.1199645e-01
-1.9227762e-01
-4.2624749e-01
-5.3500102e-01
-5.4774626e-01
-5.0263718e-01
-3.8743847e-01
-2.2890361e-01
-9.8993591e-02
-2.2617806e-02
-2.6561904e-02
-8.9237564e-02
-7.7909901e-02
9.0383660e-02
3.5743561e-01
5.8199980e-01
6.3825959e-01
5.2527774e-01
3.8856129e-01
3.6561257e-01
4.0930542e-01
3.5419043e-01
1.1602014e-01
-2.4198684e-01
-5.8044171e-01
-7.9024054e-01
-8.3811532e-01
-7.6037821e-01
-6.2213618e-01
-4.4862980e-01
-2.3908126e-01
-4.4844237e-03
2.3174094e-01
4.5195021e-01
6.3437588e-01
7.0111088e-01
6.1212909e-01
4.7710971e-01
3.7342992e-01
2.2787351e-01
-1.3693156e-02
-2.8843424e-01
-4.8291561e-01
-5.6095922e-01
-5.4688639e-01
-4.4321081e-01
-2.7328896e-01
-1.3762914e-01
-9.0136504e-02
-4.2620326e-02
7.0169051e-02
2.3660313e-01
4.3065546e-01
5.8221712e-01
5.9585530e-01
4.4433416e-01
1.7147170e-01
-1.1531219e-01
-3.0069485e-01
-3.7671491e-01
-3.8410948e-01
-3.2614946e-01
-2.1247445e-01
-9.3115752e-02
1.5118203e-02
1.2243518e-01
1.6011893e-01
4.9853585e-02
-1.3314794e-01
-2.4121543e-01
-2.1464830e-01
-7.6732831e-02
8.8229516e-02
2.0251389e-01
2.9785186e-01
4.0023359e-01
4.3296998e-01
3.6899005e-01
2.2388282e-01
5.6366372e-03
-2.1510886e-01
-3.6231459e-01
-3.9973202e-01
-3.2082813e-01
-1.3025250e-01
1.1618661e-01
2.7432777e-01
2.2959655e-01
3.6449835e-02
-1.4703706e-01
-2.4195266e-01
-2.4111259e-01
-1.4754424e-01
2.1463377e-02
2.3435843e-01
4.2725302e-01
5.1228958e-01
3.9601230e-01
1.0437615e-01
-1.7041831e-01
-3.2908893e-01
-4.2704718e-01
-5.0280699e-01
-5.3947200e-01
-5.1197367e-01
-4.2929842e-01
-2.9529518e-01
-9.3322547e-02
1.6283914e-01
4.3223372e-01
6.4417775e-01
7.1169261e-01
5.9534642e-01
3.2869197e-01
7.5984243e-03
-2.4596838e-01
-3.2074798e-01
-1.6862475e-01
9.1978690e-02
2.3492581e-01
1.8787636e-01
6.1260951e-02
-4.3874970e-02
-1.1412983e-01
-1.7330769e-01
-2.3423023e-01
-3.0633535e-01
-3.8175010e-01
-4.2945468e-01
-4.1332059e-01
-3.0117300e-01
-8.9960651e-02
1.7131356e-01
4.0721417e-01
5.6516760e-01
6.3227721e-01
6.2883464e-01
5.4477596e-01
3.7646104e-01
2.0757334e-01
6.3978003e-02
-1.1457573e-01
-3.2673419e-01
-5.0537682e-01
-5.8580515e-01
-5.3571177e-01
-3.5418018e-01
-5.3227648e-02
2.6838666e-01
4.2914254e-01
3.5365599e-01
1.1694314e-01
-1.4457482e-01
-3.1460773e-01
-3.4977120e-01
-2.6060440e-01
-6.3248581e-02
1.7083761e-01
2.9991113e-01
2.4812556e-01
5.3131906e-02
-1.8020806e-01
-3.2490333e-01
-3.0366605e-01
-1.3862072e-01
5.1499774e-02
1.4288636e-01
1.5127889e-01
1.5662806e-01
1.5400549e-01
1.0731578e-01
2.9895124e-02
-8.8937133e-03
3.0679009e-02
1.0798080e-01
1.6953220e-01
1.6763716e-01
6.7034368e-02
-1.0857810e-01
-3.0852857e-01
-4.6664073e-01
-5.0332484e-01
-3.8602769e-01
-1.2443538e-01
2.2374293e-01
5.4442936e-01
7.4096128e-01
7.7752785e-01
6.6451607e-01
4.3316054e-01
1.0609956e-01
-2.7563026e-01
-6.0990590e-01
-8.0054191e-01
-8.2903835e-01
-7.2601459e-01
-5.3246302e-01
-2.9412422e-01
-6.2174509e-02
1.2947715e-01
2.6476259e-01
3.3243803e-01
3.3863707e-01
3.0625647e-01
2.7012708e-01
2.5577035e-01
2.7103984e-01
3.0484749e-01
3.0103677e-01
1.9741820e-01
1.0877929e-02
-1.7408293e-01
-2.8107926e-01
-2.5371026e-01
-1.0470979e-01
4.7348716e-02
7.7367785e-02
1.5761274e-02
1.2950477e-02
1.0933949e-01
2.2201541e-01
2.6245571e-01
1.8802954e-01
2.3631438e-03
-2.3755295e-01
-4.2864056e-01
-5.0976848e-01
-5.0434229e-01
-4.4948244e-01
-3.3416909e-01
-1.3601144e-01
1.1953836e-01
3.4972154e-01
4.7131576e-01
4.5852368e-01
3.4655781e-01
2.2774488e-01
1.9454894e-01
1.7333576e-01
1.4788422e-02
-2.4434283e-01
-4.5188587e-01
-5.0477062e-01
-3.7794241e-01
-1.0923430e-01
2.1381125e-01
4.5324021e-01
5.1528672e-01
4.2766828e-01
2.5385174e-01
4.3151281e-02
-1.4740296e-01
-2.7082549e-01
-3.1617531e-01
-2.9912507e-01
-2.4090148e-01
-1.7358256e-01
-1.4566275e-01
-1.8800284e-01
-2.5024925e-01
-2.3401908e-01
-9.7665882e-02
1.2619925e-01
3.5396732e-01
4.9388846e-01
4.9733402e-01
3.7057210e-01
1.9231506e-01
3.0038633e-02
-9.8088865e-02
-1.5381554e-01
-1.2759212e-01
-3.7693270e-02
7.5820396e-02
1.1456578e-01
2.3774303e-02
-1.3590800e-01
-2.6469802e-01
-3.1408124e-01
-2.9374829e-01
-2.2386602e-01
-1.2116365e-01
-1.2692619e-02
1.0024912e-01
2.4243606e-01
3.7992194e-01
4.2701856e-01
3.7463019e-01
2.7468043e-01
1.3828462e-01
-2.5066470e-02
-1.8213738e-01
-3.1675955e-01
-4.2356981e-01
-4.7657006e-01
-4.4199924e-01
-3.1571514e-01
-1.1347527e-01
1.0069899e-01
2.2923583e-01
2.3032010e-01
1.1566731e-01
-3.6699740e-02
-1.1897211e-01
-8.6839537e-02
3.3198045e-02
2.0409845e-01
4.0356175e-01
5.4233703e-01
5.0850850e-01
3.0168675e-01
-9.8363949e-03
-3.2396561e-01
-5.0395963e-01
-4.9236699e-01
-3.4850069e-01
-1.7593658e-01
-3.0595473e-02
9.6521881e-02
2.2347154e-01
3.5035721e-01
4.1246420e-01
3.2589416e-01
1.3013819e-01
-5.2832666e-02
-1.6582537e-01
-2.2122191e-01
-2.3941403e-01
-2.2755605e-01
-1.9007553e-01
-1.3506322e-01
-8.3603051e-02
-4.5031641e-02
-1.4681242e-02
9.3028113e-03
3.9998572e-02
7.2740374e-02
4.4037128e-02
-9.0809140e-02
-2.4510312e-01
-2.9707133e-01
-2.0788703e-01
-2.0368530e-02
1.9334249e-01
3.7559411e-01
5.0145715e-01
5.6389864e-01
5.1091749e-01
2.9597772e-01
-2.3470293e-02
-3.1961634e-01
-4.7532882e-01
-4.3222383e-01
-2.3067801e-01
-4.4854812e-03
1.0750463e-01
7.1441212e-02
-2.6441163e-02
-8.8239443e-02
-7.9858718e-02
-9.1779401e-03
7.8868360e-02
1.0048096e-01
2.3875566e-02
-8.3286948e-02
-1.5047482e-01
-1.4439212e-01
-1.0925234e-01
-1.0715338e-01
-9.0024819e-02
-9.9643390e-03
1.2887577e-01
3.1024353e-01
4.5931845e-01
4.6230326e-01
2.8806500e-01
2.2036993e-02
-2.1687603e-01
-3.6435861e-01
-4.3378501e-01
-4.2941426e-01
-3.2227267e-01
-1.0374800e-01
1.6580473e-01
3.5808279e-01
3.7762971e-01
2.3813219e-01
5.2816310e-02
-6.8700782e-02
-1.0947903e-01
-8.0328456e-02
3.0598174e-02
1.9040070e-01
3.0217699e-01
2.9227547e-01
1.6707922e-01
4.0941199e-04
-1.1207774e-01
-1.6409965e-01
-2.2664740e-01
-2.9654584e-01
-3.2305702e-01
-2.7966557e-01
-1.5612238e-01
1.6165416e-02
1.8310799e-01
2.7571055e-01
2.4107157e-01
1.0459754e-01
-7.0716285e-02
-2.2987043e-01
-3.3635389e-01
-3.9074858e-01
-4.0897716e-01
-3.9397501e-01
-3.3372530e-01
-1.8611478e-01
4.2867533e-02
2.8622904e-01
5.3002087e-01
7.5597861e-01
8.7598912e-01
8.2355437e-01
5.9570336e-01
2.3742260e-01
-1.3172704e-01
-3.6236692e-01
-3.7090911e-01
-2.3294164e-01
-1.3664888e-01
-1.6211608e-01
-2.6896246e-01
-3.9154556e-01
-4.6163613e-01
-4.5988619e-01
-3.9604985e-01
-2.6271689e-01
-5.1091458e-02
2.0313802e-01
4.5181993e-01
6.5160600e-01
7.0550448e-01
5.6754226e-01
2.8699450e-01
-6.5878285e-02
-3.8998227e-01
-5.8943364e-01
-6.3101649e-01
-5.4689384e-01
-3.8120599e-01
-1.5029626e-01
1.3272636e-01
4.3562261e-01
6.6919798e-01
7.2212793e-01
5.8930859e-01
3.6438116e-01
1.3304745e-01
-8.1046914e-02
-2.8011007e-01
-4.3436322e-01
-5.0771513e-01
-4.8819718e-01
-3.8977975e-01
-2.3528298e-01
-5.0717403e-02
1.2001814e-01
2.0503779e-01
1.6670617e-01
8.0703253e-02
1.1643633e-02
-5.3417030e-02
-1.0134033e-01
-1.1591855e-01
-1.1155352e-01
-5.5763133e-02
1.0414217e-01
3.3770538e-01
5.1404365e-01
5.0065014e-01
3.0234196e-01
4.7362183e-02
-1.2289299e-01
-1.5789877e-01
-1.3286159e-01
-1.2623199e-01
-1.6289213e-01
-2.3043162e-01
-2.5601650e-01
-1.8964368e-01
-4.5380082e-02
1.3965932e-01
2.7818170e-01
2.9529874e-01
2.1611064e-01
1.1631026e-01
5.8857899e-02
4.5001361e-02
1.2942286e-02
-8.4988363e-02
-2.1492362e-01
-3.0478678e-01
-3.2662439e-01
-2.9655773e-01
-2.5782015e-01
-2.3374279e-01
-1.9275166e-01
-1.0445527e-01
-1.3903328e-02
2.8709516e-02
7.3648369e-02
1.6361341e-01
2.5448290e-01
3.0359496e-01
2.9325346e-01
2.3623136e-01
1.9515046e-01
2.0999704e-01
2.1941922e-01
1.4712935e-01
5.1615545e-02
2.6950391e-02
6.5939713e-02
6.8860257e-02
-6.7990966e-02
-3.1060685e-01
-5.0716468e-01
-5.5280271e-01
-4.5040175e-01
-2.4036976e-01
4.0468158e-02
3.4112650e-01
5.5925146e-01
5.6003176e-01
3.1960633e-01
-6.7432717e-03
-2.4207834e-01
-3.2456806e-01
-2.8547780e-01
-1.7933669e-01
-3.5020402e-02
1.1689545e-01
2.0606669e-01
1.6832951e-01
2.3993331e-02
-1.2934626e-01
-2.0569528e-01
-1.9819193e-01
-1.4359171e-01
-5.0194866e-02
9.1120038e-02
2.3718434e-01
3.0701500e-01
2.6591886e-01
1.3772878e-01
-1.9847978e-02
-1.4561077e-01
-2.0959229e-01
-2.1014834e-01
-1.4224609e-01
-1.4130216e-02
1.3377203e-01
2.3861282e-01
2.3603758e-01
1.0847802e-01
-7.3163043e-02
-2.1374653e-01
-2.9122434e-01
-3.3539440e-01
-3.7289356e-01
-3.8862310e-01
-3.4133021e-01
-2.0331657e-01
2.0874610e-02
2.9283611e-01
5.3666549e-01
6.4916864e-01
5.8892448e-01
4.2708126e-01
2.6859941e-01
1.6843299e-01
1.2731648e-01
9.2454802e-02
-1.7550432e-02
-2.1608296e-01
-4.2933247e-01
-5.7793250e-01
-6.3212826e-01
-6.1207160e-01
-5.3084322e-01
-3.8565542e-01
-1.9330103e-01
2.8964039e-02
2.7684041e-01
5.2158425e-01
7.0053829e-01
7.6056049e-01
7.1897814e-01
6.1090796e-01
4.1619721e-01
1.4497476e-01
-1.3519520e-01
-3.5472245e-01
-4.8749002e-01
-5.4942719e-01
-5.3217958e-01
-4.0277556e-01
-1.8620916e-01
2.2423681e-02
1.5650186e-01
2.1386127e-01
2.0445950e-01
1.3683310e-01
4.1543294e-02
-2.1036030e-02
-2.5382483e-02
-1.6581256e-02
-2.8070232e-05
4.3123771e-02
6.5166084e-02
3.2506850e-02
-3.9264974e-02
-1.3327794e-01
-2.3276249e-01
-3.0784597e-01
-3.1322516e-01
-2.1027629e-01
-2.3112605e-02
1.1846615e-01
9.2180701e-02
-5.4993331e-02
-1.7592759e-01
-1.5634113e-01
2.8094464e-02
2.5010456e-01
3.5026680e-01
3.5354346e-01
4.0403989e-01
5.0052635e-01
5.0552002e-01
3.4973287e-01
4.3270802e-02
-3.2234089e-01
-5.9358679e-01
-6.8091636e-01
-5.8571602e-01
-3.3657492e-01
2.2259178e-02
3.7124410e-01
5.6603288e-01
5.5218439e-01
3.5492919e-01
7.5028860e-02
-1.5396767e-01
-2.9669074e-01
-3.7751288e-01
-3.8849444e-01
-3.4151732e-01
-2.4819063e-01
-7.4789571e-02
1.1771762e-01
1.8599851e-01
7.4665177e-02
-1.3235367e-01
-2.6890671e-01
-2.3979764e-01
-5.5081102e-02
2.4915313e-01
5.6965895e-01
7.7152369e-01
7.8432805e-01
6.0534203e-01
3.1367265e-01
1.1993796e-02
-2.3902199e-01
-4.0413177e-01
-4.6820596e-01
-4.6535620e-01
-4.3300337e-01
-3.6205821e-01
-2.4711695e-01
-1.2579824e-01
-8.4538807e-02
-1.4877533e-01
-2.2682377e-01
-2.2257784e-01
-8.7413165e-02
1.4833820e-01
4.0125520e-01
5.8742842e-01
6.0444487e-01
4.0159904e-01
5.5296392e-02
-2.7197432e-01
-4.3534614e-01
-3.7891546e-01
-1.3956786e-01
1.6484474e-01
3.8932312e-01
4.4639602e-01
3.3513132e-01
1.1173920e-01
-1.3177242e-01
-2.9993818e-01
-3.6322639e-01
-3.5067517e-01
-2.8618448e-01
-1.8843199e-01
-6.0004123e-02
1.2673994e-01
3.4573500e-01
4.6299865e-01
3.6246120e-01
1.1461027e-01
-1.0700237e-01
-2.3142329e-01
-2.7276527e-01
-2.3712462e-01
-1.7008869e-01
-1.3404723e-01
-1.0325966e-01
-2.6204459e-02
9.3313483e-02
2.0093359e-01
2.2768674e-01
1.6668545e-01
8.2308352e-02
3.4039994e-02
-1.7270274e-02
-1.3142977e-01
-2.4168220e-01
-2.5549551e-01
-1.6493481e-01
-3.1287801e-02
5.8700885e-02
8.2265991e-02
8.6305571e-02
7.7335680e-02
5.2290222e-02
5.6135845e-02
6.6156907e-02
7.9869267e-03
-1.1601192e-01
-2.3135657e-01
-2.7405203e-01
-2.0136246e-01
1.0897100e-02
3.0725607e-01
5.6380523e-01
6.7459704e-01
5.9504373e-01
3.6500265e-01
8.5899656e-02
-1.5762228e-01
-3.1765350e-01
-3.9510692e-01
-4.3730897e-01
-4.7139799e-01
-4.8680409e-01
-4.6446103e-01
-3.8218687e-01
-2.1775955e-01
1.5672705e-02
2.4838889e-01
4.0680142e-01
4.6896855e-01
4.6294150e-01
3.8423960e-01
2.3889976e-01
1.0872813e-01
9.4381051e-03
-9.9392028e-02
-2.1977747e-01
-3.3843325e-01
-4.2622724e-01
-4.3077619e-01
-3.2239559e-01
-1.3543797e-01
1.1078313e-01
4.1964424e-01
6.9297686e-01
7.7565117e-01
6.0012538e-01
2.3132074e-01
-1.8122815e-01
-4.9583951e-01
-6.4124031e-01
-6.0643749e-01
-4.2780072e-01
-1.8569560e-01
4.3942864e-02
2.0867856e-01
2.4802675e-01
1.3940461e-01
-5.1249885e-02
-2.0986504e-01
-2.3260202e-01
-6.5042043e-02
2.2301193e-01
4.8502287e-01
6.3807435e-01
6.3707281e-01
4.7042208e-01
1.8537945e-01
-1.2326438e-01
-3.5436195e-01
-4.5483931e-01
-4.3005722e-01
-3.4586982e-01
-2.6078100e-01
-1.5384680e-01
-5.6715470e-03
1.4173345e-01
2.1562477e-01
1.5504839e-01
7.8549577e-04
-1.6834643e-01
-3.0548049e-01
-3.6692457e-01
-3.4174095e-01
-2.2800685e-01
-1.8256732e-02
2.4276548e-01
4.4524884e-01
4.7162184e-01
3.0865133e-01
8.6452305e-02
-4.6935311e-02
-7.4570257e-02
-5.0918647e-02
2.8461213e-02
1.4475105e-01
2.1793208e-01
1.8932870e-01
5.8240541e-02
-1.1498138e-01
-2.5575741e-01
-3.3515882e-01
-3.4471858e-01
-2.6390890e-01
-1.0341283e-01
9.2641128e-02
2.2556418e-01
1.6987221e-01
-8.6743159e-02
-4.0108091e-01
-5.7230433e-01
-4.9780512e-01
-2.1592160e-01
1.8844790e-01
5.9780657e-01
8.6879993e-01
9.3384220e-01
8.0380004e-01
5.2060117e-01
1.7203498e-01
-1.3147950e-01
-3.3508648e-01
-4.5958840e-01
-5.1568951e-01
-4.7612232e-01
-3.6243872e-01
-2.4097614e-01
-1.3735899e-01
-3.3418127e-02
7.2709614e-02
1.4816823e-01
1.5724061e-01
1.1517655e-01
8.1044195e-02
8.3036610e-02
9.4648340e-02
5.0243476e-02
-7.2451464e-02
-1.9629889e-01
-2.3087079e-01
-1.4758671e-01
4.1390977e-02
2.3775301e-01
3.0685657e-01
2.2168642e-01
3.6647301e-02
-1.4017679e-01
-2.0918348e-01
-1.5523676e-01
-2.9519603e-02
8.3269957e-02
7.9690178e-02
-3.9576212e-02
-1.3889189e-01
-1.5453256e-01
-1.1487801e-01
-7.0999575e-02
-6.5386638e-02
-7.2180457e-02
-2.3235472e-02
1.2036144e-01
3.1869595e-01
4.6160526e-01
4.3948729e-01
2.3776010e-01
-4.2396196e-02
-2.6921840e-01
-3.6468783e-01
-3.2726632e-01
-1.8612182e-01
3.6041273e-02
2.7716323e-01
4.1078446e-01
3.5445433e-01
1.5750787e-01
-8.9978667e-02
-3.0036154e-01
-3.9504231e-01
-3.6842362e-01
-2.7114052e-01
-1.6250845e-01
-8.6716777e-02
-5.2804567e-02
-3.0752279e-02
-1.1762400e-02
-2.0926620e-02
-3.5317844e-02
7.6214057e-03
1.1422887e-01
2.1924583e-01
2.8501297e-01
3.3088883e-01
3.6077406e-01
3.5012304e-01
2.6784729e-01
1.1799998e-01
-4.8155642e-02
-1.9124621e-01
-2.7213843e-01
-2.5863129e-01
-1.8664231e-01
-1.2536447e-01
-1.0224643e-01
-1.1144256e-01
-1.4445440e-01
-1.7631040e-01
-1.8596905e-01
-1.5009207e-01
-5.4256805e-02
5.2143577e-02
1.1967339e-01
1.7072127e-01
1.9492130e-01
1.3611751e-01
2.8492982e-02
-5.0307996e-02
-5.7654216e-02
2.2918341e-02
1.5561223e-01
2.3996800e-01
2.1681820e-01
1.4800092e-01
8.3138258e-02
-1.2869504e-02
-1.4159373e-01
-2.7176571e-01
-3.9561959e-01
-4.5973690e-01
-3.9952555e-01
-2.6448603e-01
-1.4937699e-01
-2.7744521e-02
1.3604101e-01
2.7607752e-01
3.8049815e-01
4.8164863e-01
5.5809813e-01
5.6144852e-01
4.3975256e-01
2.0378698e-01
-3.5850425e-02
-1.6836040e-01
-2.2099728e-01
-2.8954437e-01
-3.5746809e-01
-3.7218078e-01
-3.3025693e-01
-2.4262200e-01
-1.4643210e-01
-6.0526121e-02
2.7450578e-02
7.7705186e-02
5.6225154e-02
5.6961235e-03
-3.6356177e-02
-3.5946343e-02
5.6965532e-02
2.2234637e-01
3.3687261e-01
3.1477956e-01
2.2240110e-01
1.5674455e-01
7.5056914e-02
-9.5110355e-02
-2.8770101e-01
-4.1581022e-01
-4.6582880e-01
-4.5757455e-01
-4.1745238e-01
-3.4501654e-01
-2.1265577e-01
-2.6265457e-02
1.5930059e-01
3.3368193e-01
5.1208220e-01
6.4651890e-01
6.9150260e-01
6.1692555e-01
3.9997275e-01
1.1605778e-01
-1.0357178e-01
-2.1410450e-01
-2.7058883e-01
-3.1239823e-01
-3.1449601e-01
-2.7217389e-01
-2.1484308e-01
-1.3911772e-01
-3.1977171e-02
9.1474493e-02
2.2673669e-01
3.4769144e-01
3.5890700e-01
2.1251971e-01
-1.4424280e-02
-2.0551335e-01
-3.1262688e-01
-3.6302939e-01
-3.7819542e-01
-3.6544715e-01
-3.4008735e-01
-3.1846505e-01
-2.9675606e-01
-2.2968636e-01
-8.5158325e-02
1.3893630e-01
4.1110657e-01
6.5237429e-01
7.6671977e-01
6.8253036e-01
4.3215608e-01
1.7787243e-01
2.9710578e-02
-4.8568722e-02
-9.1114338e-02
-1.3275531e-01
-2.2267309e-01
-3.3466669e-01
-3.9518103e-01
-3.6888001e-01
-2.8068185e-01
-2.0092045e-01
-1.7750623e-01
-1.8067445e-01
-1.7669989e-01
-1.2224823e-01
1.2814668e-02
1.9950859e-01
3.9901213e-01
5.4980051e-01
5.8149001e-01
4.7835410e-01
3.0488860e-01
1.3511584e-01
1.5966898e-03
-8.9460050e-02
-1.6740938e-01
-2.6122215e-01
-3.5070197e-01
-3.9644058e-01
-3.5539151e-01
-1.9828594e-01
-1.5697251e-02
6.0982591e-02
4.3164083e-02
1.1901600e-02
3.0152311e-02
1.2182362e-01
2.2566759e-01
2.5224271e-01
1.9952888e-01
1.6692735e-01
1.7577054e-01
1.2957158e-01
-1.3249388e-02
-2.0561297e-01
-3.5788083e-01
-4.0591268e-01
-3.4866459e-01
-2.1748150e-01
-7.9466018e-02
4.7485148e-03
2.7315605e-02
7.1921409e-04
-2.3288315e-02
2.9903531e-02
1.4112077e-01
2.3507615e-01
2.7263923e-01
2.2055312e-01
8.4803877e-02
-4.2728651e-02
-1.3018755e-01
-2.3827378e-01
-3.3679095e-01
-3.3630094e-01
-2.0565335e-01
4.4251081e-02
3.4488187e-01
5.5763555e-01
5.5572277e-01
3.7010983e-01
1.4361917e-01
-4.9233464e-02
-1.6618204e-01
-1.4477524e-01
2.5851962e-02
2.1872518e-01
2.4555006e-01
7.9344784e-02
-1.4662245e-01
-3.1001223e-01
-3.7645267e-01
-3.7274218e-01
-3.2718187e-01
-2.5375304e-01
-1.6848082e-01
-7.1942267e-02
4.9751744e-02
1.7493837e-01
2.2144194e-01
1.6218565e-01
7.3760451e-02
1.3197971e-02
1.7002659e-02
1.1757320e-01
2.8032515e-01
3.8703259e-01
3.3490108e-01
1.4091375e-01
-9.0496352e-02
-2.4382652e-01
-2.9818232e-01
-3.1421087e-01
-3.0396959e-01
-2.4194881e-01
-1.3618999e-01
-4.5428602e-02
-1.6701946e-02
-1.5292993e-02
3.0215040e-02
1.5862806e-01
2.8091279e-01
2.8468028e-01
2.4073937e-01
2.1945464e-01
1.9718209e-01
1.6118241e-01
6.3443872e-02
-1.1073194e-01
-3.0929394e-01
-4.8992372e-01
-6.1658738e-01
-6.5253853e-01
-5.8434638e-01
-4.3851040e-01
-2.5323850e-01
-3.3280085e-02
2.3668927e-01
5.2314620e-01
7.4736706e-01
8.8061989e-01
9.2462811e-01
8.3437516e-01
5.8430213e-01
2.2752365e-01
-1.1926961e-01
-3.6250869e-01
-5.0937711e-01
-6.1189594e-01
-6.8232700e-01
-6.8783307e-01
-6.1100220e-01
-4.7620513e-01
-3.1032450e-01
-1.1351270e-01
1.1823738e-01
3.4904315e-01
4.6979698e-01
4.2231039e-01
3.2036309e-01
3.1884050e-01
4.2146199e-01
4.8732294e-01
4.1816067e-01
2.2724765e-01
-8.7212279e-04
-1.7983321e-01
-2.8591889e-01
-3.2213709e-01
-2.9353499e-01
-2.1346626e-01
-1.4354300e-01
-1.3805450e-01
-1.4328250e-01
-1.3482542e-01
-1.4377482e-01
-1.5651448e-01
-1.5033945e-01
-1.0079223e-01
-2.0706465e-03
1.5499680e-01
3.4269499e-01
4.4335686e-01
3.9862814e-01
2.3110768e-01
-9.9175936e-03
-2.2479004e-01
-3.3828756e-01
-3.4825426e-01
-2.9000503e-01
-2.1945971e-01
-1.9050181e-01
-2.0340791e-01
-2.0530763e-01
-1.4420901e-01
7.7268068e-04
2.0297557e-01
3.8301938e-01
4.4174308e-01
3.3113805e-01
1.1705717e-01
-6.6758361e-02
-1.3886984e-01
-8.9758737e-02
4.7593405e-02
1.9536210e-01
2.7860427e-01
2.9152556e-01
2.7025898e-01
2.1539383e-01
1.2319362e-01
1.7222550e-02
-9.8145562e-02
-2.0408940e-01
-2.4810143e-01
-1.8947152e-01
-5.8371743e-02
3.3908217e-02
2.4844972e-02
-3.8387248e-02
-7.7283328e-02
-7.7763898e-02
-9.3093838e-02
-1.2726254e-01
-1.3438264e-01
-1.1330388e-01
-1.1773943e-01
-1.8069560e-01
-2.7026026e-01
-3.2139328e-01
-3.0030767e-01
-2.1495079e-01
-5.2267843e-02
2.0652923e-01
5.2220356e-01
7.6669650e-01
7.9775400e-01
5.9982222e-01
2.8790750e-01
-4.5903063e-03
-1.8820421e-01
-2.7421603e-01
-3.5023167e-01
-4.3245560e-01
-4.6781064e-01
-4.2687605e-01
-3.1565496e-01
-1.7829573e-01
-7.2979448e-02
1.7181033e-02
1.7218588e-01
3.4937989e-01
4.2345983e-01
4.0234527e-01
3.6343885e-01
3.5976949e-01
3.5323079e-01
2.2114565e-01
-2.1591114e-02
-2.2772804e-01
-3.1754173e-01
-3.2266135e-01
-3.0931318e-01
-2.9360168e-01
-2.5572159e-01
-2.2082826e-01
-2.2254832e-01
-2.4127960e-01
-2.4370027e-01
-2.0566708e-01
-1.1800155e-01
2.1865648e-02
2.2264852e-01
4.7507979e-01
7.2102342e-01
8.6157274e-01
8.1526776e-01
5.6243415e-01
1.9976551e-01
-1.1694871e-01
-3.1907179e-01
-4.4013968e-01
-5.3025002e-01
-6.0370494e-01
-6.5405379e-01
-6.4608336e-01
-5.4780865e-01
-3.7536229e-01
-1.6285127e-01
8.2071600e-02
3.7561902e-01
6.3737094e-01
7.2116136e-01
5.9986085e-01
3.5572639e-01
1.0763798e-01
-5.4285473e-02
-1.1333576e-01
-1.0896436e-01
-1.0621301e-01
-1.5791514e-01
-2.5515569e-01
-3.1766550e-01
-2.9830292e-01
-2.1099137e-01
-8.8008255e-02
4.5892123e-02
1.6813715e-01
2.4101453e-01
2.4091410e-01
1.5364096e-01
3.4352032e-02
1.8423953e-03
9.0601809e-02
2.4499633e-01
3.6456280e-01
3.3519042e-01
1.3569611e-01
-1.3597538e-01
-3.5672049e-01
-4.6177109e-01
-4.8468887e-01
-4.9748533e-01
-5.1221283e-01
-4.8591560e-01
-3.7971388e-01
-1.8792739e-01
6.4632780e-02
3.3547284e-01
5.9149139e-01
8.0261827e-01
9.2437520e-01
9.1888801e-01
7.6121549e-01
4.6501951e-01
1.1807940e-01
-1.7797085e-01
-3.7576122e-01
-4.6750904e-01
-4.7094764e-01
-4.6162842e-01
-5.0672672e-01
-5.7285921e-01
-5.9314342e-01
-5.3248233e-01
-3.9079766e-01
-1.8602220e-01
6.2144443e-02
3.3033438e-01
5.7693851e-01
7.2176867e-01
7.1349296e-01
5.8377594e-01
3.8920045e-01
1.7897137e-01
1.0530224e-03
-1.3136062e-01
-2.3472943e-01
-3.0623212e-01
-3.3273374e-01
-3.5754600e-01
-4.0494060e-01
-4.0602781e-01
-3.2561959e-01
-1.7856387e-01
1.8746221e-02
2.2469352e-01
3.6405339e-01
3.8619384e-01
3.2578525e-01
2.6317539e-01
2.0302306e-01
7.7181939e-02
-1.2163311e-01
-3.3250497e-01
-4.5614131e-01
-4.0034775e-01
-1.7218918e-01
1.0857429e-01
3.0932001e-01
3.3493188e-01
1.8144995e-01
-3.2127745e-02
-1.9200946e-01
-2.4451782e-01
-1.8830762e-01
-8.3614498e-02
2.9795089e-03
5.1926751e-02
5.4057560e-02
1.8298175e-02
1.9084037e-02
1.1605482e-01
2.8837273e-01
4.8181173e-01
6.1504184e-01
5.7606361e-01
3.4030019e-01
2.5616013e-02
-2.3126926e-01
-3.6393424e-01
-3.9241134e-01
-3.7941184e-01
-3.3944802e-01
-2.5982023e-01
-1.5649932e-01
-7.0378399e-02
-3.5522669e-02
-3.9980826e-02
-3.4034739e-02
1.8756656e-02
1.0223673e-01
1.7887303e-01
2.1470925e-01
1.6567203e-01
9.3877666e-03
-2.0275236e-01
-3.6908815e-01
-4.1506186e-01
-3.1127668e-01
-1.0040327e-01
9.3010978e-02
1.9147790e-01
2.1539453e-01
1.7443086e-01
7.3735780e-02
-2.2199657e-02
-5.6401780e-02
-6.5108457e-02
-1.3964858e-01
-2.5564348e-01
-2.6462066e-01
-8.3600214e-02
2.6702632e-01
6.6966625e-01
9.2034786e-01
8.8223353e-01
5.7848177e-01
1.5231399e-01
-2.3979131e-01
-5.1981178e-01
-6.9343889e-01
-7.8803010e-01
-7.8803121e-01
-6.6731470e-01
-4.5693164e-01
-2.2272785e-01
-3.9937752e-03
1.9324329e-01
3.7638664e-01
5.1780445e-01
5.7945272e-01
5.6825381e-01
4.8567901e-01
3.2586124e-01
1.3863834e-01
-3.3892219e-03
-8.2293101e-02
-9.5943503e-02
-3.9371693e-02
6.6760851e-02
1.4292736e-01
7.7207676e-02
-1.1716605e-01
-3.1444560e-01
-4.2419112e-01
-4.2527498e-01
-3.5190947e-01
-2.5329549e-01
-1.4868507e-01
-4.5176859e-02
4.0358233e-02
9.8664646e-02
1.1873746e-01
8.2768638e-02
-4.5031173e-03
-1.2320451e-01
-2.0678220e-01
-1.6560133e-01
1.1966734e-02
3.0210566e-01
6.1602926e-01
7.6630047e-01
6.4440742e-01
2.8450688e-01
-1.5829912e-01
-4.9811960e-01
-6.5136365e-01
-6.0464620e-01
-3.7717206e-01
-3.5638459e-02
3.1453880e-01
5.7532787e-01
6.7329840e-01
5.7408300e-01
3.1999466e-01
1.0597377e-02
-2.4767867e-01
-3.9649449e-01
-4.4324574e-01
-4.3830525e-01
-4.0450670e-01
-3.1519586e-01
-1.6954726e-01
-3.8564526e-02
-2.6269491e-02
-1.5252100e-01
-3.0593098e-01
-3.4203438e-01
-2.0777935e-01
4.2071176e-02
3.4638001e-01
6.6112009e-01
8.8603513e-01
8.9683548e-01
6.5419189e-01
2.6453579e-01
-9.1367067e-02
-3.0277351e-01
-3.6614822e-01
-3.4233669e-01
-3.2493286e-01
-3.6954661e-01
-4.3551329e-01
-4.5797195e-01
-4.0639168e-01
-2.6088628e-01
-2.2732391e-02
2.6504042e-01
5.1346523e-01
6.1325440e-01
5.4449308e-01
4.0236498e-01
2.4350791e-01
5.1654521e-02
-1.5651451e-01
-3.2975040e-01
-4.2384911e-01
-4.2183158e-01
-3.4178699e-01
-2.3267165e-01
-1.2782725e-01
-1.1998656e-02
1.2316458e-01
2.7909955e-01
4.1889333e-01
4.2514768e-01
2.4994826e-01
1.9840516e-03
-1.9893525e-01
-3.2892358e-01
-4.1062404e-01
-4.5703164e-01
-4.5192694e-01
-3.4936835e-01
-1.1945715e-01
2.0580285e-01
5.3797032e-01
7.6639749e-01
7.9610915e-01
5.9133472e-01
2.4619997e-01
-7.4689970e-02
-3.0346352e-01
-4.5507469e-01
-5.3648543e-01
-5.3786792e-01
-4.5069621e-01
-2.6477057e-01
-2.1796773e-03
2.4750614e-01
4.2473930e-01
5.4213848e-01
5.7079678e-01
4.5307066e-01
2.3329631e-01
-5.1958126e-03
-2.2940778e-01
-3.8529503e-01
-4.0612561e-01
-3.2197387e-01
-2.0867278e-01
-7.0665269e-02
9.3472874e-02
2.2171524e-01
2.2112557e-01
7.0618893e-02
-1.1776591e-01
-2.3472171e-01
-2.6691642e-01
-2.4600709e-01
-1.9250994e-01
-9.3074116e-02
6.0393001e-02
2.4274319e-01
3.9028415e-01
4.4280708e-01
4.0028750e-01
2.9411378e-01
1.7484087e-01
6.6359447e-02
-4.6641199e-02
-1.5121423e-01
-2.3800883e-01
-3.0825998e-01
-3.5551895e-01
-3.8445903e-01
-3.7999334e-01
-3.1701892e-01
-2.1491844e-01
-1.2751355e-01
-5.7193872e-02
5.6583754e-02
2.3645888e-01
4.2107901e-01
4.8376804e-01
3.6697519e-01
1.8481005e-01
5.0825901e-02
-4.3719978e-02
-1.3625567e-01
-2.0590391e-01
-2.0202476e-01
-1.2567242e-01
-5.2373689e-02
-1.0735636e-01
-3.1403434e-01
-5.1813015e-01
-5.6209095e-01
-3.7821917e-01
-1.1186830e-02
