-7.2962712e-02
-1.0761222e-01
-1.3804059e-01
-1.5946531e-01
-1.6541364e-01
-1.5029960e-01
-1.0884471e-01
-3.0407011e-02
9.6953945e-02
2.8078238e-01
5.1547611e-01
7.5216648e-01
8.8906793e-01
8.2824513e-01
5.4778885e-01
1.3008357e-01
-2.7611491e-01
-5.4814209e-01
-6.5207912e-01
-6.2295912e-01
-5.1758435e-01
-3.8572951e-01
-2.6288420e-01
-1.6867983e-01
-9.8117891e-02
-2.6252598e-02
7.7376732e-02
2.3089593e-01
4.1738393e-01
5.7352153e-01
6.1566643e-01
5.0498948e-01
2.7820430e-01
1.4724351e-02
-2.1155090e-01
-3.6261832e-01
-4.3648306e-01
-4.4933845e-01
-4.2121340e-01
-3.6796182e-01
-2.9747705e-01
-2.0791508e-01
-9.2004419e-02
5.4933630e-02
2.2272577e-01
3.7131067e-01
4.5754675e-01
4.6578636e-01
3.9961932e-01
2.7355510e-01
1.0240845e-01
-8.8601153e-02
-2.5089227e-01
-3.4009988e-01
-3.3610073e-01
-2.3813348e-01
-5.7869592e-02
1.5946381e-01
3.0336705e-01
2.5981808e-01
4.3890195e-02
-2.0359573e-01
-3.6360746e-01
-4.0232096e-01
-3.2692497e-01
-1.4290204e-01
1.4020624e-01
4.5053727e-01
6.5923369e-01
6.7799664e-01
5.1325117e-01
2.3658049e-01
-6.5151704e-02
-3.2013803e-01
-4.8810710e-01
-5.6082445e-01
-5.5126804e-01
-4.8418667e-01
-3.7716341e-01
-2.3617052e-01
-7.1267973e-02
1.0653601e-01
2.9137171e-01
4.6969052e-01
6.0873288e-01
6.5879274e-01
5.8572281e-01
4.0141981e-01
1.5643670e-01
-8.5005098e-02
-2.7714880e-01
-4.0572089e-01
-4.7010284e-01
-4.7403756e-01
-4.2877518e-01
-3.4914870e-01
-2.5221040e-01
-1.5500038e-01
-7.2271551e-02
-1.2142477e-02
3.9934194e-02
1.2336759e-01
2.6844063e-01
4.5159447e-01
5.8395823e-01
5.6512837e-01
3.7691416e-01
1.0413890e-01
-1.4049091e-01
-2.8846391e-01
-3.3239726e-01
-3.0923888e-01
-2.7840974e-01
-2.8624762e-01
-3.3143384e-01
-3.7023142e-01
-3.5634627e-01
-2.6355073e-01
-7.8076891e-02
1.9766062e-01
5.2420699e-01
8.0969646e-01
9.3199559e-01
8.1102423e-01
4.7434612e-01
5.1675035e-02
-3.0426402e-01
-5.1052231e-01
-5.7038725e-01
-5.2485495e-01
-4.2209994e-01
-3.0478504e-01
-1.9527049e-01
-9.8016739e-02
-1.2987798e-02
6.7000457e-02
1.5317135e-01
2.4188569e-01
2.9897670e-01
2.7254394e-01
1.5200620e-01
-7.1249792e-03
-1.2917346e-01
-1.6511037e-01
-1.0791568e-01
1.6536679e-02
1.5906727e-01
2.5544436e-01
2.5997445e-01
1.7107665e-01
2.6841871e-02
-1.1700998e-01
-2.2098512e-01
-2.7035881e-01
-2.6943614e-01
-2.3394918e-01
-1.7519427e-01
-1.0301940e-01
-3.7923542e-02
-1.1265703e-03
6.7980544e-03
1.0350690e-02
4.4509110e-02
1.2728991e-01
2.4003960e-01
3.2700982e-01
3.1442620e-01
1.6169146e-01
-8.2642479e-02
-3.0284472e-01
-4.1308287e-01
-4.0107261e-01
-2.9613708e-01
-1.3841452e-01
3.1303968e-02
1.8115452e-01
3.0235796e-01
3.9833221e-01
4.6658981e-01
5.0596239e-01
4.9140423e-01
3.6284986e-01
1.1232333e-01
-1.7729033e-01
-4.0890118e-01
-5.3458558e-01
-5.4978944e-01
-4.7454997e-01
-3.5687278e-01
-2.5319515e-01
-1.8903995e-01
-1.4702403e-01
-8.7958878e-02
1.6094636e-02
1.6920834e-01
3.5768032e-01
5.4130283e-01
6.4326430e-01
5.8976908e-01
3.7690434e-01
8.2451737e-02
-1.8502339e-01
-3.5054108e-01
-4.0555392e-01
-3.8747682e-01
-3.4046594e-01
-2.9366154e-01
-2.5126421e-01
-1.9666872e-01
-1.1180508e-01
1.3543756e-02
1.8675518e-01
3.9690343e-01
5.8712572e-01
6.6443013e-01
5.5269420e-01
2.6831117e-01
-7.3073582e-02
-3.4687315e-01
-4.9153627e-01
-5.1467566e-01
-4.5373857e-01
-3.4819582e-01
-2.4394195e-01
-1.7662700e-01
-1.4372214e-01
-1.0633029e-01
-2.0495444e-02
1.2523183e-01
2.9261545e-01
4.0517159e-01
3.9349115e-01
2.7178123e-01
1.3475793e-01
6.4635012e-02
1.0045189e-01
2.3726237e-01
4.0392693e-01
4.8018511e-01
3.7334054e-01
1.0927310e-01
-1.8824871e-01
-4.1253600e-01
-5.2728451e-01
-5.4756885e-01
-5.1294099e-01
-4.5949561e-01
-4.0720837e-01
-3.6255455e-01
-3.1695179e-01
-2.5506993e-01
-1.5799390e-01
-8.1061678e-03
1.9239037e-01
4.2146858e-01
6.4958846e-01
8.4009760e-01
9.3726635e-01
8.7426393e-01
6.2014240e-01
2.3032160e-01
-1.7098106e-01
-4.7549334e-01
-6.4163741e-01
-6.8660841e-01
-6.5581788e-01
-5.8404835e-01
-4.8341652e-01
-3.5487345e-01
-1.9923543e-01
-3.4642360e-02
1.0147347e-01
1.8930785e-01
2.4828039e-01
3.1507099e-01
4.2454692e-01
5.7705222e-01
7.0093162e-01
6.7594282e-01
4.2619989e-01
1.9172958e-02
-3.7748234e-01
-6.4464530e-01
-7.5729849e-01
-7.4272770e-01
-6.4985182e-01
-5.2284325e-01
-3.8035093e-01
-2.1532684e-01
2.0644616e-05
2.9726620e-01
6.6568154e-01
1.0149662e+00
1.1909974e+00
1.0701729e+00
6.7264305e-01
1.6321939e-01
-2.7359262e-01
-5.4813122e-01
-6.6585784e-01
-6.7298049e-01
-6.1741378e-01
-5.2612065e-01
-4.1437436e-01
-2.9655883e-01
-1.7864409e-01
-6.3429657e-02
4.2093765e-02
1.2964523e-01
1.9534207e-01
2.4973414e-01
3.1205815e-01
3.8663895e-01
4.5114529e-01
4.5333599e-01
3.3386159e-01
8.9923885e-02
-1.9781190e-01
-4.2398998e-01
-5.3016026e-01
-5.1958991e-01
-4.1640078e-01
-2.2759812e-01
3.0552119e-02
2.8550661e-01
4.3263223e-01
4.2867359e-01
3.3214861e-01
2.4009515e-01
2.1538962e-01
2.5024135e-01
2.6862523e-01
1.9033462e-01
8.1276172e-03
-2.1048973e-01
-3.8738293e-01
-4.8475379e-01
-5.0663031e-01
-4.7317445e-01
-4.0954166e-01
-3.4348042e-01
-2.8788416e-01
-2.3335716e-01
-1.5693218e-01
-3.4676157e-02
1.4562948e-01
3.7853629e-01
6.2591856e-01
8.1009369e-01
8.4866706e-01
7.0966372e-01
4.3207285e-01
9.6815693e-02
-2.1475169e-01
-4.4998946e-01
-5.9006894e-01
-6.3753891e-01
-6.0401916e-01
-4.9992050e-01
-3.2502085e-01
-8.6416026e-02
1.8369259e-01
4.3791700e-01
6.0858385e-01
6.2282611e-01
4.5977432e-01
1.9115685e-01
-7.2001451e-02
-2.5607755e-01
-3.3320121e-01
-3.2532308e-01
-2.8367640e-01
-2.4223375e-01
-2.0809622e-01
-1.6955965e-01
-1.0086891e-01
2.6998252e-02
2.1710103e-01
3.9896067e-01
4.4183875e-01
2.8577368e-01
1.6809033e-02
-2.2839634e-01
-3.6371992e-01
-3.7022898e-01
-2.6710087e-01
-8.0605101e-02
1.5073989e-01
3.6102667e-01
4.6707814e-01
4.1278055e-01
2.1300953e-01
-4.6273626e-02
-2.6133222e-01
-3.7597636e-01
-3.8786491e-01
-3.1625350e-01
-1.8834794e-01
-4.9301747e-02
3.6722730e-02
3.4211705e-02
-2.4646391e-02
-7.4149657e-02
-6.1393286e-02
3.6592443e-02
2.1670166e-01
4.4676727e-01
6.4183254e-01
6.9780787e-01
5.6960123e-01
2.9960847e-01
-1.1852833e-02
-2.6918851e-01
-4.2946785e-01
-5.0028300e-01
-5.1018797e-01
-4.8490767e-01
-4.3614455e-01
-3.6958153e-01
-3.0422885e-01
-2.5799803e-01
-2.2474524e-01
-1.8272413e-01
-1.0057382e-01
5.4811842e-02
3.0225375e-01
6.2367785e-01
9.2475860e-01
1.0607561e+00
9.4293023e-01
6.0551423e-01
1.7506890e-01
-2.0960076e-01
-4.6618971e-01
-5.9070884e-01
-6.2204326e-01
-6.0268435e-01
-5.6252271e-01
-5.1047143e-01
-4.4267306e-01
-3.5422764e-01
-2.4050039e-01
-1.0244511e-01
4.6810852e-02
1.9078847e-01
3.2044881e-01
4.4269544e-01
5.6858588e-01
6.8191004e-01
7.3350402e-01
6.6193592e-01
4.4325465e-01
1.3354539e-01
-1.6509157e-01
-3.7644473e-01
-4.7919281e-01
-4.8913144e-01
-4.2502308e-01
-3.0252954e-01
-1.7047220e-01
-1.0257500e-01
-1.3114242e-01
-2.1975774e-01
-3.0305120e-01
-3.3965769e-01
-3.2235654e-01
-2.4846507e-01
-1.0155718e-01
1.3571400e-01
4.5861139e-01
8.0807271e-01
1.0566079e+00
1.0638036e+00
7.8032867e-01
3.0479195e-01
-1.8350046e-01
-5.4426791e-01
-7.2446919e-01
-7.3400837e-01
-6.2174443e-01
-4.6586617e-01
-3.4184494e-01
-2.7495719e-01
-2.2988788e-01
-1.5468238e-01
-1.0273570e-02
2.3394829e-01
5.6364110e-01
8.6334173e-01
9.6005610e-01
7.7033091e-01
3.8225708e-01
-2.4945871e-02
-3.1744538e-01
-4.6479096e-01
-5.0295334e-01
-4.8366091e-01
-4.4806045e-01
-4.1305048e-01
-3.7650340e-01
-3.3173532e-01
-2.7303115e-01
-1.9723636e-01
-1.0342023e-01
1.4120891e-02
1.6674175e-01
3.6455627e-01
5.9626884e-01
8.0531395e-01
8.9703576e-01
7.8804560e-01
4.7698091e-01
7.0738217e-02
-2.8699458e-01
-5.1450576e-01
-6.0977454e-01
-6.1167827e-01
-5.5693950e-01
-4.5610786e-01
-3.1761631e-01
-1.7322794e-01
-6.2810693e-02
2.2228452e-03
5.0336717e-02
1.1876684e-01
2.3388304e-01
3.9795278e-01
5.5559343e-01
6.0783025e-01
4.9590553e-01
2.6513462e-01
2.5771892e-02
-1.3784970e-01
-2.0428367e-01
-2.0496045e-01
-1.9238289e-01
-1.9985872e-01
-2.3170259e-01
-2.7835065e-01
-3.2822603e-01
-3.6348881e-01
-3.6279131e-01
-3.1907073e-01
-2.3495382e-01
-1.1712866e-01
1.5567871e-02
1.4234984e-01
2.4830641e-01
3.3357523e-01
4.1545919e-01
5.0262397e-01
5.7747349e-01
5.9297000e-01
4.9772546e-01
2.7920131e-01
-1.7811052e-02
-3.0766167e-01
-5.1289676e-01
-6.0495696e-01
-5.9934434e-01
-5.2818921e-01
-4.1906713e-01
-2.8593728e-01
-1.2932316e-01
5.1154295e-02
2.4132476e-01
4.1342783e-01
5.2639193e-01
5.4540408e-01
4.7137049e-01
3.2671771e-01
1.3551538e-01
-7.1618533e-02
-2.6029995e-01
-4.0904180e-01
-5.0490141e-01
-5.3420744e-01
-4.8526518e-01
-3.4980673e-01
-1.3956827e-01
1.0605401e-01
3.4529816e-01
5.4879985e-01
6.8507807e-01
7.0842900e-01
5.7774911e-01
3.0643584e-01
-1.9440648e-02
-2.9346361e-01
-4.4832793e-01
-4.6968550e-01
-3.9009523e-01
-2.7486037e-01
-1.9123587e-01
-1.7261522e-01
-1.9775758e-01
-2.1188387e-01
-1.7046160e-01
-6.2024147e-02
9.1616800e-02
2.4125099e-01
3.2970129e-01
3.3176066e-01
2.7135106e-01
1.9622360e-01
1.4872083e-01
1.4413960e-01
1.6101300e-01
1.5918782e-01
1.1414658e-01
3.4146741e-02
-5.7895530e-02
-1.4965541e-01
-2.3424419e-01
-3.0086691e-01
-3.4545484e-01
-3.6904209e-01
-3.6629652e-01
-3.2818384e-01
-2.5308766e-01
-1.5189435e-01
-4.4434594e-02
4.0740157e-02
7.9847228e-02
8.5115241e-02
1.0058445e-01
1.7361963e-01
3.3429254e-01
5.6210582e-01
7.6004133e-01
7.8748626e-01
5.6799081e-01
1.7200219e-01
-2.3877972e-01
-5.3449603e-01
-6.7282716e-01
-6.7920277e-01
-6.0194828e-01
-4.7168186e-01
-2.9574136e-01
-8.7039530e-02
1.2040820e-01
2.9309782e-01
4.1136564e-01
4.5777235e-01
4.2161985e-01
3.1306683e-01
1.6683486e-01
3.3036373e-02
-4.9740086e-02
-7.0344441e-02
-3.9689856e-02
8.0511514e-03
2.8354111e-02
4.6493003e-04
-6.6068546e-02
-1.4468025e-01
-2.0145345e-01
-2.1263548e-01
-1.8285684e-01
-1.4269299e-01
-1.1996679e-01
-1.1387218e-01
-1.0465869e-01
-7.9972024e-02
-3.8997431e-02
1.6600199e-02
8.2919237e-02
1.5765859e-01
2.4034516e-01
3.1679986e-01
3.5240371e-01
3.1075827e-01
1.8441793e-01
2.9691623e-03
-1.8432498e-01
-3.3250367e-01
-4.1707742e-01
-4.3336681e-01
-3.9223156e-01
-3.1493014e-01
-2.1547480e-01
-8.8671699e-02
7.6923516e-02
2.8399981e-01
5.0887704e-01
6.8761761e-01
7.3894963e-01
6.1574307e-01
3.4731927e-01
2.9849922e-02
-2.3538073e-01
-3.9542050e-01
-4.5099627e-01
-4.4233106e-01
-4.2309114e-01
-4.1146597e-01
-3.9028292e-01
-3.4823083e-01
-2.7839301e-01
-1.7274684e-01
-2.5879016e-02
1.5835693e-01
3.4900163e-01
5.0992851e-01
6.2285222e-01
6.7045137e-01
6.2702064e-01
4.7544688e-01
2.3369717e-01
-3.6068902e-02
-2.5729170e-01
-3.8420125e-01
-4.1406489e-01
-3.7182533e-01
-2.9582790e-01
-2.2351204e-01
-1.7643077e-01
-1.6352352e-01
-1.9261080e-01
-2.3746340e-01
-2.4264458e-01
-1.9792971e-01
-1.2754304e-01
-4.2831669e-02
5.9232970e-02
1.9845088e-01
3.8947460e-01
6.0102714e-01
7.4348710e-01
7.1349374e-01
4.7866011e-01
1.1680746e-01
-2.3793924e-01
-4.8865060e-01
-6.1364741e-01
-6.3594947e-01
-5.8869516e-01
-5.0555127e-01
-4.1141792e-01
-3.0565898e-01
-1.5993299e-01
6.0354764e-02
3.6694910e-01
7.2244225e-01
1.0124086e+00
1.0876952e+00
8.8645878e-01
4.9122411e-01
6.3235965e-02
-2.6700835e-01
-4.5636895e-01
-5.2751888e-01
-5.2625073e-01
-4.9298667e-01
-4.4800052e-01
-3.9621631e-01
-3.3739248e-01
-2.7059855e-01
-1.9949882e-01
-1.2778641e-01
-4.9380089e-02
4.1329619e-02
1.4116526e-01
2.4621317e-01
3.5311293e-01
4.5973597e-01
5.5028733e-01
5.7624082e-01
4.8264667e-01
2.5753471e-01
-4.6383599e-02
-3.3387191e-01
-5.2649217e-01
-6.0649670e-01
-5.9625302e-01
-5.2330015e-01
-4.0530237e-01
-2.4697946e-01
-4.6578957e-02
1.9758768e-01
4.7312518e-01
7.3642058e-01
8.9591642e-01
8.4661696e-01
5.6773909e-01
1.6258083e-01
-2.1601142e-01
-4.6840397e-01
-5.8149977e-01
-5.8881982e-01
-5.2822250e-01
-4.3201065e-01
-3.2187684e-01
-2.0568557e-01
-8.3864908e-02
4.1154294e-02
1.5004671e-01
2.1184906e-01
2.1145830e-01
1.7106629e-01
1.4105397e-01
1.5398261e-01
2.0858198e-01
2.8546591e-01
3.5189202e-01
3.7389097e-01
3.2418785e-01
1.9141402e-01
-3.1326267e-03
-2.0987400e-01
-3.7571464e-01
-4.6860514e-01
-4.8521542e-01
-4.3807597e-01
-3.4095015e-01
-2.0995174e-01
-6.2343773e-02
8.8483208e-02
2.2714106e-01
3.3017127e-01
3.6858593e-01
3.2079956e-01
1.9231031e-01
2.2604226e-02
-1.3108887e-01
-2.1709926e-01
-2.1219032e-01
-1.2974711e-01
-9.8753990e-03
9.1421615e-02
1.2700141e-01
8.7873365e-02
3.9286655e-03
-7.7453595e-02
-1.1666892e-01
-1.0049659e-01
-4.3433751e-02
1.6437597e-02
3.8217853e-02
1.3187369e-02
-3.4330530e-02
-6.9981232e-02
-6.3817903e-02
-1.7132380e-03
1.0793518e-01
2.3118899e-01
2.9763186e-01
2.3608416e-01
4.9314608e-02
-1.7801997e-01
-3.4657705e-01
-4.0999226e-01
-3.7156393e-01
-2.3809719e-01
-1.5742229e-02
2.5055331e-01
4.5731347e-01
5.0056706e-01
3.6561968e-01
1.4410915e-01
-4.1225857e-02
-1.1737446e-01
-7.5298952e-02
4.2188469e-02
1.4848083e-01
1.5315573e-01
2.6920436e-02
-1.6879590e-01
-3.2969928e-01
-3.9001495e-01
-3.5011566e-01
-2.5320512e-01
-1.5731124e-01
-1.0186661e-01
-7.7727459e-02
-4.1850893e-02
3.8567858e-02
1.5644089e-01
2.6447336e-01
3.1513259e-01
3.0395799e-01
2.6596147e-01
2.3367262e-01
2.0162188e-01
1.3496584e-01
1.1129258e-02
-1.4827498e-01
-2.8800557e-01
-3.5877924e-01
-3.3490609e-01
-2.1409200e-01
-2.9361605e-02
1.4187701e-01
2.1038648e-01
1.4426895e-01
-2.8487588e-03
-1.4380536e-01
-2.1999185e-01
-2.1051747e-01
-1.2529047e-01
6.8023461e-03
1.5774667e-01
2.9999862e-01
3.9504980e-01
3.9804230e-01
2.9567986e-01
1.2028119e-01
-7.5474732e-02
-2.4108669e-01
-3.5190459e-01
-4.1146953e-01
-4.2880806e-01
-4.1169650e-01
-3.6767765e-01
-2.9271501e-01
-1.7195733e-01
1.7980297e-02
2.9242271e-01
6.0202371e-01
8.1711771e-01
8.0998454e-01
5.6856891e-01
2.1804866e-01
-8.4025362e-02
-2.5175495e-01
-2.8423316e-01
-2.3232850e-01
-1.6220720e-01
-1.2201859e-01
-1.2209949e-01
-1.4294239e-01
-1.6262815e-01
-1.6849763e-01
-1.5484116e-01
-1.3165322e-01
-1.1667131e-01
-1.1538514e-01
-1.2011329e-01
-1.1442836e-01
-8.1052996e-02
-9.6095763e-03
1.0289023e-01
2.5338349e-01
4.1947726e-01
5.3657014e-01
5.1762649e-01
3.2583837e-01
2.6194122e-02
-2.5727198e-01
-4.3187206e-01
-4.7294850e-01
-4.0460765e-01
-2.7341228e-01
-1.3434286e-01
-3.3099080e-02
2.2786068e-02
6.6657908e-02
1.4130090e-01
2.6400174e-01
4.0154689e-01
4.7265588e-01
4.0093080e-01
1.8774146e-01
-8.1444724e-02
-3.0973982e-01
-4.4408207e-01
-4.7712280e-01
-4.2759773e-01
-3.1142049e-01
-1.4219786e-01
4.1030998e-02
1.7863406e-01
2.3089579e-01
2.1518673e-01
1.9449672e-01
2.2360058e-01
3.0709954e-01
3.8184486e-01
3.5312057e-01
1.8617752e-01
-5.6684184e-02
-2.7681848e-01
-4.0752161e-01
-4.3432313e-01
-3.8616293e-01
-3.1015072e-01
-2.4342019e-01
-1.9511993e-01
-1.4468932e-01
-6.2851020e-02
7.2228879e-02
2.6732955e-01
4.8559666e-01
6.3206126e-01
6.0350327e-01
3.7815349e-01
4.6196023e-02
-2.5717185e-01
-4.3805809e-01
-4.7596708e-01
-3.8777903e-01
-2.0380633e-01
1.0578183e-02
1.6591999e-01
2.0867791e-01
1.6322378e-01
1.0295692e-01
8.7310776e-02
1.2955919e-01
1.8971255e-01
1.9181495e-01
9.1578922e-02
-7.6449540e-02
-2.3728044e-01
-3.3396306e-01
-3.5177912e-01
-3.0909435e-01
-2.2978759e-01
-1.2484889e-01
2.3134839e-03
1.3366189e-01
2.1923800e-01
1.9513856e-01
5.2826744e-02
-1.3476285e-01
-2.7625189e-01
-3.1108645e-01
-2.1548401e-01
9.6251596e-03
3.2371801e-01
6.1822373e-01
7.6354528e-01
6.9645176e-01
4.5823037e-01
1.5763204e-01
-1.0339622e-01
-2.7250573e-01
-3.4953452e-01
-3.6833040e-01
-3.6525054e-01
-3.5962841e-01
-3.5188868e-01
-3.2943580e-01
-2.8257000e-01
-2.2046441e-01
-1.6075404e-01
-1.0784153e-01
-4.9815896e-02
3.7332017e-02
1.7865507e-01
3.7474292e-01
5.7308029e-01
6.7877572e-01
6.2746667e-01
4.3945334e-01
1.9459838e-01
-2.4514501e-02
-1.7527283e-01
-2.6571007e-01
-3.2256935e-01
-3.5356603e-01
-3.4909539e-01
-3.0360820e-01
-2.2663302e-01
-1.4191888e-01
-8.0485483e-02
-6.6427728e-02
-8.7194504e-02
-8.8219342e-02
-1.7811464e-02
1.3390954e-01
3.2881901e-01
4.8221392e-01
4.9465019e-01
3.3778294e-01
9.2071811e-02
-1.3236036e-01
-2.7620384e-01
-3.3891055e-01
-3.4618230e-01
-3.1027069e-01
-2.3023822e-01
-1.1508068e-01
1.0093069e-02
1.0704043e-01
1.4639162e-01
1.2814744e-01
7.5332704e-02
2.6337214e-02
2.1650097e-02
7.6632962e-02
1.7719957e-01
2.8942773e-01
3.5810413e-01
3.2823451e-01
1.9009391e-01
-7.7641039e-03
-1.9516151e-01
-3.2066750e-01
-3.6755131e-01
-3.4600811e-01
-2.7847573e-01
-1.9894272e-01
-1.4129009e-01
-1.2077008e-01
-1.3074429e-01
-1.4651237e-01
-1.3965312e-01
-8.8366600e-02
2.0539502e-02
1.8756717e-01
3.9223207e-01
5.8359425e-01
6.9394138e-01
6.6596856e-01
4.8210530e-01
1.8851130e-01
-1.2613748e-01
-3.8036972e-01
-5.2514257e-01
-5.5493030e-01
-5.0676463e-01
-4.2655707e-01
-3.4347185e-01
-2.6584393e-01
-1.8139691e-01
-7.3876113e-02
6.2303140e-02
2.2691143e-01
4.0824123e-01
5.6450910e-01
6.3527782e-01
5.7773251e-01
3.9376704e-01
1.3339907e-01
-1.3045265e-01
-3.3541316e-01
-4.4948819e-01
-4.7002762e-01
-4.1478992e-01
-3.1167115e-01
-1.8458379e-01
-5.1964696e-02
6.7948824e-02
1.4754027e-01
1.4776341e-01
5.5805858e-02
-7.9700451e-02
-1.7921463e-01
-1.8290942e-01
-6.3022758e-02
1.7439728e-01
4.7100767e-01
6.9888774e-01
7.1247874e-01
4.7456816e-01
1.0241547e-01
-2.3621761e-01
-4.4168215e-01
-5.0939726e-01
-4.8205208e-01
-4.0230209e-01
-2.9952536e-01
-1.9208882e-01
-9.5218748e-02
-2.5238468e-02
4.7842993e-03
4.3032184e-03
1.2769152e-02
7.6038838e-02
2.1742674e-01
4.1058925e-01
5.7042398e-01
5.9515135e-01
4.4070858e-01
1.6218212e-01
-1.2707435e-01
-3.3632481e-01
-4.3182269e-01
-4.2358204e-01
-3.4186409e-01
-2.2083941e-01
-9.7349230e-02
-1.0943116e-02
1.4521529e-02
-4.1036803e-03
-2.5173640e-02
-1.8756340e-02
3.3619209e-02
1.3376438e-01
2.3469774e-01
2.5800601e-01
1.6849695e-01
1.3394170e-02
-1.2380339e-01
-1.8756336e-01
-1.6403553e-01
-8.3392372e-02
-1.9852147e-02
-3.2727885e-02
-1.0928701e-01
-1.9194158e-01
-2.2634101e-01
-1.7910406e-01
-3.5609668e-02
2.0045514e-01
4.7508206e-01
6.7485574e-01
6.9182250e-01
5.0264407e-01
1.8781891e-01
-1.2545649e-01
-3.4531255e-01
-4.4812645e-01
-4.5555267e-01
-4.0726273e-01
-3.3693299e-01
-2.5339214e-01
-1.5604953e-01
-5.6885560e-02
1.7275945e-02
3.6992130e-02
4.6753841e-04
-5.3158322e-02
-7.4265544e-02
-3.0124933e-02
9.7731899e-02
3.0146026e-01
5.1737287e-01
6.3670977e-01
5.6824344e-01
3.1524485e-01
-1.7729925e-02
-3.1445993e-01
-5.1371615e-01
-6.0707048e-01
-6.1350566e-01
-5.5197119e-01
-4.3169670e-01
-2.5040945e-01
1.0832648e-02
3.6089979e-01
7.2842952e-01
9.5433508e-01
9.0798999e-01
6.0143626e-01
1.8315920e-01
-1.7402954e-01
-3.7747959e-01
-4.2081284e-01
-3.4575696e-01
-2.2606213e-01
-1.4441362e-01
-1.4515837e-01
-2.0748959e-01
-2.7555422e-01
-3.0636954e-01
-2.8163085e-01
-2.0368665e-01
-9.2209521e-02
4.0731384e-02
2.0068277e-01
3.8419142e-01
5.4922678e-01
6.0924228e-01
4.8833039e-01
2.0272610e-01
-1.2595593e-01
-3.6138206e-01
-4.5473754e-01
-4.3359410e-01
-3.3825502e-01
-2.0205927e-01
-5.4808053e-02
7.9484349e-02
1.8587041e-01
2.4996078e-01
2.5373693e-01
1.8899075e-01
8.1157832e-02
-1.4063262e-02
-5.1517251e-02
-1.3811393e-02
8.5243297e-02
1.8667419e-01
2.1920987e-01
1.5490060e-01
2.0936953e-02
-1.2363701e-01
-2.2702574e-01
-2.7070158e-01
-2.6301591e-01
-2.2227078e-01
-1.6622856e-01
-1.0577397e-01
-4.6759072e-02
-3.6441864e-03
1.1810842e-03
-4.0073774e-02
-1.0329547e-01
-1.4292462e-01
-1.2700361e-01
-5.2509071e-02
6.6420847e-02
2.1359337e-01
3.7056865e-01
4.9900000e-01
5.4489880e-01
4.6881667e-01
2.7896779e-01
2.8523197e-02
-2.1817601e-01
-4.0524660e-01
-5.0538304e-01
-5.2376096e-01
-4.7741423e-01
-3.8493226e-01
-2.5896954e-01
-9.8040495e-02
1.0314929e-01
3.3457952e-01
5.4443207e-01
6.3342148e-01
5.3351997e-01
2.9191129e-01
4.2809849e-02
-9.8263985e-02
-9.8043340e-02
-4.0440281e-03
7.7475325e-02
5.3329638e-02
-7.6231670e-02
-2.3157628e-01
-3.3499536e-01
-3.5733472e-01
-3.0906249e-01
-2.2259909e-01
-1.3851233e-01
-8.8100349e-02
-7.8827536e-02
-9.1301057e-02
-9.2070849e-02
-5.1013059e-02
4.4559775e-02
1.8583017e-01
3.4536153e-01
4.7462121e-01
5.1254469e-01
4.1655038e-01
2.0138799e-01
-5.3481012e-02
-2.5294995e-01
-3.4009857e-01
-3.1096732e-01
-2.0120332e-01
-5.9206901e-02
6.7126422e-02
1.3755397e-01
1.3625209e-01
7.9976593e-02
8.0938887e-03
-4.4953482e-02
-6.6799629e-02
-6.7044609e-02
-6.7624707e-02
-8.0427027e-02
-1.0193588e-01
-1.2121926e-01
-1.2217301e-01
-1.0083931e-01
-7.8987439e-02
-8.3803592e-02
-1.1542085e-01
-1.4130020e-01
-1.1838359e-01
-1.5163843e-02
1.6536496e-01
3.6123560e-01
4.7078175e-01
4.3698566e-01
3.0175763e-01
1.5681849e-01
6.8971880e-02
5.2307050e-02
6.8272769e-02
4.7326726e-02
-5.6210173e-02
-2.2185294e-01
-3.8006241e-01
-4.6808789e-01
-4.6726808e-01
-3.9278950e-01
-2.6911558e-01
-1.2277531e-01
1.5669221e-02
1.1524858e-01
1.6462068e-01
1.8538523e-01
2.1333127e-01
2.6577324e-01
3.2312376e-01
3.4437845e-01
2.9659748e-01
1.8153629e-01
3.9732683e-02
-8.5925569e-02
-1.7002031e-01
-1.9908521e-01
-1.7250527e-01
-1.0258176e-01
-1.4208904e-02
6.0509066e-02
9.4007379e-02
7.1522270e-02
-6.4384424e-03
-1.1920548e-01
-2.2572456e-01
-2.8495345e-01
-2.8101907e-01
-2.2343570e-01
-1.3652072e-01
-5.3846450e-02
6.1083393e-03
5.6961814e-02
1.2013627e-01
2.0483185e-01
3.0333267e-01
3.8079513e-01
3.9497654e-01
3.3672615e-01
2.3249688e-01
1.1835600e-01
1.8164945e-02
-7.2937877e-02
-1.7276386e-01
-2.7850789e-01
-3.6764331e-01
-4.1831733e-01
-4.1582876e-01
-3.5696245e-01
-2.5244870e-01
-1.1564561e-01
4.7216868e-02
2.2564565e-01
3.7557297e-01
4.3232829e-01
3.5835046e-01
1.8311144e-01
-1.0353786e-02
-1.5880595e-01
-2.3820836e-01
-2.4472232e-01
-1.8864090e-01
-8.2298100e-02
6.3967816e-02
2.4163320e-01
4.2495176e-01
5.4016242e-01
4.9553686e-01
2.8124451e-01
-2.5028041e-03
-2.3992183e-01
-3.7454015e-01
-4.1277063e-01
-3.8935624e-01
-3.3574959e-01
-2.8777060e-01
-2.6937988e-01
-2.5931027e-01
-2.2138388e-01
-1.4086759e-01
-2.2581511e-02
1.1228164e-01
2.4205900e-01
3.6354494e-01
4.8058960e-01
5.7515556e-01
6.0068889e-01
5.0929125e-01
2.9522771e-01
2.1402409e-02
-2.1949009e-01
-3.6951597e-01
-4.2233013e-01
-4.0335819e-01
-3.4434132e-01
-2.7429846e-01
-2.2091548e-01
-1.9705430e-01
-1.9121222e-01
-1.7942789e-01
-1.4077172e-01
-6.0444324e-02
7.0063090e-02
2.3520319e-01
3.7928251e-01
4.2458055e-01
3.3369307e-01
1.5829206e-01
-1.8472672e-03
-7.3864453e-02
-4.1733825e-02
5.8891512e-02
1.5527470e-01
1.7423969e-01
1.0085120e-01
-8.2936915e-03
-8.0948535e-02
-8.2840597e-02
-2.6186061e-02
4.1753355e-02
6.5273201e-02
2.1578307e-02
-6.4100145e-02
-1.4694335e-01
-2.0014023e-01
-2.1670439e-01
-1.9846410e-01
-1.6645516e-01
-1.5096821e-01
-1.6607263e-01
-2.0824136e-01
-2.5312434e-01
-2.6374607e-01
-2.1893276e-01
-1.1282905e-01
6.3807462e-02
3.1391706e-01
5.9983248e-01
8.3064690e-01
8.8950209e-01
7.1166198e-01
3.5835727e-01
-2.7122410e-02
-3.2559781e-01
-4.8700853e-01
-5.2299093e-01
-4.7850591e-01
-3.9247212e-01
-2.8653621e-01
-1.7530301e-01
-7.0461174e-02
1.6800694e-02
8.2089072e-02
1.3813835e-01
2.0252756e-01
2.6173625e-01
2.6634485e-01
1.7556341e-01
7.8072064e-04
-1.9299246e-01
-3.3263673e-01
-3.8201522e-01
-3.4207645e-01
-2.1849376e-01
-1.4225645e-02
2.4456964e-01
4.8775647e-01
6.1465269e-01
5.6702752e-01
3.8395506e-01
1.6586694e-01
-2.0645667e-03
-9.3215459e-02
-1.2744222e-01
-1.5011745e-01
-2.1256834e-01
-3.2436763e-01
-4.3100338e-01
-4.7301979e-01
-4.4103193e-01
-3.6097069e-01
-2.6325156e-01
-1.6848302e-01
-7.8752086e-02
2.5218466e-02
1.6781197e-01
3.5157752e-01
5.4468228e-01
6.8816805e-01
7.1862563e-01
6.0850629e-01
3.9089449e-01
1.4091554e-01
-7.2152393e-02
-2.2310875e-01
-3.2174228e-01
-3.8684746e-01
-4.2728902e-01
-4.3548462e-01
-4.0377871e-01
-3.3491801e-01
-2.3798726e-01
-1.2960547e-01
-4.0951714e-02
-2.8328397e-03
-1.8489074e-02
-5.7907584e-02
-7.1857234e-02
-1.8993728e-02
1.2395820e-01
3.5407829e-01
6.0602113e-01
7.5846717e-01
7.1355196e-01
4.7382280e-01
1.4446131e-01
-1.4267415e-01
-3.0919121e-01
-3.4991651e-01
-3.0681054e-01
-2.3588440e-01
-1.7800250e-01
-1.4420758e-01
-1.2396979e-01
-1.0656753e-01
-9.1719360e-02
-8.8364103e-02
-1.2040731e-01
-1.8283006e-01
-2.2485594e-01
-2.2597763e-01
-2.0141719e-01
-1.6129103e-01
-1.0842248e-01
-3.8231832e-02
6.1000498e-02
2.0426533e-01
3.9420933e-01
5.9648630e-01
7.2872037e-01
7.0378233e-01
5.0560245e-01
2.0212229e-01
-1.0535315e-01
-3.3652275e-01
-4.6081353e-01
-4.8414690e-01
-4.2832754e-01
-3.2639364e-01
-2.1704774e-01
-1.3645500e-01
-1.0179447e-01
-9.8469575e-02
-9.5422677e-02
-6.8960326e-02
-9.4255072e-03
8.1246595e-02
1.9300107e-01
3.1002549e-01
3.9896569e-01
4.0695521e-01
2.9695191e-01
8.4980559e-02
-1.5815807e-01
-3.4846648e-01
-4.4326597e-01
-4.4749332e-01
-3.7683248e-01
-2.4288062e-01
-5.4603611e-02
1.7599064e-01
4.1133600e-01
5.9114138e-01
6.5364674e-01
5.5676356e-01
3.1013747e-01
-7.1036893e-03
-2.8008595e-01
-4.3890051e-01
-4.8254883e-01
-4.3971358e-01
-3.4545642e-01
-2.2246831e-01
-7.7178709e-02
8.1577721e-02
2.2350245e-01
2.9771594e-01
2.6247310e-01
1.2186892e-01
-6.5370574e-02
-2.2350784e-01
-2.9957890e-01
-2.7481371e-01
-1.5289696e-01
5.6552070e-02
3.2404228e-01
5.6914538e-01
6.7460325e-01
5.6707319e-01
2.8037219e-01
-6.7710747e-02
-3.5370447e-01
-5.1845245e-01
-5.6983954e-01
-5.4207223e-01
-4.7231355e-01
-3.8420002e-01
-2.7287571e-01
-1.1625190e-01
1.0693683e-01
3.9752842e-01
6.9564756e-01
8.8559581e-01
8.6798393e-01
6.2650653e-01
2.4867975e-01
-1.2703645e-01
-3.9671232e-01
-5.2897297e-01
-5.5214613e-01
-5.1943365e-01
-4.7456120e-01
-4.3223048e-01
-3.8237949e-01
-3.0784585e-01
-1.9145764e-01
-2.3320168e-02
1.7207053e-01
3.3423619e-01
4.1384886e-01
4.1460954e-01
3.8595145e-01
3.7829428e-01
4.0635237e-01
4.3094117e-01
3.7939566e-01
2.0807487e-01
-4.8606698e-02
-2.9429772e-01
-4.5045606e-01
-5.0234510e-01
-4.7167558e-01
-3.8821402e-01
-2.9173400e-01
-2.2579383e-01
-2.0640732e-01
-2.0666760e-01
-1.8184656e-01
-9.9850653e-02
6.4802831e-02
3.3164183e-01
6.5190876e-01
8.7392457e-01
8.4378798e-01
5.5028642e-01
1.4312997e-01
-2.0122608e-01
-3.9731898e-01
-4.4420013e-01
-3.8479636e-01
-2.8239166e-01
-1.9505123e-01
-1.5752316e-01
-1.7093221e-01
-2.0485834e-01
-2.2426296e-01
-2.0699192e-01
-1.3733723e-01
-6.7046826e-03
1.8309386e-01
4.0534170e-01
5.8343016e-01
6.2815366e-01
5.1167581e-01
2.8018936e-01
1.6341303e-02
-2.0518114e-01
-3.4403038e-01
-3.9643091e-01
-3.8305815e-01
-3.2889247e-01
-2.4911661e-01
-1.4731824e-01
-2.8068786e-02
8.2151048e-02
1.3150723e-01
8.4508945e-02
-3.2326754e-02
-1.4611941e-01
-1.9454227e-01
-1.5652488e-01
-3.3622634e-02
1.6861380e-01
4.2101649e-01
6.3871092e-01
6.9195828e-01
5.0126567e-01
1.3735110e-01
-2.2354343e-01
-4.4489039e-01
-4.9754457e-01
-4.2031561e-01
-2.6829126e-01
-9.5893834e-02
4.0455811e-02
8.8206252e-02
2.7395503e-02
-1.1092580e-01
-2.5697161e-01
-3.4342478e-01
-3.4571717e-01
-2.6639652e-01
-1.0726753e-01
1.3183564e-01
4.2884231e-01
7.0236621e-01
8.3823829e-01
7.6872212e-01
5.2181114e-01
2.0086932e-01
-8.5417650e-02
-2.7850283e-01
-3.7904219e-01
-4.1535182e-01
-4.1053419e-01
-3.7615256e-01
-3.1815418e-01
-2.4351125e-01
-1.6537217e-01
-1.0016408e-01
-5.2840919e-02
-1.3295532e-02
3.3782730e-02
1.0387155e-01
2.0533505e-01
3.1643251e-01
3.7000380e-01
2.9977906e-01
1.1358994e-01
-1.0939805e-01
-2.8748038e-01
-3.7933397e-01
-3.8157961e-01
-3.1343990e-01
-1.9932054e-01
-4.9516793e-02
1.3818459e-01
3.5711927e-01
5.6106239e-01
6.4817128e-01
5.3569550e-01
2.5525701e-01
-6.7527433e-02
-3.1297987e-01
-4.3572814e-01
-4.5475513e-01
-4.1001711e-01
-3.3009358e-01
-2.2265835e-01
-8.0895603e-02
1.0075305e-01
2.9920285e-01
4.5109891e-01
4.8209674e-01
3.6862964e-01
1.7049729e-01
-1.4769437e-02
-1.2263817e-01
-1.4539036e-01
-1.2128030e-01
-1.0787915e-01
-1.4169678e-01
-2.1927480e-01
-3.0819056e-01
-3.7285550e-01
-3.9660996e-01
-3.7928593e-01
-3.1860847e-01
-2.0663133e-01
-4.1969301e-02
1.6140603e-01
3.7549258e-01
5.7041676e-01
7.2014664e-01
7.9733217e-01
7.6963359e-01
6.0988784e-01
3.3028180e-01
2.2030269e-03
-2.8328656e-01
-4.6963161e-01
-5.5001486e-01
-5.5180639e-01
-5.0904221e-01
-4.4483957e-01
-3.7052295e-01
-2.8599879e-01
-1.8195432e-01
-4.8553984e-02
1.1240481e-01
2.7327607e-01
3.7989822e-01
3.8432892e-01
2.8307658e-01
1.1922455e-01
-4.5649891e-02
-1.6072972e-01
-1.9434624e-01
-1.3584821e-01
-1.3692896e-02
9.3560291e-02
1.0341867e-01
3.0508652e-03
-1.3961349e-01
-2.3576195e-01
-2.2953116e-01
-9.7153247e-02
1.5682006e-01
4.6124272e-01
6.5620970e-01
5.9083795e-01
2.7727263e-01
-1.1052217e-01
-3.9337246e-01
-5.0276590e-01
-4.6170406e-01
-3.1246510e-01
-8.9891074e-02
1.5469300e-01
3.3020974e-01
3.4594484e-01
1.9016499e-01
-4.7989741e-02
-2.4734833e-01
-3.3605883e-01
-3.0153325e-01
-1.6668833e-01
1.2606552e-02
1.4728380e-01
1.6663480e-01
8.8609063e-02
2.5712573e-04
-2.0466968e-02
6.1067809e-02
2.2456948e-01
3.7767919e-01
3.9962082e-01
2.4047852e-01
-2.5057878e-02
-2.6482104e-01
-4.0028808e-01
-4.2317709e-01
-3.6069425e-01
-2.5136635e-01
-1.2382952e-01
2.8733962e-03
1.1650597e-01
2.0408395e-01
2.3389661e-01
1.6946687e-01
1.4181637e-02
-1.6711327e-01
-2.9194504e-01
-3.1441441e-01
-2.2492707e-01
-2.0416531e-02
2.9491207e-01
6.5052923e-01
8.8575975e-01
8.4563091e-01
5.1710823e-01
5.3725549e-02
-3.4601346e-01
-5.7136237e-01
-6.2293711e-01
-5.5606023e-01
-4.3007918e-01
-2.8505453e-01
-1.4217261e-01
-1.1795461e-02
9.6582879e-02
1.6443732e-01
1.7977139e-01
1.5373142e-01
1.1750213e-01
9.9362060e-02
8.7826752e-02
2.9811619e-02
-7.7455546e-02
-1.5746158e-01
-1.7035655e-01
-1.3559291e-01
-7.8104428e-02
-2.1656694e-02
2.2918217e-02
6.4514455e-02
1.1397439e-01
1.7443005e-01
2.3869728e-01
2.7490292e-01
2.3623502e-01
1.0523162e-01
-8.2617459e-02
-2.6184505e-01
-3.7888143e-01
-4.1660006e-01
-3.8681949e-01
-3.0110249e-01
-1.5816047e-01
4.5821910e-02
2.9352145e-01
5.0848376e-01
5.7675020e-01
4.4292067e-01
1.6828131e-01
-1.1778850e-01
-3.1029287e-01
-3.6754052e-01
-2.8759437e-01
-8.5223139e-02
1.8345054e-01
4.0018451e-01
4.4810288e-01
3.1535197e-01
1.0604225e-01
-5.9928598e-02
-1.2897312e-01
-1.1484225e-01
-7.1846244e-02
-6.4617791e-02
-1.2942898e-01
-2.4858041e-01
-3.6866939e-01
-4.4353576e-01
-4.5315821e-01
-4.0425024e-01
-3.2107745e-01
-2.2169150e-01
-1.0413367e-01
4.8020243e-02
2.5324717e-01
5.2135613e-01
8.2166238e-01
1.0380859e+00
1.0169472e+00
7.1171152e-01
2.4734353e-01
-1.8455030e-01
-4.6523275e-01
-5.8063218e-01
-5.7060462e-01
-4.8755895e-01
-3.8276930e-01
-2.9729819e-01
-2.5634328e-01
-2.5974233e-01
-2.7953169e-01
-2.7841929e-01
-2.2701335e-01
-1.1188160e-01
6.3312516e-02
2.8645320e-01
5.2415956e-01
6.9590694e-01
7.0870211e-01
5.3634923e-01
2.5294462e-01
-1.7860340e-02
-1.8197881e-01
-2.1090584e-01
-1.3534004e-01
-2.8293682e-02
2.2281929e-02
-3.1333198e-02
-1.5937282e-01
-2.8418340e-01
-3.4058269e-01
-3.0700709e-01
-1.9924656e-01
-5.6799065e-02
6.5334005e-02
1.0961448e-01
5.2384329e-02
-6.6020071e-02
-1.7013302e-01
-2.0532833e-01
-1.5915785e-01
-4.3736407e-02
1.1840874e-01
2.9196391e-01
4.3030345e-01
4.9064539e-01
4.5544995e-01
3.4218674e-01
1.9890421e-01
6.9837686e-02
-3.0563588e-02
-1.0803467e-01
-1.8481408e-01
-2.7782951e-01
-3.7090747e-01
-4.2897151e-01
-4.2458452e-01
-3.5097029e-01
-2.1907539e-01
-5.7322975e-02
7.8357507e-02
1.3255879e-01
9.8163602e-02
1.8315191e-02
-4.7981616e-02
-5.4197048e-02
2.2841483e-02
1.7939116e-01
3.7571062e-01
5.3315051e-01
5.6956603e-01
4.5038465e-01
2.0600881e-01
-8.5347822e-02
-3.3075092e-01
-4.6860766e-01
-4.9058498e-01
-4.1807524e-01
-2.7971861e-01
-9.7955002e-02
1.0537396e-01
2.7486933e-01
3.3842301e-01
2.7209359e-01
1.1776676e-01
-5.4931833e-02
-1.9277681e-01
-2.6856082e-01
-2.7040802e-01
-1.9932917e-01
-6.5044114e-02
1.1366075e-01
2.9296768e-01
4.0163521e-01
3.7707695e-01
2.2079649e-01
1.7277016e-02
-1.3509371e-01
-2.0162434e-01
-1.9314158e-01
-1.2723675e-01
-4.4250672e-02
-8.9296043e-03
-5.4490854e-02
-1.4340575e-01
-2.0874426e-01
-2.1283768e-01
-1.4781136e-01
-2.0803284e-02
1.3224301e-01
2.4015327e-01
2.4373658e-01
1.6118940e-01
6.7083740e-02
1.6721240e-02
2.6040014e-02
7.0176950e-02
8.3350131e-02
1.9169481e-02
-1.0446960e-01
-2.3336344e-01
-3.0813088e-01
-2.9758250e-01
-2.1384345e-01
-7.7178088e-02
1.0630979e-01
3.2324180e-01
5.1363671e-01
5.8122631e-01
4.5358105e-01
1.4929114e-01
-2.0583160e-01
-4.7486512e-01
-6.0111891e-01
-5.9933302e-01
-5.1064548e-01
-3.6896075e-01
-1.7727069e-01
8.6695763e-02
4.2469083e-01
7.6277065e-01
9.4982644e-01
8.7386470e-01
5.7444142e-01
1.9955049e-01
-1.1496340e-01
-3.0935314e-01
-3.8650757e-01
-3.8613830e-01
-3.6429918e-01
-3.6039086e-01
-3.7761261e-01
-3.9613079e-01
-3.9713629e-01
-3.7346271e-01
-3.2370149e-01
-2.4159908e-01
-1.1322487e-01
7.8393216e-02
3.3380647e-01
6.0252355e-01
7.7726203e-01
7.6763120e-01
5.8185218e-01
3.1779404e-01
8.5864819e-02
-5.6620891e-02
-1.1012156e-01
-1.1849614e-01
-1.4549893e-01
-2.2209917e-01
-3.2740639e-01
-4.2068180e-01
-4.7014659e-01
-4.6462363e-01
-4.1434735e-01
-3.3397290e-01
-2.2946933e-01
-9.6069539e-02
8.6932086e-02
3.3533665e-01
6.1371336e-01
8.2796268e-01
8.7443555e-01
7.1101765e-01
3.9156777e-01
2.5819015e-02
-2.8024202e-01
-4.6848893e-01
-5.4302991e-01
-5.3708372e-01
-4.7968514e-01
-3.8813584e-01
-2.6997931e-01
-1.3116622e-01
1.5009163e-02
1.5093206e-01
2.6025338e-01
3.2811280e-01
3.4147313e-01
2.9921626e-01
2.2069840e-01
1.3526082e-01
6.5763058e-02
1.5261429e-02
-3.7762454e-02
-1.2019071e-01
-2.3097436e-01
-3.3631565e-01
-3.9851319e-01
-3.9888169e-01
-3.3786002e-01
-2.2189582e-01
-5.3834114e-02
1.5456314e-01
3.7329893e-01
5.5968113e-01
6.5507863e-01
6.0903306e-01
4.2864059e-01
1.7836258e-01
-6.7442469e-02
-2.5867798e-01
-3.7242830e-01
-4.0763491e-01
-3.8636183e-01
-3.4579454e-01
-3.1307128e-01
-2.9075853e-01
-2.6640514e-01
-2.1952946e-01
-1.2050529e-01
5.5843314e-02
3.0326453e-01
5.4949907e-01
6.6367762e-01
5.6742495e-01
3.2382645e-01
7.1439624e-02
-9.0335523e-02
-1.3949931e-01
-1.1645557e-01
-8.8600803e-02
-9.9533357e-02
-1.5156815e-01
-2.1588840e-01
-2.5270590e-01
-2.4313114e-01
-1.9015929e-01
-1.0692365e-01
-8.4843311e-03
1.0385824e-01
2.2233232e-01
3.0242988e-01
2.9250963e-01
1.8692271e-01
3.9968673e-02
-7.1223672e-02
-1.0233731e-01
-7.0816979e-02
-3.6014894e-02
-4.6755098e-02
-1.0793468e-01
-1.8468933e-01
-2.3550535e-01
-2.4258115e-01
-2.0947268e-01
-1.4930784e-01
-7.8602556e-02
-6.9493128e-03
6.7561855e-02
1.5336856e-01
2.5398442e-01
3.5169721e-01
4.1336895e-01
4.1808121e-01
3.7024456e-01
2.7951126e-01
1.4834004e-01
-1.0601287e-02
-1.7294288e-01
-3.1412646e-01
-4.1215009e-01
-4.5486882e-01
-4.4714558e-01
-4.0269562e-01
-3.3049803e-01
-2.2462331e-01
-8.3042858e-02
5.5035089e-02
1.3867075e-01
1.6942843e-01
2.0425204e-01
3.0049363e-01
4.6390672e-01
6.2664865e-01
6.6533117e-01
4.9948091e-01
1.8181826e-01
-1.5184296e-01
-3.9701676e-01
-5.1790246e-01
-5.4025333e-01
-5.1215331e-01
-4.4452470e-01
-3.2984036e-01
-1.6622434e-01
4.2560731e-02
2.5186400e-01
3.6552462e-01
3.1639482e-01
1.4869168e-01
-2.1027647e-02
-9.6617409e-02
-4.3514842e-02
1.1174172e-01
2.8204285e-01
3.4338357e-01
2.2121438e-01
-3.5746907e-02
-2.9824045e-01
-4.5939864e-01
-4.8427835e-01
-3.8918354e-01
-2.0214963e-01
5.2236245e-02
3.3054087e-01
5.4998932e-01
6.3072507e-01
5.4895282e-01
3.4593708e-01
1.0985016e-01
-7.6954536e-02
-1.8727807e-01
-2.3819630e-01
-2.5743782e-01
-2.6650513e-01
-2.7046530e-01
-2.6560730e-01
-2.5299304e-01
-2.3549832e-01
-2.1691321e-01
-1.9952562e-01
-1.7566455e-01
-1.3699409e-01
-8.0797989e-02
5.1668596e-04
1.2154364e-01
2.9446211e-01
5.0642854e-01
6.9914832e-01
7.8068017e-01
6.7526171e-01
3.8438121e-01
5.9814204e-03
-3.2834898e-01
-5.3794121e-01
-6.1191700e-01
-5.8374296e-01
-5.0272817e-01
-4.0755076e-01
-3.1203973e-01
-2.0695173e-01
-6.8428888e-02
1.2192927e-01
3.5528475e-01
5.7343652e-01
6.7116644e-01
5.8486973e-01
3.6581060e-01
1.3034487e-01
-2.8714919e-02
-9.4898438e-02
-1.2074926e-01
-1.6762587e-01
-2.5378537e-01
-3.4693906e-01
-3.9958900e-01
-3.8956825e-01
-3.2504754e-01
-2.2378809e-01
-1.0059564e-01
3.4395883e-02
1.7045940e-01
2.7688836e-01
3.0922941e-01
2.4887541e-01
1.2865641e-01
1.8937843e-02
-2.1321480e-02
2.6652970e-02
1.4745950e-01
2.8239141e-01
3.3136750e-01
2.2745875e-01
6.4962821e-03
-2.2652889e-01
-3.8189420e-01
-4.3427098e-01
-4.0839793e-01
-3.3826043e-01
-2.4209667e-01
-1.1983862e-01
3.9683132e-02
2.4274951e-01
4.4976785e-01
5.6763224e-01
5.1214860e-01
2.8221456e-01
-2.4375735e-02
-2.8309620e-01
-4.2801775e-01
-4.5926938e-01
-3.9831072e-01
-2.6395675e-01
-6.7383815e-02
1.7329191e-01
3.9404901e-01
4.9611315e-01
4.2190629e-01
2.0330569e-01
-6.0551040e-02
-2.6172379e-01
-3.3732574e-01
-2.7504195e-01
-8.8421547e-02
1.7815496e-01
4.2219550e-01
5.0894214e-01
3.7152956e-01
7.5867906e-02
-2.2807626e-01
-4.2057811e-01
-4.7394812e-01
-4.1629458e-01
-2.9742115e-01
-1.8582297e-01
-1.3135958e-01
-1.3135459e-01
-1.4908226e-01
-1.4738951e-01
-9.4396577e-02
4.1534065e-02
2.7970001e-01
5.9572147e-01
8.6821062e-01
9.1844870e-01
6.6689112e-01
2.0784891e-01
-2.6615815e-01
-5.9532273e-01
-7.3116055e-01
-7.1089331e-01
-5.9205082e-01
-4.1948950e-01
-2.1498188e-01
9.6727681e-03
2.2222972e-01
3.7490137e-01
4.3849422e-01
4.2637069e-01
3.7704735e-01
3.1725809e-01
2.5223657e-01
1.6680407e-01
4.4675842e-02
-1.0232159e-01
-2.3878205e-01
-3.3319932e-01
-3.7236304e-01
-3.5898806e-01
-3.0162385e-01
-2.0573096e-01
-8.0734851e-02
5.7605052e-02
1.8819258e-01
2.7808579e-01
2.9765770e-01
2.4006068e-01
1.2038616e-01
-2.7657984e-02
-1.6816787e-01
-2.7053142e-01
-3.1070138e-01
-2.9396262e-01
-2.4407687e-01
-1.8128314e-01
-1.2020831e-01
-5.5911951e-02
3.5715574e-02
1.7764358e-01
3.6900999e-01
5.6118086e-01
6.7110523e-01
6.3658638e-01
4.5706115e-01
1.9135452e-01
-8.2155816e-02
-3.0603786e-01
-4.5165768e-01
-5.1655595e-01
-5.1576010e-01
-4.6488464e-01
-3.7712639e-01
-2.6367396e-01
-1.2769906e-01
3.1983683e-02
2.0772927e-01
3.7322196e-01
4.8342739e-01
5.0239864e-01
4.2713220e-01
2.7751087e-01
8.5867866e-02
-1.1097542e-01
-2.7621419e-01
-3.8044946e-01
-4.1576581e-01
-3.9162004e-01
-3.2549598e-01
-2.3857258e-01
-1.4426168e-01
-4.1868688e-02
7.4100624e-02
2.0964705e-01
3.6623786e-01
5.1296683e-01
5.7198960e-01
4.6677614e-01
1.9596337e-01
-1.4249979e-01
-4.1343511e-01
-5.4148560e-01
-5.3159363e-01
-4.2633341e-01
-2.7135266e-01
-9.5996234e-02
8.9181138e-02
2.7759039e-01
4.4625430e-01
5.5373310e-01
5.5624014e-01
4.4340616e-01
2.5797321e-01
5.5882025e-02
-1.2536354e-01
-2.6715261e-01
-3.6148201e-01
-4.0263328e-01
-3.9511959e-01
-3.4989127e-01
-2.7428552e-01
-1.8016068e-01
-9.1583162e-02
-3.0781068e-02
3.4025228e-03
3.5146924e-02
9.7046547e-02
2.0813972e-01
3.5082437e-01
4.6588614e-01
4.7613883e-01
3.4814398e-01
1.3597092e-01
-6.3059938e-02
-1.8939008e-01
-2.4012916e-01
-2.4351721e-01
-2.3880015e-01
-2.4759329e-01
-2.6089010e-01
-2.5982221e-01
-2.3329890e-01
-1.7754918e-01
-9.4168225e-02
1.5650625e-02
1.4658339e-01
2.7031768e-01
3.4999415e-01
3.6341145e-01
3.0590671e-01
1.9722191e-01
7.7283755e-02
-1.6651534e-02
-6.4367137e-02
-5.9001840e-02
-4.9902112e-03
7.5435075e-02
1.4321051e-01
1.5090080e-01
7.2009516e-02
-6.6748729e-02
-2.0611787e-01
-3.0132170e-01
-3.4116397e-01
-3.3356677e-01
-2.9078145e-01
-2.3441723e-01
-1.9341994e-01
-1.8135165e-01
-1.7863305e-01
-1.4411883e-01
-4.3903863e-02
1.3652047e-01
3.9357132e-01
6.8105064e-01
8.9160767e-01
9.0217894e-01
6.6438150e-01
2.6120216e-01
-1.4831452e-01
-4.4306227e-01
-5.8771304e-01
-6.1130087e-01
-5.7069759e-01
-5.1124973e-01
-4.5187790e-01
-3.9240573e-01
-3.1831503e-01
-2.1483693e-01
-7.3657023e-02
1.1459291e-01
3.5031587e-01
6.0433301e-01
8.1412000e-01
8.9861325e-01
7.9534385e-01
5.1373407e-01
1.4211398e-01
-2.1200190e-01
-4.6935984e-01
-5.9134111e-01
-5.8795366e-01
-5.0433459e-01
-3.8932844e-01
-2.7584256e-01
-1.7103169e-01
-5.9330645e-02
7.9348123e-02
2.4598370e-01
3.9815262e-01
4.5726583e-01
3.7845606e-01
2.0400336e-01
1.8908158e-02
-1.1590365e-01
-1.8429088e-01
-2.0382019e-01
-2.0119567e-01
-1.9294737e-01
-1.8308925e-01
-1.6619985e-01
-1.3180029e-01
-7.6991352e-02
-9.6393051e-03
5.9465005e-02
1.1466195e-01
1.3795975e-01
1.2564719e-01
8.9788424e-02
5.1555374e-02
3.8591819e-02
7.1778870e-02
1.4257275e-01
2.0107742e-01
1.8350593e-01
6.8346580e-02
-9.1266789e-02
-2.0398312e-01
-2.1015639e-01
-1.0320409e-01
7.8749884e-02
2.4616735e-01
2.8454755e-01
1.4377465e-01
-1.0620919e-01
-3.3980406e-01
-4.7334399e-01
-4.9367655e-01
-4.2504317e-01
-2.8293219e-01
-7.0739052e-02
1.8461170e-01
4.1497108e-01
5.3237879e-01
4.8478876e-01
3.0298778e-01
8.3241413e-02
-6.9692567e-02
-1.0067452e-01
-2.4057898e-02
8.9281426e-02
1.3340796e-01
4.3268989e-02
-1.3896717e-01
-3.1012405e-01
-3.9953654e-01
-3.8976744e-01
-2.8183599e-01
-7.4545749e-02
2.2543765e-01
5.4959686e-01
7.4771734e-01
6.8632036e-01
3.7740605e-01
-2.4961778e-02
-3.5463215e-01
-5.3351906e-01
-5.7372354e-01
-5.2662964e-01
-4.4295177e-01
-3.5104607e-01
-2.4838608e-01
-1.1310345e-01
7.3463124e-02
3.0422422e-01
5.2980221e-01
6.6137427e-01
6.2966388e-01
4.5076683e-01
2.1705029e-01
2.4593258e-02
-8.3230072e-02
-1.2027026e-01
-1.3820144e-01
-1.7617340e-01
-2.3190045e-01
-2.8532382e-01
-3.1538785e-01
-3.0929443e-01
-2.6379046e-01
-1.7994905e-01
-8.0573365e-02
-1.3049177e-02
-3.4006773e-03
-2.8295087e-02
-4.6633496e-02
-2.6064120e-02
6.1910972e-02
2.4177860e-01
4.9017108e-01
6.7882032e-01
6.4796185e-01
3.7108556e-01
-1.3160010e-02
-3.3367895e-01
-5.0495532e-01
-5.3303922e-01
-4.7240621e-01
-3.7577689e-01
-2.6953849e-01
-1.5355459e-01
-8.4072428e-03
1.7611739e-01
3.7764196e-01
5.3472575e-01
5.7614508e-01
4.6978103e-01
2.4512073e-01
-2.2188854e-02
-2.5666565e-01
-4.1037913e-01
-4.6611529e-01
-4.3499564e-01
-3.3960419e-01
-1.9427455e-01
-6.6138046e-04
2.3241597e-01
4.5065394e-01
5.4042496e-01
4.1896531e-01
1.4043635e-01
-1.5311090e-01
-3.5417364e-01
-4.3704408e-01
-4.2633668e-01
-3.5411438e-01
-2.4385767e-01
-1.0700235e-01
6.1891581e-02
2.6730755e-01
4.6720496e-01
5.7864884e-01
5.4274544e-01
3.6778340e-01
1.1639299e-01
-1.3404027e-01
-3.2500163e-01
-4.3314703e-01
-4.5756541e-01
-4.0703614e-01
-2.9060061e-01
-1.0114481e-01
1.5638752e-01
4.1380284e-01
5.5148216e-01
4.8471226e-01
2.3765145e-01
-7.7125251e-02
-3.3656507e-01
-4.7054034e-01
-4.7441006e-01
-3.7516461e-01
-1.9166351e-01
7.3974251e-02
3.8487520e-01
6.2023119e-01
6.4309093e-01
4.3998354e-01
1.3696133e-01
-1.2434769e-01
-2.7008861e-01
-2.9667416e-01
-2.4934049e-01
-1.9185633e-01
-1.7427905e-01
-2.0589691e-01
-2.5425675e-01
-2.8093802e-01
-2.6626288e-01
-2.0135929e-01
-8.3011995e-02
8.5126768e-02
2.8803139e-01
4.9053953e-01
6.2677815e-01
6.1847683e-01
4.3923493e-01
1.5242945e-01
-1.3191569e-01
-3.2698270e-01
-4.0311340e-01
-3.8160929e-01
-2.9683089e-01
-1.7427777e-01
-4.0744113e-02
7.0030908e-02
1.2636960e-01
1.2251248e-01
8.6172878e-02
5.0935399e-02
2.6287260e-02
