-87
-73
-60
-50
-44
-38
-33
-30
-27
-23
-20
-17
-15
-13
-10
-9
-7
-5
-5
-4
-3
-2
1
3
6
10
13
18
25
31
37
45
52
58
65
70
73
76
80
82
83
85
85
85
85
85
83
85
86
87
86
87
87
85
82
78
73
70
63
56
48
41
33
27
22
16
11
6
2
1
-2
-4
-4
-7
-7
-9
-10
-13
-14
-15
-17
-19
-22
-23
-24
-25
-27
-25
-24
-22
-18
-15
-12
-8
-3
0
3
8
11
10
7
2
-2
-8
-12
-15
-18
-20
-23
-24
-28
-30
-34
-37
-38
-39
-40
-40
-42
-42
-43
-42
-40
-35
-27
-10
11
38
65
87
97
92
71
38
-3
-47
-87
-117
-138
-147
-149
-143
-130
-115
-98
-82
-68
-57
-48
-43
-39
-35
-33
-30
-28
-27
-24
-23
-20
-19
-17
-15
-13
-10
-8
-5
-3
1
3
5
8
13
18
25
31
40
46
53
58
63
66
70
72
73
75
76
76
77
77
77
76
76
76
76
75
72
68
63
58
52
45
36
28
21
13
7
1
-4
-9
-14
-18
-20
-23
-24
-25
-27
-28
-28
-28
-29
-30
-32
-33
-34
-34
-34
-34
-34
-34
-35
-34
-33
-32
-29
-27
-23
-18
-14
-9
-4
0
3
6
10
12
15
15
12
8
5
1
-4
-7
-9
-12
-14
-18
-22
-25
-29
-33
-37
-38
-42
-43
-43
-43
-43
-44
-44
-43
-39
-28
-9
18
51
83
107
118
116
97
66
31
-5
-37
-64
-83
-94
-99
-99
-94
-85
-77
-67
-58
-50
-47
-42
-39
-35
-33
-30
-28
-25
-23
-22
-20
-19
-18
-18
-17
-15
-14
-14
-13
-12
-9
-5
-2
1
6
12
18
25
33
40
45
50
53
57
58
61
63
66
66
68
71
72
73
75
75
73
71
67
63
60
56
52
48
45
37
31
23
15
7
1
-3
-4
-4
-4
-3
-4
-4
-7
-10
-14
-18
-23
-27
-30
-33
-35
-35
-35
-37
-37
-37
-37
-38
-37
-37
-35
-35
-35
-34
-32
-23
-7
16
47
81
108
123
122
105
72
31
-9
-47
-77
-98
-112
-119
-120
-115
-107
-95
-84
-74
-65
-58
-53
-50
-47
-44
-42
-39
-38
-34
-30
-28
-25
-22
-19
-15
-12
-8
-4
2
7
13
21
28
37
46
53
63
70
76
80
83
87
90
90
91
91
90
90
90
90
87
85
82
80
75
71
66
58
51
43
36
28
21
13
7
3
-2
-5
-8
-9
-12
-14
-15
-15
-17
-18
-18
-18
-19
-20
-20
-20
-22
-22
-24
-25
-27
-27
-29
-29
-30
-30
-32
-32
-32
-32
-32
-30
-29
-29
-28
-28
-27
-25
-24
-24
-23
-23
-23
-22
-20
-20
-20
-19
-17
-15
-14
-14
-13
-13
-13
-14
-14
-13
-10
-9
-7
-4
-2
1
3
7
11
15
20
25
27
26
22
17
11
5
0
-2
-5
-8
-10
-14
-17
-20
-23
-25
-27
-29
-29
-29
-29
-29
-29
-28
-27
-25
-23
-15
-2
20
47
76
100
111
107
87
52
12
-30
-68
-95
-114
-125
-129
-127
-118
-108
-94
-80
-67
-55
-47
-42
-37
-32
-29
-25
-23
-20
-18
-15
-14
-12
-9
-8
-7
-5
-4
-2
1
3
6
10
13
18
23
30
36
43
50
57
63
68
73
77
81
83
85
86
86
85
85
85
86
85
86
87
88
87
87
86
85
82
78
73
67
61
55
47
41
33
27
20
15
8
6
2
-2
-2
-4
-5
-7
-9
-10
-12
-14
-15
-18
-19
-20
-22
-24
-25
-27
-27
-25
-23
-19
-15
-13
-8
-4
-2
1
5
8
10
8
6
1
-4
-9
-13
-17
-19
-20
-23
-25
-28
-30
-34
-35
-38
-39
-40
-40
-42
-42
-43
-42
-39
-32
-19
1
26
53
77
92
92
77
48
8
-33
-74
-108
-133
-147
-150
-147
-138
-123
-107
-90
-77
-64
-55
-49
-44
-42
-38
-35
-32
-29
-25
-23
-20
-19
-18
-15
-13
-10
-7
-5
-3
0
2
7
10
13
17
25
31
37
46
52
57
62
66
68
70
72
73
73
75
75
75
73
73
73
73
72
72
70
66
62
57
51
45
37
30
21
13
8
2
-4
-9
-13
-17
-20
-22
-24
-25
-27
-28
-29
-29
-30
-30
-32
-32
-32
-33
-33
-33
-34
-34
-34
-34
-34
-33
-32
-29
-27
-22
-18
-13
-8
-3
1
5
8
11
13
15
15
12
8
2
-3
-7
-9
-12
-13
-15
-19
-23
-27
-32
-34
-37
-39
-40
-42
-43
-43
-43
-44
-43
-39
-32
-14
10
41
75
101
116
116
101
72
38
2
-32
-59
-80
-94
-102
-103
-98
-90
-80
-70
-62
-54
-48
-43
-39
-35
-33
-32
-29
-28
-25
-24
-22
-20
-19
-18
-17
-15
-14
-13
-10
-9
-7
-4
-2
3
7
13
21
27
35
41
47
52
56
60
62
63
65
67
68
70
71
72
73
72
72
72
70
68
63
61
57
52
48
45
38
33
26
17
8
2
-2
-4
-4
-4
-3
-3
-4
-4
-8
-10
-15
-19
-23
-27
-30
-32
-33
-34
-34
-35
-35
-37
-37
-37
-37
-35
-35
-35
-34
-33
-27
-14
7
37
71
98
117
121
107
78
38
-3
-42
-74
-98
-113
-122
-123
-118
-110
-99
-87
-75
-65
-57
-52
-47
-44
-42
-39
-38
-35
-32
-29
-27
-24
-22
-18
-14
-10
-5
-2
3
8
13
21
28
36
43
52
60
68
75
80
83
86
88
90
90
91
91
90
90
88
87
85
82
80
75
70
65
58
51
43
36
27
21
15
8
3
0
-4
-8
-12
-13
-14
-17
-18
-18
-18
-19
-20
-20
-22
-23
-23
-23
-24
-24
-25
-27
-28
-29
-29
-30
-30
-32
-32
-32
-32
-32
-32
-32
-30
-30
-29
-28
-27
-27
-25
-25
-24
-24
-23
-22
-20
-19
-19
-18
-18
-17
-17
-15
-15
-14
-14
-15
-14
-13
-13
-10
-7
-3
0
2
6
11
16
20
23
26
25
21
16
10
5
1
-2
-4
-7
-10
-14
-18
-20
-23
-25
-27
-28
-28
-28
-28
-28
-28
-28
-27
-27
-24
-17
-3
17
45
72
96
108
106
86
52
10
-30
-69
-98
-118
-128
-130
-128
-120
-109
-95
-82
-68
-55
-47
-39
-34
-32
-28
-24
-23
-19
-18
-14
-12
-9
-7
-4
-4
-3
0
1
3
6
8
11
15
18
23
30
36
43
51
57
63
68
73
78
81
83
85
86
86
85
85
85
86
85
86
87
88
87
88
87
86
82
80
75
68
61
53
46
40
33
26
20
13
8
5
2
-2
-3
-4
-5
-8
-9
-12
-13
-14
-15
-17
-19
-20
-22
-24
-24
-27
-25
-25
-23
-20
-15
-12
-8
-4
-2
3
7
10
10
7
3
-2
-8
-12
-17
-19
-20
-22
-24
-27
-29
-32
-34
-37
-38
-39
-39
-40
-40
-40
-42
-40
-38
-33
-20
-2
22
47
72
86
87
72
43
6
-35
-75
-109
-132
-145
-149
-144
-135
-122
-107
-90
-75
-63
-53
-45
-40
-38
-35
-32
-30
-28
-27
-24
-20
-18
-17
-14
-12
-9
-7
-4
-2
1
3
7
10
13
17
25
30
37
45
50
55
61
63
66
67
68
68
68
70
71
71
72
73
73
73
72
70
68
66
63
57
52
47
40
32
25
17
10
5
0
-5
-8
-13
-15
-18
-20
-23
-25
-27
-27
-28
-28
-28
-29
-30
-30
-32
-32
-33
-33
-33
-34
-33
-33
-32
-30
-28
-24
-20
-15
-10
-5
-2
3
6
8
12
15
15
13
10
6
0
-5
-7
-9
-12
-13
-15
-18
-22
-25
-29
-34
-35
-38
-39
-40
-42
-43
-43
-43
-42
-38
-29
-10
16
47
81
108
122
121
105
76
40
2
-32
-60
-82
-95
-103
-104
-100
-93
-83
-73
-64
-55
-49
-44
-40
-38
-35
-33
-30
-28
-25
-24
-22
-22
-19
-18
-17
-15
-14
-13
-12
-10
-8
-4
0
3
8
15
21
30
37
43
48
53
57
60
62
63
65
67
68
68
70
71
71
72
71
71
68
66
63
58
53
51
46
42
37
32
22
15
6
0
-4
-5
-5
-4
-3
-3
-4
-7
-10
-12
-15
-19
-23
-27
-29
-33
-34
-35
-37
-37
-37
-38
-38
-37
-37
-37
-38
-38
-38
-35
-29
-13
11
42
73
101
117
116
98
66
27
-14
-53
-83
-105
-118
-123
-123
-117
-107
-94
-82
-69
-59
-52
-47
-43
-39
-38
-35
-33
-30
-29
-25
-23
-19
-15
-13
-9
-5
-3
1
6
12
18
25
32
41
48
56
63
70
77
81
85
87
88
90
91
91
91
91
91
88
86
85
81
77
73
67
62
56
48
42
33
26
20
12
6
1
-3
-7
-10
-13
-15
-17
-19
-20
-20
-20
-22
-20
-22
-23
-23
-23
-24
-25
-25
-27
-27
-27
-28
-28
-28
-29
-29
-29
-30
-30
-29
-28
-28
-27
-27
-27
-25
-25
-24
-23
-23
-24
-23
-22
-22
-20
-20
-19
-18
-17
-17
-15
-14
-14
-14
-14
-14
-13
-13
-12
-9
-5
-3
0
3
7
12
16
21
25
26
25
21
16
10
3
0
-3
-5
-8
-12
-14
-18
-22
-24
-27
-28
-29
-29
-29
-29
-29
-29
-28
-28
-27
-25
-18
-4
16
43
72
96
108
103
83
48
7
-34
-72
-100
-119
-128
-130
-127
-119
-107
-93
-79
-65
-54
-44
-38
-33
-28
-25
-23
-19
-18
-14
-12
-10
-9
-8
-5
-4
-4
0
1
3
6
10
12
16
21
26
31
37
43
50
57
63
68
73
77
81
82
83
85
86
86
86
86
87
86
87
87
88
87
87
86
85
81
77
72
66
60
52
46
38
32
26
20
13
10
6
2
0
0
-3
-5
-8
-9
-12
-13
-15
-17
-18
-20
-22
-24
-25
-25
-27
-25
-24
-22
-19
-15
-12
-8
-5
-2
1
6
8
8
6
3
-2
-8
-13
-15
-19
-20
-22
-24
-28
-29
-33
-35
-38
-39
-40
-42
-44
-44
-44
-44
-43
-40
-33
-20
-2
23
51
73
87
87
72
42
5
-38
-77
-109
-132
-145
-149
-144
-134
-120
-104
-89
-74
-63
-53
-47
-42
-38
-34
-33
-29
-27
-24
-22
-20
-19
-17
-14
-13
-10
-7
-5
-3
-2
1
5
8
11
16
22
28
36
43
50
55
60
63
65
66
67
68
68
70
70
71
72
72
73
73
72
71
70
67
62
57
51
45
37
30
23
16
11
5
-2
-8
-12
-15
-18
-20
-22
-23
-24
-25
-25
-25
-27
-28
-28
-28
-29
-29
-29
-29
-30
-30
-30
-29
-29
-29
-28
-25
-24
-20
-15
-12
-7
-3
1
5
8
10
12
12
11
7
3
-2
-7
-10
-13
-15
-17
-19
-22
-24
-28
-32
-34
-37
-39
-39
-39
-39
-39
-40
-40
-39
-34
-24
-3
25
57
90
115
126
121
102
70
31
-7
-42
-68
-89
-102
-108
-107
-102
-93
-83
-73
-63
-54
-48
-43
-42
-39
-37
-34
-32
-28
-25
-23
-22
-19
-18
-17
-15
-14
-12
-12
-9
-7
-4
-2
2
5
10
16
22
28
36
42
48
52
55
58
61
63
65
66
67
68
68
70
70
70
70
70
67
65
61
56
53
50
45
42
37
31
22
15
7
1
-3
-4
-4
-3
-3
-3
-3
-5
-7
-10
-14
-18
-23
-25
-28
-32
-33
-34
-34
-35
-35
-35
-35
-35
-35
-35
-35
-35
-37
-33
-23
-5
17
50
81
106
117
112
91
56
13
-25
-63
-92
-112
-123
-127
-124
-117
-107
-93
-79
-68
-58
-50
-44
-42
-39
-35
-34
-32
-30
-28
-25
-22
-19
-15
-12
-8
-5
-2
3
8
13
21
27
35
43
51
60
67
73
78
83
86
88
90
91
91
90
90
88
88
86
83
82
78
75
71
66
60
52
46
38
30
23
16
10
3
0
-4
-7
-10
-12
-13
-14
-15
-17
-18
-19
-20
-19
-20
-20
-22
-22
-23
-24
-24
-25
-25
-28
-28
-29
-29
-29
-29
-30
-30
-30
-30
-29
-29
-29
-28
-27
-27
-25
-25
-24
-23
-22
-22
-20
-20
-20
-19
-19
-18
-18
-17
-17
-17
-17
-17
-15
-15
-14
-12
-10
-8
-5
-3
0
3
7
12
17
21
25
26
25
20
15
8
2
-2
-4
-7
-9
-12
-14
-18
-20
-22
-23
-24
-24
-25
-27
-27
-27
-27
-27
-27
-25
-22
-14
0
22
50
78
100
108
100
76
40
-3
-44
-79
-105
-122
-129
-130
-125
-117
-104
-89
-75
-62
-50
-40
-35
-30
-27
-24
-22
-18
-17
-14
-12
-10
-8
-7
-5
-4
-2
0
2
5
7
10
13
17
22
27
33
41
47
55
61
68
73
77
81
83
85
86
86
86
86
86
87
86
87
87
88
88
88
88
87
85
81
77
72
65
58
51
43
37
30
23
17
12
7
5
1
-2
-3
-4
-7
-8
-10
-12
-13
-14
-15
-17
-18
-19
-22
-24
-25
-27
-25
-24
-22
-18
-14
-10
-8
-3
0
2
6
10
10
6
1
-4
-10
-15
-19
-22
-24
-25
-27
-29
-33
-35
-38
-40
-42
-43
-44
-45
-47
-47
-47
-47
-44
-37
-23
-2
23
51
73
85
83
66
36
-3
-43
-80
-110
-132
-142
-144
-139
-129
-115
-99
-84
-70
-59
-52
-45
-40
-37
-33
-30
-29
-27
-24
-22
-19
-18
-17
-14
-12
-8
-7
-4
-3
-2
1
3
6
10
16
21
28
35
42
48
53
58
61
63
65
66
67
68
68
70
71
72
73
73
72
72
72
68
66
63
58
53
47
40
32
25
17
10
5
0
-7
-10
-14
-18
-20
-22
-22
-22
-23
-24
-24
-24
-25
-25
-27
-28
-28
-28
-28
-28
-28
-29
-29
-29
-29
-29
-27
-23
-19
-14
-12
-7
-3
1
5
8
11
13
15
12
8
3
-3
-7
-9
-10
-12
-14
-15
-18
-22
-25
-29
-32
-33
-34
-35
-37
-38
-38
-38
-39
-37
-30
-18
5
33
67
100
122
130
120
96
61
21
-17
-50
-77
-95
-107
-112
-108
-102
-93
-82
-70
-60
-53
-47
-43
-40
-38
-35
-32
-29
-27
-24
-22
-20
-19
-17
-17
-14
-13
-12
-9
-8
-5
-3
0
3
7
12
18
23
30
36
41
46
51
53
56
58
61
63
66
66
68
70
70
70
70
70
68
66
63
58
55
52
47
45
41
35
28
21
12
5
-2
-4
-5
-5
-4
-3
-4
-5
-7
-10
-13
-17
-20
-24
-29
-32
-33
-34
-34
-35
-35
-35
-35
-37
-37
-35
-35
-35
-37
-35
-32
-20
-3
23
56
86
110
118
110
85
48
6
-34
-69
-97
-114
-123
-125
-122
-113
-102
-89
-75
-64
-55
-48
-42
-38
-37
-34
-32
-29
-27
-24
-22
-18
-15
-13
-10
-8
-4
0
5
10
16
23
31
38
47
55
62
70
75
81
85
87
90
91
92
92
92
91
91
88
86
85
82
78
75
70
65
58
51
45
36
28
22
15
7
2
-3
-5
-9
-10
-12
-13
-14
-15
-15
-15
-17
-18
-18
-19
-19
-19
-19
-20
-20
-22
-24
-24
-25
-25
-27
-27
-28
-28
-28
-28
-28
-28
-28
-27
-27
-25
-25
-24
-24
-23
-23
-23
-23
-22
-22
-20
-20
-20
-20
-19
-18
-18
-18
-18
-17
-18
-18
-17
-15
-14
-12
-9
-8
-4
-2
1
5
10
16
21
23
25
22
17
11
6
1
-2
-5
-8
-10
-13
-17
-19
-22
-24
-25
-27
-27
-27
-28
-28
-28
-28
-29
-29
-28
-24
-14
1
23
52
80
101
107
98
72
35
-7
-48
-83
-108
-123
-130
-129
-124
-114
-102
-89
-75
-62
-52
-42
-35
-30
-27
-24
-20
-19
-15
-13
-10
-9
-7
-5
-4
-4
-2
1
2
5
7
11
13
18
23
28
35
41
48
56
62
68
73
77
80
81
82
83
85
85
85
85
85
86
87
86
87
88
88
88
87
85
81
76
71
65
58
51
45
37
30
22
17
12
7
3
0
0
-3
-5
-8
-9
-12
-13
-14
-15
-18
-19
-20
-22
-24
-25
-27
-27
-25
-24
-22
-19
-15
-13
-9
-5
-2
0
5
6
6
3
1
-4
-10
-15
-18
-20
-23
-24
-28
-32
-34
-38
-39
-42
-43
-45
-47
-48
-48
-49
-48
-49
-45
-38
-24
-4
22
50
71
83
80
63
32
-5
-47
-83
-113
-133
-144
-145
-140
-129
-115
-100
-85
-72
-60
-53
-47
-42
-38
-34
-32
-29
-27
-23
-20
-19
-17
-14
-12
-9
-8
-7
-4
-3
0
2
5
6
10
13
21
27
33
38
45
51
55
58
61
62
63
63
65
66
67
68
68
70
70
70
68
67
65
61
57
53
50
47
42
37
32
23
15
6
0
-5
-8
-8
-8
-8
-7
-8
-10
-13
-15
-19
-23
-27
-30
-34
-37
-38
-39
-39
-40
-40
-40
-40
-40
-39
-39
-39
-39
-39
-38
-32
-19
2
31
63
93
111
116
105
82
50
15
-17
-44
-67
-80
-92
-95
-95
-90
-83
-77
-68
-60
-54
-49
-44
-43
-40
-37
-34
-32
-29
-27
-24
-23
-20
-19
-17
-14
-10
-8
-4
0
3
8
15
21
28
36
43
50
55
60
63
66
70
72
73
73
76
76
77
76
75
75
72
70
66
61
56
50
43
37
30
22
17
10
3
-2
-5
-10
-14
-18
-20
-23
-24
-24
-24
-25
-25
-25
-25
-27
-27
-27
-28
-28
-28
-28
-30
-30
-30
-32
-30
-30
-30
-29
-29
-28
-27
-27
-25
-25
-24
-23
-22
-20
-19
-18
-19
-18
-18
-17
-15
-15
-14
-14
-13
-13
-12
-10
-10
-10
-10
-12
-10
-10
-10
-9
-7
-4
-2
1
5
7
11
16
20
23
25
23
21
16
10
5
1
-2
-4
-7
-9
-12
-17
-20
-23
-25
-27
-27
-28
-29
-29
-28
-28
-28
-27
-27
-23
-14
2
26
58
92
121
136
135
115
81
37
-4
-43
-73
-94
-108
-114
-114
-109
-100
-89
-77
-64
-53
-45
-38
-33
-30
-28
-27
-23
-20
-19
-17
-14
-14
-13
-12
-10
-9
-8
-7
-4
-2
1
3
7
11
15
21
28
35
42
48
56
61
66
70
72
75
77
78
78
77
78
78
80
78
80
80
80
78
78
77
75
72
68
63
57
51
43
37
30
25
18
12
6
2
-3
-5
-8
-9
-9
-10
-12
-12
-13
-14
-15
-17
-19
-20
-24
-25
-27
-28
-28
-29
-27
-24
-20
-17
-13
-10
-8
-3
1
5
8
10
8
6
0
-7
-12
-17
-19
-20
-23
-25
-28
-29
-33
-35
-37
-39
-39
-42
-42
-42
-43
-43
-43
-40
-35
-24
-7
18
47
73
93
98
88
61
23
-22
-64
-103
-130
-147
-152
-150
-140
-125
-108
-89
-72
-57
-45
-38
-32
-27
-24
-20
-18
-14
-12
-9
-7
-5
-4
-2
0
1
2
5
6
10
13
17
21
26
31
36
43
50
57
63
71
75
78
81
82
83
85
85
85
83
85
85
85
83
83
82
81
78
75
72
67
63
58
53
48
42
36
27
17
10
5
2
2
2
2
2
1
0
0
-3
-5
-9
-12
-14
-17
-19
-22
-23
-25
-27
-27
-28
-29
-30
-30
-32
-33
-35
-37
-38
-34
-24
-8
13
38
60
72
72
58
31
-5
-45
-83
-114
-137
-148
-152
-148
-138
-125
-109
-93
-78
-67
-58
-52
-48
-44
-43
-40
-38
-35
-33
-30
-28
-24
-22
-19
-15
-12
-9
-5
0
5
8
15
21
28
36
43
50
57
62
66
68
72
73
75
76
76
76
75
75
75
73
72
70
67
65
61
57
51
45
38
30
22
16
8
2
-3
-8
-13
-17
-18
-20
-22
-23
-23
-24
-25
-25
-25
-25
-27
-27
-28
-28
-28
-28
-29
-30
-30
-32
-33
-33
-33
-33
-33
-32
-32
-30
-29
-28
-27
-25
-24
-24
-23
-22
-20
-19
-18
-18
-17
-17
-17
-15
-15
-14
-14
-13
-13
-12
-13
-13
-12
-13
-12
-12
-9
-8
-5
-3
0
2
5
8
12
16
20
21
20
17
12
7
5
1
0
-3
-4
-7
-10
-13
-17
-19
-22
-23
-24
-25
-27
-27
-27
-28
-28
-28
-28
-28
-22
-8
13
46
83
117
140
148
138
112
76
36
0
-33
-60
-79
-93
-100
-103
-99
-93
-84
-74
-67
-58
-52
-47
-44
-40
-39
-35
-33
-29
-28
-25
-24
-23
-22
-19
-18
-17
-15
-13
-12
-9
-7
-4
-2
2
7
12
18
25
31
37
45
51
55
60
62
63
67
68
71
72
72
75
73
75
76
76
76
76
73
72
70
66
62
57
51
45
38
31
25
17
11
6
2
-3
-4
-7
-8
-10
-12
-14
-14
-15
-18
-20
-22
-24
-25
-27
-28
-30
-32
-32
-32
-30
-28
-24
-20
-17
-12
-9
-5
-2
3
8
12
12
11
6
1
-5
-9
-10
-12
-13
-15
-15
-19
-22
-25
-28
-30
-32
-33
-35
-35
-35
-35
-37
-35
-32
-23
-7
18
51
86
113
130
127
108
73
31
-14
-55
-89
-113
-128
-134
-130
-122
-109
-95
-80
-67
-55
-47
-40
-35
-33
-30
-28
-24
-22
-19
-17
-14
-14
-12
-9
-8
-7
-5
-4
-2
1
3
7
11
16
21
27
33
41
48
55
60
65
68
71
73
75
76
77
76
76
77
77
77
76
76
72
71
68
65
61
57
53
48
46
41
33
26
17
8
2
-2
-3
-3
-3
-3
-3
-4
-7
-8
-9
-12
-14
-17
-20
-23
-25
-28
-29
-29
-30
-30
-30
-32
-32
-32
-33
-34
-35
-35
-34
-27
-12
10
35
60
77
82
72
47
11
-30
-73
-108
-135
-152
-158
-155
-147
-132
-115
-98
-80
-65
-55
-47
-40
-38
-34
-30
-28
-25
-22
-19
-17
-14
-10
-8
-5
-2
2
6
11
16
22
30
37
45
52
60
67
76
82
86
90
92
93
93
93
92
92
90
88
86
83
81
78
75
71
66
62
56
50
42
35
28
21
15
10
5
0
-4
-7
-10
-12
-13
-14
-14
-15
-15
-14
-15
-14
-14
-15
-15
-15
-15
-15
-18
-18
-18
-19
-19
-19
-20
-20
-22
-23
-23
-24
-24
-23
-23
-23
-23
-22
-22
-22
-20
-20
-20
-20
-19
-19
-19
-18
-18
-18
-17
-15
-15
-15
-15
-15
-14
-14
-14
-14
-13
-13
-10
-8
-4
-2
2
5
7
12
17
21
23
22
20
16
10
5
1
-3
-7
-9
-13
-15
-19
-23
-25
-28
-30
-32
-33
-33
-34
-33
-34
-35
-37
-37
-35
-30
-18
2
27
58
85
102
105
92
65
30
-7
-40
-69
-92
-104
-112
-114
-110
-104
-93
-82
-70
-60
-52
-47
-40
-37
-35
-32
-30
-28
-25
-24
-22
-20
-19
-18
-18
-17
-17
-14
-13
-12
-9
-7
-3
0
5
7
13
20
26
33
40
46
52
56
60
62
63
66
68
70
72
72
73
75
75
76
76
77
77
76
75
72
70
65
60
52
46
37
30
22
16
10
3
0
-4
-8
-10
-13
-15
-18
-20
-22
-23
-23
-24
-25
-27
-27
-29
-30
-32
-34
-34
-33
-32
-29
-25
-22
-17
-12
-7
-3
1
6
11
12
11
8
3
0
-5
-9
-10
-12
-13
-15
-18
-20
-24
-27
-29
-30
-32
-33
-34
-35
-37
-37
-38
-37
-32
-19
1
31
66
98
122
131
122
98
62
22
-15
-50
-78
-97
-108
-113
-112
-105
-97
-85
-74
-64
-55
-50
-47
-43
-40
-38
-35
-33
-32
-29
-27
-24
-22
-22
-20
-18
-17
-15
-14
-13
-10
-8
-4
-2
2
7
12
18
25
31
37
42
47
51
55
57
60
62
63
66
67
70
71
70
71
70
68
66
63
58
56
52
48
46
42
36
28
21
11
3
-2
-3
-3
-2
-2
-2
-3
-4
-5
-9
-13
-17
-20
-24
-27
-29
-30
-33
-34
-34
-34
-34
-35
-35
-35
-35
-35
-34
-34
-32
-25
-12
10
38
68
97
113
115
98
66
27
-15
-57
-88
-112
-125
-132
-132
-125
-114
-100
-85
-72
-60
-50
-45
-40
-37
-34
-33
-30
-28
-25
-22
-19
-17
-14
-10
-8
-4
0
3
8
15
21
28
36
43
51
58
65
71
78
82
85
87
88
90
90
90
90
88
87
83
82
80
77
75
71
66
60
55
48
40
33
26
18
12
6
1
-3
-4
-7
-9
-12
-13
-14
-15
-17
-18
-19
-19
-19
-19
-20
-20
-20
-22
-22
-23
-24
-25
-27
-28
-28
-28
-29
-29
-29
-29
-29
-28
-28
-27
-27
-25
-25
-25
-24
-24
-23
-23
-22
-22
-22
-20
-20
-20
-20
-20
-18
-18
-18
-18
-18
-18
-17
-15
-14
-13
-13
-10
-8
-4
-2
1
5
10
15
20
23
26
25
21
16
10
5
1
-2
-5
-8
-12
-15
-19
-23
-25
-27
-29
-29
-30
-30
-30
-29
-29
-29
-29
-29
-27
-19
-7
13
40
68
93
107
106
90
57
16
-24
-62
-93
-112
-123
-128
-125
-118
-105
-92
-77
-63
-50
-42
-34
-29
-25
-23
-19
-18
-14
-12
-10
-9
-7
-5
-5
-4
-2
0
1
2
5
7
11
13
18
23
30
36
43
50
57
63
70
75
78
81
83
85
86
87
86
87
88
90
91
90
91
91
92
91
91
88
86
82
76
71
63
57
50
43
36
28
22
16
12
7
3
2
-2
-3
-5
-5
-8
-9
-12
-13
-15
-18
-19
-22
-24
-27
-29
-30
-30
-30
-28
-25
-22
-17
-14
-10
-7
-3
0
2
5
5
1
-3
-9
-15
-19
-22
-24
-25
-28
-30
-34
-35
-39
-42
-44
-45
-47
-49
-50
-50
-50
-50
-49
-45
-35
-19
3
31
58
77
85
76
55
21
-18
-55
-90
-115
-133
-142
-142
-135
-124
-110
-95
-82
-69
-59
-52
-47
-44
-40
-38
-35
-33
-30
-28
-27
-24
-22
-20
-18
-17
-14
-13
-10
-8
-4
-2
2
6
8
15
22
30
36
45
51
56
60
63
67
70
72
73
75
75
76
77
78
78
80
78
78
77
73
71
66
61
55
48
40
32
25
18
11
6
1
-4
-8
-12
-14
-17
-18
-19
-20
-22
-22
-23
-24
-24
-25
-25
-27
-27
-28
-28
-28
-28
-29
-29
-29
-28
-28
-25
-23
-18
-14
-8
-3
1
5
8
12
15
16
16
13
10
6
1
-3
-5
-7
-9
-10
-13
-17
-20
-24
-28
-32
-34
-35
-37
-37
-38
-39
-39
-39
-35
-28
-13
11
41
75
105
123
127
113
86
48
10
-28
-60
-85
-103
-110
-113
-109
-100
-90
-79
-69
-60
-53
-47
-43
-39
-35
-33
-30
-27
-24
-22
-20
-18
-17
-14
-13
-13
-12
-10
-8
-7
-4
-3
1
6
11
17
23
30
36
42
50
53
57
60
62
65
66
68
68
70
71
72
72
72
71
71
68
65
62
58
55
50
46
43
38
32
25
17
8
2
-3
-5
-7
-5
-3
-3
-4
-5
-8
-10
-13
-18
-22
-25
-29
-32
-34
-35
-35
-37
-37
-37
-35
-35
-35
-35
-34
-34
-34
-32
-28
-14
6
35
66
93
113
117
103
76
36
-9
-48
-83
-108
-124
-132
-132
-125
-117
-103
-88
-74
-64
-54
-47
-43
-39
-37
-34
-32
-29
-28
-25
-23
-20
-18
-14
-10
-8
-3
1
6
12
20
26
33
41
48
56
63
70
75
81
85
87
88
90
90
90
90
90
88
87
86
83
82
78
75
71
65
60
52
45
37
30
23
16
8
5
0
-4
-7
-10
-10
-13
-14
-15
-15
-17
-17
-17
-18
-18
-19
-20
-22
-22
-23
-23
-24
-24
-25
-25
-27
-29
-29
-30
-29
-29
-29
-29
-28
-28
-27
-27
-25
-25
-24
-23
-23
-22
-22
-20
-19
-19
-18
-18
-18
-18
-18
-18
-18
-17
-17
-17
-15
-15
-14
-14
-12
-9
-8
-4
-3
1
3
8
13
20
23
25
25
21
15
10
3
-2
-3
-5
-8
-10
-14
-17
-20
-23
-24
-25
-27
-27
-27
-27
-27
-27
-27
-27
-25
-23
-18
-4
15
42
70
95
107
105
86
55
13
-28
-65
-97
-117
-127
-130
-128
-119
-108
-93
-78
-64
-52
-43
-35
-30
-27
-23
-20
-18
-15
-13
-10
-9
-7
-5
-4
-3
-3
0
1
3
6
10
13
17
21
26
31
38
46
52
60
66
72
77
81
83
85
86
87
87
87
87
87
87
88
88
88
88
90
90
88
87
83
80
75
71
65
57
50
41
35
27
20
13
8
5
1
-2
-3
-5
-8
-10
-13
-14
-17
-19
-22
-24
-25
-28
-32
-34
-35
-37
-37
-35
-33
-30
-25
-22
-17
-13
-9
-5
-3
2
3
2
-2
-5
-12
-17
-22
-23
-25
-27
-28
-30
-34
-38
-39
-43
-45
-48
-49
-49
-50
-50
-50
-50
-50
-45
-35
-20
3
30
57
76
83
76
53
22
-17
-54
-87
-114
-129
-138
-139
-133
-123
-108
-93
-82
-70
-60
-54
-49
-44
-42
-39
-35
-33
-30
-28
-24
-22
-20
-18
-15
-14
-13
-12
-10
-8
-5
-2
2
6
8
15
20
27
35
42
48
53
58
61
63
66
67
68
67
68
70
71
72
72
72
72
71
70
67
62
58
56
52
47
42
37
30
21
11
2
-2
-5
-7
-7
-4
-5
-7
-9
-12
-15
-19
-23
-27
-29
-33
-35
-37
-38
-38
-39
-38
-38
-37
-37
-35
-35
-34
-34
-34
-33
-30
-22
-3
22
53
86
112
126
123
105
76
40
5
-27
-53
-74
-89
-98
-102
-99
-94
-85
-77
-69
-60
-54
-52
-48
-45
-42
-39
-35
-33
-30
-28
-25
-23
-20
-18
-15
-12
-8
-4
0
3
8
15
21
27
35
42
50
56
61
66
70
72
75
77
78
80
81
82
82
82
82
81
78
76
72
67
61
53
46
38
30
21
15
7
1
-3
-8
-12
-17
-19
-22
-23
-24
-25
-27
-25
-27
-27
-27
-27
-27
-27
-27
-28
-28
-29
-30
-32
-33
-34
-34
-34
-34
-34
-33
-33
-32
-30
-29
-28
-27
-25
-24
-23
-22
-20
-19
-19
-18
-17
-15
-15
-14
-13
-13
-13
-12
-12
-10
-10
-10
-10
-9
-9
-8
-8
-5
-2
0
2
6
8
12
16
21
25
26
25
21
15
8
2
0
-4
-7
-8
-10
-14
-17
-20
-23
-24
-27
-27
-28
-29
-29
-29
-29
-29
-28
-28
-25
-18
-3
18
50
83
112
130
130
111
77
36
-5
-45
-75
-97
-110
-115
-115
-110
-100
-89
-78
-65
-54
-45
-39
-34
-30
-28
-25
-24
-20
-18
-17
-14
-12
-9
-8
-7
-7
-5
-4
-3
-2
1
3
7
11
16
22
28
35
42
48
55
62
66
71
73
75
76
77
78
80
81
80
81
81
81
81
81
80
80
78
77
73
70
65
60
53
47
40
32
26
20
15
8
5
1
-2
-4
-7
-8
-9
-12
-13
-14
-17
-18
-19
-20
-22
-23
-24
-28
-29
-30
-30
-29
-27
-24
-22
-18
-14
-10
-8
-4
2
6
8
8
6
1
-5
-9
-14
-18
-20
-22
-24
-27
-30
-33
-35
-38
-39
-40
-42
-42
-42
-42
-43
-43
-40
-37
-27
-10
12
40
67
88
97
90
67
32
-10
-54
-94
-124
-143
-152
-152
-142
-128
-110
-92
-75
-59
-47
-38
-32
-27
-23
-20
-17
-14
-12
-9
-8
-5
-4
-3
-2
1
3
6
8
11
13
17
20
25
30
36
43
51
58
66
72
77
81
83
86
87
88
88
88
88
88
90
90
90
90
88
88
86
83
80
76
70
63
56
48
40
32
25
17
11
6
2
0
-4
-8
-12
-13
-15
-17
-18
-18
-19
-20
-22
-23
-24
-25
-27
-28
-29
-32
-33
-34
-34
-35
-35
-34
-33
-32
-28
-24
-20
-15
-12
-7
-3
1
5
6
8
7
5
0
-4
-10
-14
-18
-19
-22
-24
-28
-32
-34
-38
-42
-43
-47
-48
-49
-50
-52
-52
-53
-52
-49
-40
-25
-3
25
53
76
87
82
65
33
-4
-42
-77
-103
-123
-132
-134
-129
-120
-107
-93
-79
-68
-58
-50
-44
-40
-38
-34
-32
-28
-25
-23
-20
-18
-15
-13
-12
-10
-9
-8
-7
-5
-3
0
2
6
8
15
21
27
35
42
48
53
58
61
65
66
67
70
71
71
72
73
75
75
75
75
75
73
71
66
62
58
55
50
46
41
33
25
16
7
0
-4
-7
-8
-7
-5
-7
-8
-10
-13
-17
-19
-23
-27
-30
-33
-34
-35
-35
-35
-35
-35
-34
-34
-33
-33
-33
-32
-32
-32
-30
-25
-12
10
40
72
103
123
130
120
95
62
23
-12
-44
-69
-85
-98
-104
-104
-100
-93
-84
-75
-67
-59
-53
-49
-45
-43
-40
-38
-35
-33
-30
-28
-25
-23
-20
-18
-14
-10
-8
-3
0
5
10
16
22
30
37
45
51
58
63
68
72
75
76
78
78
80
81
81
81
80
78
76
73
71
66
61
55
48
40
32
23
16
8
3
-2
-7
-12
-14
-18
-20
-22
-24
-25
-25
-27
-27
-27
-28
-28
-29
-29
-30
-30
-32
-32
-32
-33
-33
-33
-33
-34
-34
-34
-34
-34
-33
-32
-32
-30
-28
-27
-25
-23
-22
-20
-18
-17
-15
-14
-14
-13
-12
-10
-9
-9
-9
-8
-8
-8
-8
-9
-8
-8
-8
-5
-3
0
1
3
6
8
12
16
21
25
27
27
25
20
12
7
2
0
-3
-7
-9
-12
-15
-20
-23
-24
-25
-27
-27
-28
-28
-30
-30
-30
-30
-29
-27
-22
-8
11
38
72
102
122
126
112
85
43
0
-39
-73
-97
-112
-119
-119
-115
-107
-94
-80
-69
-57
-47
-39
-35
-30
-27
-25
-22
-20
-17
-14
-13
-10
-9
-8
-7
-5
-5
-3
-2
1
3
6
10
13
18
23
30
36
43
51
57
63
68
72
75
77
78
80
80
80
80
80
80
81
81
82
82
82
82
81
80
77
73
68
63
57
50
42
36
28
23
17
11
6
2
-2
-5
-7
-8
-9
-12
-13
-14
-17
-18
-20
-22
-24
-25
-27
-29
-30
-30
-32
-30
-29
-25
-23
-18
-14
-10
-8
-4
2
6
10
11
8
5
0
-7
-12
-15
-18
-20
-23
-24
-28
-30
-34
-37
-38
-39
-40
-42
-44
-44
-44
-44
-43
-39
-32
-18
2
28
57
81
95
93
77
47
5
-38
-80
-114
-138
-150
-153
-148
-135
-118
-99
-80
-64
-52
-42
-34
-29
-25
-22
-19
-15
-13
-12
-9
-7
-5
-3
-3
0
1
3
6
10
12
15
20
25
28
35
41
47
55
63
68
76
80
83
87
88
90
91
91
91
91
91
91
92
92
92
92
91
88
86
80
73
66
58
51
42
33
26
18
11
6
1
-4
-8
-12
-14
-17
-19
-20
-20
-22
-23
-24
-25
-27
-28
-29
-29
-30
-32
-33
-34
-35
-37
-37
-38
-37
-35
-34
-32
-28
-23
-19
-14
-10
-7
-2
2
6
8
8
7
2
-3
-9
-12
-15
-18
-20
-22
-25
-28
-32
-37
-40
-43
-45
-47
-48
-49
-50
-52
-52
-53
-50
-44
-33
-13
13
42
67
85
87
75
51
16
-22
-57
-88
-110
-125
-132
-130
-124
-113
-99
-87
-74
-64
-57
-49
-44
-40
-37
-33
-30
-28
-24
-22
-19
-17
-17
-14
-12
-10
-10
-8
-5
-4
0
2
6
10
13
18
25
31
38
45
51
56
60
63
67
68
71
71
72
73
72
73
75
75
75
73
72
71
67
65
60
56
51
46
42
36
28
18
8
1
-4
-8
-9
-7
-5
-5
-5
-7
-9
-12
-15
-19
-22
-25
-29
-32
-33
-34
-34
-34
-35
-35
-35
-35
-34
-34
-33
-33
-33
-33
-29
-20
-4
21
53
86
111
123
120
101
70
35
-2
-34
-62
-83
-95
-104
-107
-104
-98
-90
-80
-70
-63
-57
-52
-48
-45
-43
-39
-37
-34
-32
-29
-27
-24
-22
-18
-15
-12
-8
-5
-2
2
7
13
21
28
36
43
51
57
63
67
71
73
77
80
81
81
82
82
82
81
80
78
75
72
67
62
56
48
41
33
26
18
11
5
1
-5
-10
-14
-18
-20
-22
-23
-24
-25
-27
-27
-27
-28
-28
-28
-28
-29
-29
-29
-29
-32
-32
-32
-34
-34
-34
-34
-35
-34
-34
-33
-32
-29
-28
-27
-25
-23
-22
-20
-19
-18
-17
-15
-14
-14
-13
-12
-12
-10
-10
-10
-9
-9
-9
-9
-8
-9
-8
-7
-7
-5
-4
-2
1
3
7
11
15
18
23
27
28
27
23
18
12
7
2
0
-3
-5
-9
-13
-17
-19
-22
-24
-25
-27
-28
-29
-29
-29
-28
-28
-28
-28
-25
-17
-3
20
50
82
108
123
122
103
70
28
-13
-52
-82
-103
-115
-120
-118
-112
-103
-90
-77
-64
-53
-45
-38
-33
-29
-25
-22
-20
-18
-17
-14
-12
-10
-9
-9
-8
-7
-4
-2
0
2
5
7
11
15
20
26
32
40
46
53
58
63
68
72
75
77
78
80
81
81
81
81
82
81
82
83
82
83
82
82
80
76
72
67
60
53
46
38
31
23
17
12
7
2
-2
-4
-7
-8
-9
-10
-12
-13
-15
-17
-19
-20
-23
-24
-27
-28
-29
-32
-32
-32
-30
-29
-25
-22
-18
-14
-10
-7
-2
2
6
8
8
7
2
-4
-9
-14
-17
-19
-22
-24
-25
-29
-32
-34
-37
-38
-39
-40
-43
-43
-43
-43
-43
-40
-35
-27
-12
11
38
66
87
96
91
68
35
-8
-52
-93
-124
-143
-153
-153
-143
-129
-112
-92
-75
-59
-48
-38
-32
-27
-23
-20
-17
-13
-10
-8
-5
-4
-3
-2
1
3
6
7
10
12
16
20
23
27
33
40
46
55
61
67
72
76
80
83
86
87
88
90
90
90
91
91
91
91
91
90
88
87
83
80
75
68
61
53
45
36
27
20
11
6
1
-4
-9
-13
-14
-17
-19
-22
-22
-23
-24
-25
-27
-28
-28
-29
-30
-30
-32
-33
-33
-34
-34
-35
-37
-37
-35
-34
-34
-30
-25
-22
-15
-12
-7
-4
0
3
7
8
8
6
2
-3
-8
-13
-15
-18
-20
-23
-25
-29
-33
-35
-39
-42
-44
-48
-49
-52
-53
-54
-54
-54
-53
-45
-32
-10
17
46
72
87
87
75
46
11
-25
-62
-89
-110
-122
-127
-124
-117
-105
-93
-80
-68
-58
-50
-44
-40
-37
-34
-30
-28
-25
-22
-19
-17
-14
-12
-12
-9
-8
-7
-4
-4
-3
-2
1
5
7
12
18
25
32
38
46
51
56
60
61
63
66
68
70
71
72
75
75
76
76
76
76
75
71
67
63
60
55
51
47
42
35
27
20
11
3
0
-3
-3
-3
-2
-3
-3
-5
-8
-12
-15
-19
-23
-27
-29
-32
-34
-35
-35
-38
-39
-39
-39
-39
-38
-38
-38
-37
-37
-37
-32
-20
0
27
61
93
116
125
117
93
62
23
-12
-44
-69
-85
-98
-104
-104
-102
-94
-85
-77
-68
-60
-54
-49
-45
-43
-43
-40
-38
-35
-33
-30
-28
-25
-23
-19
-15
-12
-8
-4
0
5
10
17
23
31
38
46
53
61
67
71
75
77
80
81
82
83
83
83
83
81
80
78
76
72
67
62
56
50
41
33
25
17
10
3
-2
-7
-10
-14
-18
-19
-22
-23
-24
-25
-25
-25
-27
-27
-27
-27
-28
-28
-29
-29
-30
-32
-33
-33
-33
-34
-34
-33
-33
-33
-32
-32
-30
-29
-28
-27
-25
-24
-23
-22
-20
-19
-17
-15
-15
-14
-13
-12
-10
-9
-9
-9
-9
-10
-10
-10
-9
-9
-9
-8
-7
-5
-3
0
0
2
6
10
13
17
22
25
26
26
22
16
10
3
0
-3
-7
-9
-12
-14
-17
-20
-23
-24
-27
-27
-28
-28
-28
-28
-27
-27
-27
-27
-23
-15
-2
21
51
82
107
122
118
98
63
22
-20
-57
-87
-105
-117
-119
-118
-112
-100
-89
-74
-62
-49
-42
-34
-29
-25
-23
-20
-19
-15
-13
-13
-10
-8
-8
-7
-5
-4
-3
-2
1
3
6
10
13
17
22
27
33
40
46
53
60
65
70
72
76
78
78
80
81
81
81
80
80
80
78
80
80
80
80
78
77
73
70
65
58
52
46
38
31
25
18
15
8
5
1
-3
-7
-8
-9
-10
-13
-14
-15
-18
-19
-20
-22
-23
-24
-25
-28
-29
-29
-29
-28
-27
-24
-20
-17
-14
-10
-7
-3
1
5
6
7
5
0
-7
-12
-15
-18
-20
-23
-24
-25
-29
-32
-34
-37
-38
-39
-40
-40
-40
-42
-42
-42
-39
-34
-24
-8
12
40
66
87
96
91
68
33
-7
-52
-90
-122
-142
-150
-150
-143
-129
-112
-93
-74
-59
-47
-37
-30
-27
-22
-19
-15
-13
-10
-8
-5
-4
-3
0
2
3
7
8
10
12
16
20
23
27
32
38
45
53
60
67
73
78
83
87
88
90
90
90
90
88
88
87
87
87
86
85
83
82
78
73
68
62
56
48
40
31
22
13
7
2
-4
-9
-14
-18
-19
-22
-24
-27
-27
-28
-28
-29
-30
-30
-32
-32
-33
-33
-33
-33
-33
-34
-34
-34
-34
-34
-33
-33
-32
-28
-25
-22
-18
-13
-9
-5
-2
3
6
7
8
7
2
-3
-8
-12
-14
-17
-18
-20
-23
-27
-32
-37
-40
-43
-45
-47
-48
-49
-50
-50
-53
-53
-50
-44
-32
-9
17
46
72
90
91
80
53
18
-18
-53
-82
-104
-117
-123
-122
-115
-105
-93
-79
-68
-58
-50
-45
-42
-38
-35
-32
-29
-25
-23
-20
-18
-15
-15
-13
-10
-8
-8
-7
-5
-4
-2
1
3
7
11
17
23
30
36
42
47
52
56
58
61
62
63
66
67
68
71
72
72
73
75
75
73
72
68
66
62
57
55
51
47
41
33
26
16
8
2
0
-2
-2
-2
-2
-3
-4
-7
-10
-14
-18
-23
-27
-29
-33
-35
-37
-37
-37
-38
-38
-38
-38
-37
-37
-35
-35
-35
-34
-30
-22
-3
23
55
87
112
125
120
100
67
30
-5
-38
-65
-85
-98
-104
-105
-103
-97
-88
-78
-69
-60
-53
-48
-47
-43
-40
-38
-35
-35
-33
-30
-27
-24
-20
-18
-14
-12
-8
-4
0
5
11
17
25
32
41
48
56
61
67
71
76
78
81
82
83
83
85
83
83
82
81
78
76
72
67
62
56
48
42
33
26
17
10
2
-3
-7
-10
-14
-17
-19
-22
-22
-23
-23
-24
-24
-25
-25
-24
-24
-25
-25
-25
-27
-27
-28
-30
-32
-32
-33
-33
-33
-33
-33
-33
-32
-32
-30
-30
-29
-28
-25
-24
-23
-20
-19
-18
-17
-15
-15
-15
-14
-13
-12
-10
-10
-10
-10
-10
-10
-10
-12
-10
-9
-9
-8
-5
-3
0
1
5
7
11
16
20
25
27
26
23
17
11
6
1
-2
-4
-7
-9
-12
-15
-18
-23
-25
-27
-28
-29
-29
-29
-29
-29
-30
-29
-28
-25
-19
-7
13
42
73
101
120
122
107
77
36
-5
-45
-78
-100
-114
-120
-120
-115
-105
-93
-79
-65
-55
-45
-38
-32
-28
-24
-23
-19
-17
-15
-13
-10
-10
-8
-8
-8
-7
-5
-4
-2
0
2
5
8
12
17
22
28
36
43
50
57
63
68
72
75
77
78
80
80
80
80
80
81
80
81
82
82
82
82
81
80
76
72
68
62
56
50
43
36
28
22
16
11
6
2
0
-3
-5
-8
-8
-9
-10
-13
-14
-15
-19
-20
-22
-23
-25
-27
-28
-28
-30
-29
-28
-27
-23
-19
-15
-10
-8
-4
0
5
7
8
6
2
-4
-8
-14
-18
-22
-22
-24
-25
-28
-30
-33
-35
-37
-38
-40
-40
-42
-42
-42
-40
-39
-37
-29
-15
5
31
60
83
97
97
80
50
8
-34
-75
-109
-134
-147
-149
-144
-133
-117
-98
-80
-63
-49
-39
-33
-27
-24
-22
-18
-15
-12
-9
-8
-5
-3
-2
0
1
3
5
7
11
13
17
21
25
30
35
41
48
55
63
68
73
77
80
81
82
83
83
85
83
82
82
82
81
81
80
78
76
73
71
67
62
56
48
40
32
23
15
7
2
-3
-8
-13
-17
-20
-23
-23
-24
-25
-27
-27
-28
-29
-29
-30
-30
-30
-33
-33
-34
-34
-35
-35
-35
-35
-35
-35
-34
-34
-30
-28
-23
-18
-14
-10
-5
-2
2
5
6
7
6
3
-2
-7
-10
-13
-15
-17
-19
-22
-25
-29
-33
-37
-40
-43
-44
-45
-47
-48
-48
-49
-50
-48
-43
-33
-14
11
41
70
91
100
92
72
40
3
-33
-65
-89
-107
-117
-117
-113
-105
-94
-82
-70
-62
-53
-47
-42
-38
-34
-30
-28
-25
-23
-22
-19
-18
-17
-14
-14
-13
-12
-10
-9
-8
-5
-3
0
3
6
11
16
22
28
35
41
47
51
56
58
62
63
66
68
71
72
75
77
78
78
78
78
77
75
72
68
65
60
56
52
47
38
31
21
12
5
1
-2
-2
-2
-2
-2
-3
-7
-9
-13
-17
-20
-24
-28
-30
-33
-34
-37
-37
-37
-37
-37
-37
-37
-37
-37
-37
-37
-35
-33
-27
-10
13
45
76
105
121
122
106
77
42
5
-30
-58
-79
-94
-103
-107
-105
-99
-92
-83
-73
-64
-58
-52
-48
-44
-43
-40
-38
-34
-32
-29
-27
-23
-20
-18
-14
-10
-8
-4
0
5
11
17
23
31
38
46
53
60
66
71
73
76
78
80
81
82
82
83
83
82
80
77
75
71
67
62
56
51
43
36
28
21
13
8
2
-2
-7
-10
-12
-14
-17
-18
-19
-20
-22
-23
-23
-23
-24
-24
-23
-23
-24
-24
-25
-27
-28
-28
-28
-30
-30
-30
-30
-30
-30
-30
-30
-30
-29
-29
-27
-25
-24
-22
-20
-19
-18
-18
-17
-15
-14
-13
-13
-12
-12
-12
-12
-10
-10
-10
-10
-10
-9
-9
-8
-7
-4
-3
-2
2
5
7
10
13
17
22
26
27
25
21
15
8
3
-2
-4
-7
-9
-12
-15
-19
-22
-24
-25
-27
-28
-28
-30
-30
-30
-29
-29
-28
-27
-23
-13
2
27
57
86
108
120
113
90
52
10
-30
-67
-93
-110
-119
-122
-119
-110
-99
-85
-72
-59
-49
-40
-34
-29
-27
-24
-22
-19
-17
-15
-13
-12
-9
-8
-7
-5
-5
-3
-2
0
2
6
8
12
16
21
27
32
40
46
53
60
66
70
73
76
78
80
80
80
81
81
80
81
82
82
82
83
83
83
82
80
77
72
67
61
53
46
40
33
26
20
13
8
3
-2
-3
-5
-8
-9
-9
-10
-12
-13
-15
-17
-19
-20
-24
-25
-27
-28
-29
-30
-29
-29
-27
-24
-19
-15
-12
-9
-7
-2
2
5
7
7
3
-2
-7
-12
-15
-18
-20
-23
-24
-27
-30
-33
-35
-37
-38
-39
-40
-40
-42
-42
-40
-39
-38
-33
-20
-4
21
48
75
93
98
88
62
26
-18
-60
-99
-127
-143
-150
-148
-138
-124
-105
-87
-69
-54
-43
-34
-28
-24
-20
-17
-14
-12
-9
-7
-4
-2
0
1
2
5
6
8
10
12
16
18
22
27
31
36
42
48
53
61
65
71
73
75
77
77
78
78
78
78
78
77
77
77
77
76
75
73
71
67
62
56
50
42
33
26
17
10
3
-3
-8
-12
-15
-18
-22
-23
-24
-25
-27
-28
-29
-30
-32
-32
-32
-33
-34
-34
-35
-35
-37
-35
-35
-35
-37
-35
-34
-33
-30
-28
-23
-19
-15
-12
-8
-4
0
3
6
8
10
7
3
-3
-8
-10
-14
-15
-18
-20
-23
-27
-29
-33
-37
-40
-43
-44
-45
-47
-47
-48
-47
-47
-43
-37
-20
3
31
61
87
102
101
87
58
23
-12
-47
-74
-95
-108
-113
-113
-107
-97
-85
-74
-64
-55
-49
-44
-39
-37
-33
-30
-28
-24
-22
-20
-19
-17
-15
-14
-14
-13
-12
-12
-9
-7
-5
-3
1
3
8
13
20
26
33
40
46
51
56
60
63
66
67
70
72
73
75
76
77
78
78
78
77
76
72
68
65
61
56
51
47
41
32
23
13
5
0
-3
-4
-2
-2
-2
-3
-5
-8
-10
-14
-18
-23
-27
-29
-33
-35
-35
-37
-35
-35
-35
-35
-34
-34
-33
-33
-33
-34
-33
-30
-19
0
27
61
92
116
125
117
93
60
21
-17
-49
-75
-92
-104
-109
-109
-104
-95
-85
-77
-68
-60
-55
-50
-47
-44
-42
-39
-37
-34
-32
-29
-27
-25
-22
-19
-15
-13
-9
-4
0
5
11
18
26
35
43
51
58
63
68
73
77
80
81
82
83
83
83
82
82
81
80
78
76
72
67
62
56
48
42
33
26
18
12
5
0
-4
-9
-13
-14
-17
-19
-20
-22
-20
-22
-22
-23
-22
-23
-23
-23
-23
-23
-24
-25
-27
-27
-28
-29
-30
-30
-30
-30
-30
-30
-30
-29
-29
-28
-27
-25
-24
-23
-22
-20
-20
-19
-18
-18
-17
-17
-15
-15
-15
-14
-14
-13
-13
-12
-12
-10
-12
-12
-10
-10
-9
-7
-4
0
1
3
7
11
15
20
23
26
26
22
17
11
6
1
-3
-5
-8
-10
-14
-17
-20
-23
-25
-27
-28
-28
-28
-29
-28
-28
-28
-28
-27
-24
-20
-8
12
40
70
97
115
117
103
72
32
-8
-48
-80
-102
-115
-122
-122
-117
-107
-94
-80
-67
-54
-45
-38
-32
-29
-25
-23
-20
-18
-17
-14
-12
-10
-8
-8
-7
-5
-4
-3
-2
1
3
6
10
13
18
23
30
36
43
50
56
63
68
72
76
77
78
80
80
81
82
81
82
83
83
83
83
83
82
82
80
77
73
70
63
57
51
43
38
31
23
17
12
7
2
-2
-3
-5
-7
-9
-10
-10
-13
-15
-17
-20
-22
-23
-24
-25
-27
-28
-29
-30
-30
-28
-25
-23
-19
-13
-9
-5
-3
2
6
8
8
6
3
-3
-7
-12
-15
-17
-19
-22
-24
-27
-30
-33
-35
-38
-38
-39
-39
-39
-40
-40
-40
-39
-34
-25
-10
10
37
65
87
98
96
77
45
2
-42
-83
-115
-139
-150
-153
-147
-134
-117
-98
-80
-64
-50
-40
-34
-29
-25
-22
-19
-15
-12
-9
-7
-5
-3
-2
2
2
3
5
6
7
11
13
16
20
23
27
35
41
46
52
58
63
67
70
72
72
73
73
73
73
73
73
75
75
75
75
75
73
71
67
63
58
52
46
38
30
22
13
6
1
-5
-10
-14
-18
-22
-24
-27
-29
-29
-30
-32
-34
-34
-33
-32
-29
-27
-27
-27
-29
-32
-34
-33
-32
-28
-25
-23
-23
-23
-23
-24
-25
-27
-28
-29
-30
-32
-33
-33
-33
-32
-32
-30
-29
-29
-29
-29
-29
-29
-27
-19
-2
20
51
81
103
113
108
87
56
17
-18
-50
-77
-95
-107
-112
-112
-107
-98
-89
-78
-68
-60
-53
-48
-44
-40
-37
-33
-30
-27
-24
-22
-19
-17
-14
-12
-9
-7
-4
-2
0
2
3
6
10
15
21
26
32
40
46
51
56
60
63
66
68
70
71
73
75
76
77
78
80
80
78
77
76
72
68
62
56
48
41
33
26
18
12
6
2
-3
-8
-10
-14
-15
-18
-20
-22
-23
-24
-25
-27
-28
-28
-29
-30
-30
-30
-30
-30
-30
-30
-30
-30
-29
-29
-28
-27
-27
-25
-24
-23
-22
-20
-20
-20
-20
-20
-19
-19
-19
-18
-15
-12
-8
-4
0
2
6
10
13
16
18
20
17
13
8
2
-3
-7
-10
-14
-17
-20
-23
-27
-30
-33
-35
-37
-38
-39
-39
-39
-39
-39
-38
-35
-30
-19
-2
27
60
95
122
136
131
108
72
30
-10
-48
-78
-97
-109
-114
-113
-108
-98
-87
-74
-63
-53
-47
-42
-38
-35
-32
-29
-27
-25
-23
-20
-19
-17
-14
-12
-10
-9
-8
-7
-4
-3
0
3
7
11
17
23
31
38
45
53
60
65
68
71
73
76
76
76
77
78
78
80
80
80
80
78
78
77
73
71
67
62
57
51
45
37
31
25
18
12
7
3
0
-4
-7
-7
-9
-10
-12
-12
-13
-13
-13
-14
-14
-15
-15
-17
-19
-19
-20
-22
-23
-23
-24
-24
-23
-20
-18
-15
-12
-9
-5
-2
1
5
8
11
11
10
7
2
-4
-9
-13
-14
-17
-19
-22
-25
-28
-32
-34
-37
-39
-40
-42
-42
-42
-42
-42
-42
-39
-33
-20
0
26
56
85
103
108
97
70
31
-14
-57
-95
-123
-139
-147
-145
-135
-122
-104
-87
-72
-58
-47
-39
-33
-29
-25
-22
-19
-15
-13
-10
-9
-8
-7
-5
-3
1
2
5
6
8
12
16
20
23
30
35
41
47
56
62
67
73
77
80
82
83
83
85
86
86
86
86
86
86
86
85
85
81
78
75
70
65
57
50
42
33
26
20
12
6
1
-4
-5
-8
-9
-10
-12
-13
-13
-13
-14
-14
-15
-15
-15
-15
-17
-18
-19
-20
-20
-22
-23
-23
-23
-23
-22
-22
-19
-17
-14
-12
-8
-4
-2
1
3
7
8
11
10
5
0
-5
-12
-15
-19
-22
-24
-25
-28
-30
-33
-35
-37
-38
-39
-39
-40
-40
-40
-40
-39
-37
-30
-18
-2
23
51
76
93
98
85
57
18
-25
-68
-104
-130
-145
-150
-145
-134
-119
-100
-82
-65
-52
-40
-35
-29
-25
-23
-20
-18
-15
-13
-12
-9
-7
-7
-4
-3
-2
1
1
2
5
7
11
13
17
22
27
35
41
47
55
60
65
67
70
71
72
73
73
75
75
76
77
78
80
80
78
77
76
73
70
63
57
50
42
35
26
18
11
5
-2
-7
-12
-17
-20
-23
-24
-24
-25
-27
-27
-28
-28
-29
-29
-30
-30
-32
-33
-34
-34
-34
-34
-34
-34
-34
-33
-33
-30
-28
-23
-19
-13
-8
-4
0
2
6
8
11
11
10
7
3
-2
-5
-9
-10
-12
-14
-17
-20
-24
-29
-32
-35
-37
-39
-40
-42
-43
-44
-44
-44
-43
-38
-27
-8
18
51
81
103
113
106
85
53
17
-18
-49
-74
-92
-102
-105
-104
-97
-88
-77
-65
-57
-49
-43
-39
-35
-33
-29
-27
-24
-22
-20
-18
-15
-14
-13
-12
-10
-9
-8
-7
-5
-3
0
1
5
10
15
20
26
32
38
43
48
52
56
58
61
63
65
66
68
70
71
71
71
72
72
71
68
65
60
56
51
46
42
38
33
27
20
12
5
-2
-5
-7
-5
-5
-4
-4
-4
-7
-9
-13
-15
-19
-23
-28
-32
-34
-35
-37
-38
-39
-39
-39
-39
-38
-38
-37
-37
-35
-35
-33
-27
-12
11
41
73
102
121
122
107
77
40
-2
-38
-69
-93
-107
-115
-117
-114
-107
-97
-85
-75
-67
-58
-54
-49
-45
-43
-39
-38
-35
-33
-30
-28
-25
-22
-19
-15
-12
-8
-5
0
5
11
17
26
35
42
51
60
66
72
77
81
86
87
88
88
88
88
87
87
87
86
85
82
78
73
68
62
55
48
41
32
26
18
12
7
1
-2
-5
-9
-10
-13
-15
-18
-19
-20
-20
-22
-20
-22
-22
-22
-22
-22
-22
-22
-24
-24
-25
-25
-28
-29
-29
-30
-30
-30
-29
-29
-28
-25
-25
-24
-23
-23
-23
-22
-22
-22
-22
-22
-20
-19
-19
-18
-17
-15
-14
-14
-14
-13
-13
-12
-13
-12
-10
-9
-8
-5
-3
-2
0
2
5
8
12
17
23
26
27
25
21
15
8
3
0
-4
-7
-9
-12
-15
-18
-22
-24
-25
-27
-29
-30
-30
-30
-30
-29
-29
-29
-27
-24
-14
1
26
55
83
105
112
103
77
41
-2
-43
-75
-102
-118
-125
-127
-122
-113
-102
-88
-74
-62
-50
-42
-37
-32
-27
-24
-22
-19
-18
-15
-12
-12
-9
-8
-7
-5
-5
-4
-2
1
3
7
10
15
18
23
28
35
42
48
57
63
68
73
77
80
81
82
81
82
83
83
85
85
85
86
85
86
86
86
83
82
78
73
67
62
56
48
41
33
26
20
15
8
5
1
-3
-3
-5
-7
-8
-9
-10
-12
-14
-17
-19
-22
-23
-24
-25
-27
-28
-28
-28
-27
-24
-20
-17
-14
-10
-8
-3
0
5
7
10
8
3
0
-7
-13
-17
-20
-22
-23
-25
-28
-30
-33
-34
-35
-37
-38
-39
-40
-40
-39
-39
-38
-35
-28
-18
1
25
52
77
92
95
82
55
15
-28
-72
-107
-133
-147
-152
-148
-138
-123
-105
-88
-73
-59
-49
-43
-37
-33
-30
-28
-25
-24
-22
-19
-17
-14
-12
-10
-9
-7
-5
-4
-2
1
3
7
10
15
18
26
32
38
47
53
58
63
67
68
70
71
71
72
72
73
73
75
76
76
76
76
73
71
70
66
60
53
47
38
31
22
15
7
2
-3
-8
-13
-17
-20
-22
-24
-25
-25
-27
-27
-28
-28
-28
-29
-29
-32
-32
-32
-32
-32
-32
-32
-33
-33
-32
-30
-29
-28
-24
-20
-15
-10
-5
-2
2
5
7
10
11
12
11
6
2
-3
-7
-8
-10
-12
-14
-17
-19
-23
-28
-30
-33
-35
-38
-39
-40
-40
-40
-40
-40
-40
-35
-23
-3
23
56
87
110
120
112
91
58
22
-12
-45
-72
-88
-99
-104
-103
-97
-87
-77
-67
-58
-50
-45
-40
-37
-33
-30
-27
-25
-23
-20
-19
-18
-17
-15
-14
-13
-12
-10
-9
-7
-5
-3
1
3
7
12
17
23
31
37
43
48
53
57
60
62
65
66
67
68
70
72
72
75
76
76
75
73
71
67
63
58
52
46
38
31
23
16
10
3
0
-4
-8
-10
-13
-14
-15
-17
-18
-19
-20
-20
-22
-22
-23
-23
-23
-24
-24
-24
-24
-25
-27
-27
-25
-25
-25
-24
-22
-18
-15
-12
-7
-4
0
3
7
11
13
15
13
10
5
-2
-7
-10
-13
-14
-17
-19
-23
-28
-32
-35
-38
-40
-43
-43
-45
-45
-45
-45
-45
-42
-34
-22
1
31
66
98
122
128
118
92
53
10
-32
-68
-97
-114
-122
-123
-118
-108
-94
-80
-67
-55
-45
-38
-33
-29
-25
-23
-20
-17
-14
-12
-10
-8
-7
-4
-3
-3
-2
1
2
5
6
10
13
17
22
27
33
41
47
53
61
65
68
72
72
73
75
76
77
76
77
77
77
77
77
77
75
72
70
63
58
53
48
45
40
35
30
22
15
7
1
-4
-5
-4
-4
-4
-4
-4
-7
-8
-10
-13
-17
-20
-23
-27
-29
-30
-32
-32
-33
-33
-33
-33
-33
-33
-32
-32
-33
-33
-30
-24
-13
7
32
58
78
87
81
60
26
-14
-58
-94
-124
-143
-152
-153
-147
-134
-118
-100
-83
-69
-58
-48
-43
-39
-35
-33
-30
-29
-25
-23
-20
-17
-14
-10
-8
-5
-2
3
8
13
18
25
32
40
47
56
65
72
77
82
86
90
91
92
92
92
91
91
88
87
86
83
81
78
75
70
65
60
53
46
38
31
23
16
8
5
0
-4
-5
-8
-10
-13
-13
-15
-15
-17
-17
-17
-17
-17
-17
-17
-17
-17
-18
-18
-18
-19
-19
-20
-20
-22
-23
-24
-24
-25
-25
-25
-25
-25
-25
-24
-24
-23
-23
-23
-22
-22
-20
-20
-20
-19
-19
-19
-19
-18
-17
-17
-17
-15
-15
-14
-15
-14
-13
-12
-10
-9
-5
-3
0
2
6
10
15
20
25
28
28
26
22
17
11
6
2
1
-2
-5
-8
-12
-15
-18
-20
-22
-23
-24
-25
-25
-25
-27
-27
-27
-27
-25
-20
-10
5
28
56
82
101
105
93
67
31
-10
-48
-80
-103
-118
-125
-125
-119
-110
-98
-87
-74
-62
-52
-44
-39
-35
-32
-28
-25
-22
-20
-18
-17
-15
-14
-13
-12
-10
-10
-9
-8
-7
-5
-3
1
3
7
12
18
23
30
36
43
48
53
58
62
65
67
68
70
71
71
72
73
75
75
76
77
76
76
76
75
72
68
65
58
52
43
36
27
20
13
6
1
-4
-8
-12
-15
-17
-19
-22
-24
-25
-27
-28
-29
-30
-30
-30
-32
-33
-33
-33
-33
-32
-32
-29
-25
-22
-17
-13
-8
-5
-2
1
5
7
8
7
3
-2
-7
-12
-14
-15
-18
-19
-22
-24
-27
-30
-33
-37
-38
-39
-39
-40
-40
-42
-43
-42
-40
-34
-20
1
28
62
92
112
120
111
88
56
18
-17
-47
-72
-89
-98
-102
-100
-93
-84
-74
-64
-57
-49
-44
-40
-38
-35
-33
-30
-29
-27
-25
-24
-24
-23
-22
-20
-19
-18
-15
-14
-13
-10
-8
-5
-2
2
7
12
18
25
31
37
42
47
50
53
56
57
60
62
63
66
66
67
67
67
67
66
65
62
60
56
52
50
47
42
36
28
20
11
3
-2
-4
-3
-3
-2
-2
-3
-4
-7
-10
-14
-17
-20
-24
-27
-28
-29
-30
-30
-32
-33
-33
-33
-33
-33
-33
-32
-33
-33
-32
-27
-13
6
36
68
98
118
121
108
80
40
-3
-40
-73
-95
-112
-119
-122
-118
-110
-99
-87
-75
-65
-57
-50
-45
-43
-40
-38
-35
-32
-29
-28
-25
-22
-19
-17
-13
-9
-7
-3
2
8
13
21
28
36
46
53
62
68
75
80
85
87
88
90
91
91
91
90
87
86
85
83
81
77
73
70
63
57
51
43
35
27
20
12
7
1
-3
-5
-8
-10
-13
-15
-17
-18
-18
-19
-20
-20
-22
-20
-22
-22
-23
-23
-24
-25
-25
-28
-29
-29
-30
-30
-30
-32
-32
-32
-32
-30
-30
-29
-28
-27
-27
-25
-24
-24
-23
-23
-22
-20
-19
-19
-18
-17
-17
-17
-17
-15
-15
-14
-14
-13
-13
-12
-12
-10
-8
-7
-4
-2
0
3
6
10
15
18
23
26
26
23
18
12
7
2
-2
-4
-7
-10
-13
-17
-20
-24
-25
-28
-29
-29
-30
-30
-30
-32
-30
-30
-30
-28
-23
-12
6
32
61
88
107
111
97
70
30
-12
-50
-84
-108
-120
-127
-125
-120
-109
-95
-82
-67
-55
-45
-38
-33
-29
-25
-23
-20
-17
-15
-13
-10
-9
-8
-7
-5
-4
-3
0
1
3
5
8
11
15
20
25
30
36
43
51
58
65
70
75
77
80
81
82
82
82
83
83
85
85
85
86
86
86
87
86
85
82
78
73
70
62
56
48
41
33
27
22
16
11
6
2
0
-3
-4
-7
-7
-9
-10
-12
-13
-14
-15
-18
-19
-23
-24
-25
-25
-25
-25
-23
-20
-18
-14
-12
-7
-3
0
3
7
10
10
7
3
-2
-8
-13
-17
-20
-23
-24
-27
-30
-33
-35
-38
-39
-40
-40
-42
-42
-43
-43
-43
-42
-39
-29
-14
6
32
60
81
92
88
70
36
-3
-45
-83
-114
-134
-144
-147
-142
-130
-115
-100
-85
-72
-60
-52
-47
-43
-39
-34
-30
-28
-25
-22
-19
-17
-14
-10
-8
-7
-4
-2
0
2
6
7
10
13
17
21
28
33
40
46
52
57
61
65
65
66
67
68
68
68
70
70
71
71
72
72
72
71
70
66
62
57
52
45
37
30
21
13
6
0
-7
-12
-15
-19
-22
-23
-25
-28
-29
-30
-33
-34
-34
-35
-34
-32
-29
-28
-28
-28
-29
-30
-30
-28
-24
-20
-18
-15
-15
-14
-15
-17
-18
-20
-23
-25
-28
-29
-30
-30
-30
-30
-28
-28
-27
-27
-25
-25
-27
-25
-20
-9
11
38
71
102
122
128
118
95
61
25
-10
-39
-64
-82
-93
-99
-99
-95
-89
-80
-70
-63
-55
-49
-44
-42
-38
-34
-32
-29
-27
-24
-22
-19
-18
-15
-13
-10
-8
-7
-4
-2
0
1
5
10
16
22
28
35
41
46
51
56
58
61
62
65
66
67
68
68
70
71
71
71
71
70
68
66
62
58
52
46
40
32
26
18
12
6
1
-4
-9
-13
-17
-19
-22
-23
-24
-25
-27
-27
-28
-28
-28
-28
-29
-30
-30
-30
-30
-30
-30
-30
-29
-28
-29
-28
-27
-25
-24
-23
-22
-22
-20
-19
-18
-17
-15
-15
-14
-15
-14
-12
-8
-4
-2
2
6
10
12
18
21
25
25
21
16
10
2
-2
-7
-9
-13
-15
-19
-23
-27
-29
-34
-37
-38
-39
-39
-39
-39
-39
-39
-38
-37
-30
-18
2
32
67
100
126
136
128
103
66
23
-18
-57
-84
-103
-114
-118
-114
-105
-93
-80
-67
-55
-45
-39
-34
-30
-27
-25
-23
-20
-18
-15
-14
-13
-10
-9
-8
-7
-5
-4
-3
0
2
5
7
12
16
22
28
35
43
50
56
62
67
71
73
76
77
78
80
81
81
81
80
81
81
81
80
78
77
75
71
66
61
56
50
42
36
30
23
17
12
7
2
0
-4
-5
-7
-7
-8
-9
-10
-12
-12
-13
-14
-15
-17
-17
-18
-19
-20
-22
-23
-25
-25
-25
-25
-24
-23
-20
-17
-13
-9
-7
-4
0
2
7
8
8
6
1
-4
-8
-14
-18
-20
-22
-24
-27
-30
-33
-37
-39
-43
-45
-47
-47
-48
-48
-48
-47
-47
-42
-33
-18
3
30
58
83
97
96
80
47
5
-39
-82
-114
-138
-150
-153
-145
-133
-118
-100
-82
-67
-53
-43
-35
-30
-25
-22
-18
-14
-12
-8
-5
-4
-2
0
2
3
6
7
10
11
15
17
21
25
30
36
41
50
56
62
68
76
80
83
85
86
87
87
87
88
88
88
88
88
88
87
86
83
82
78
75
70
63
56
48
41
33
27
20
13
7
3
0
-4
-7
-9
-10
-10
-12
-13
-14
-14
-15
-15
-17
-18
-18
-19
-19
-20
-22
-22
-23
-23
-23
-23
-23
-22
-20
-18
-14
-10
-8
-4
0
2
6
8
11
13
12
8
3
-2
-8
-13
-15
-19
-22
-24
-27
-30
-34
-37
-39
-42
-43
-44
-47
-48
-48
-49
-50
-49
-47
-38
-23
-2
25
51
72
83
80
60
28
-10
-50
-88
-115
-135
-145
-147
-139
-128
-113
-98
-82
-68
-57
-48
-43
-38
-34
-30
-27
-23
-22
-18
-15
-13
-10
-10
-8
-7
-5
-2
0
2
3
6
8
12
17
22
27
33
42
48
53
60
63
67
70
71
72
72
73
72
73
75
76
77
78
77
77
76
73
70
65
60
53
47
40
31
23
16
10
3
-2
-7
-12
-15
-19
-22
-24
-25
-25
-27
-27
-28
-28
-28
-29
-30
-30
-32
-30
-30
-29
-30
-29
-29
-29
-28
-29
-27
-24
-20
-17
-12
-7
-2
2
5
8
13
16
16
15
11
5
1
-4
-5
-8
-10
-12
-14
-18
-22
-27
-29
-32
-33
-35
-37
-37
-37
-37
-37
-38
-37
-30
-18
1
31
65
97
121
131
125
102
67
30
-9
-44
-70
-92
-104
-109
-108
-102
-93
-83
-72
-62
-54
-48
-45
-42
-38
-35
-33
-30
-28
-25
-23
-22
-19
-18
-15
-14
-13
-12
-9
-7
-4
-2
2
5
10
15
21
27
33
41
46
51
55
57
60
62
65
66
67
68
70
70
71
71
72
72
72
71
68
66
61
56
50
42
36
28
21
15
7
2
-2
-5
-9
-12
-13
-14
-15
-18
-19
-20
-20
-22
-23
-25
-27
-28
-29
-30
-30
-28
-27
-23
-20
-19
-19
-20
-22
-22
-20
-17
-12
-8
-5
-4
-5
-7
-9
-13
-15
-19
-23
-25
-27
-27
-27
-27
-24
-24
-24
-24
-24
-25
-25
-25
-25
-20
-10
8
35
67
98
122
128
120
92
53
11
-32
-68
-95
-113
-123
-124
-119
-110
-97
-83
-69
-57
-48
-40
-34
-30
-27
-23
-20
-18
-17
-13
-9
-7
-2
6
12
16
17
18
18
20
22
26
33
42
51
60
67
73
78
81
83
85
83
82
80
78
76
73
72
71
70
70
68
67
67
65
63
60
56
51
45
38
31
23
16
7
0
-7
-10
-15
-19
-23
-24
-27
-27
-28
-28
-28
-27
-24
-19
-9
2
17
31
37
32
13
-17
-58
-100
-143
-183
-215
-242
-259
-268
-268
-259
-244
-224
-200
-177
-152
-127
-102
-77
-54
-34
-18
-7
3
10
13
17
21
25
30
33
38
43
50
56
63
71
80
90
100
110
118
127
136
142
147
152
155
156
157
156
155
152
148
146
141
136
130
122
115
106
96
86
76
66
55
45
36
28
20
12
6
0
-4
-8
-12
-14
-18
-19
-22
-23
-24
-24
-24
-25
-27
-25
-27
-27
-27
-27
-27
-27
-27
-27
-27
-27
-27
-27
-27
-28
-28
-27
-27
-27
-27
-27
-27
-27
-28
-28
-28
-27
-27
-28
-28
-27
-27
-27
-25
-25
-27
-27
-25
-27
-27
-27
-27
-27
-25
-25
-25
-24
-25
-25
-24
-24
-23
-23
-23
-22
-20
-20
-19
-18
-15
-14
-12
-9
-7
-5
-2
2
7
12
17
18
17
16
11
7
7
5
3
1
0
-3
-8
-12
-13
-17
-18
-20
-22
-23
-23
-24
-24
-27
-27
-27
-27
-27
-24
-18
-4
16
42
71
93
106
103
85
55
18
-15
-48
-73
-88
-98
-103
-103
-100
-94
-85
-75
-67
-57
-48
-42
-37
-34
-30
-27
-25
-23
-22
-19
-18
-17
-15
-14
-15
-14
-13
-13
-12
-10
-9
-8
-5
-3
1
5
8
13
20
25
31
37
42
47
51
53
56
56
58
60
61
63
63
66
68
72
77
82
85
85
83
80
73
68
63
58
55
50
43
36
27
18
11
3
-4
-12
-18
-23
-28
-33
-35
-37
-38
-39
-40
-40
-42
-42
-42
-42
-42
-42
-42
-43
-43
-39
-29
-12
11
37
63
82
88
82
63
36
5
-27
-54
-75
-90
-102
-104
-104
-100
-93
-84
-75
-67
-59
-54
-50
-47
-43
-39
-37
-33
-29
-25
-23
-19
-18
-15
-12
-9
-5
-2
1
5
10
15
21
27
33
41
48
56
61
66
70
75
76
78
78
80
80
80
80
80
78
77
75
71
68
63
57
50
42
33
26
17
8
2
-4
-9
-13
-17
-20
-24
-25
-28
-29
-29
-30
-30
-29
-30
-30
-30
-30
-30
-30
-29
-29
-30
-30
-30
-30
-30
-30
-30
-32
-30
-30
-29
-29
-28
-27
-25
-24
-24
-23
-22
-20
-19
-18
-17
-15
-14
-13
-12
-12
-10
-10
-10
-8
-8
-7
-7
-8
-8
-8
-8
-8
-8
-9
-9
-9
-9
-10
-10
-10
-10
-9
-7
-5
-2
1
3
6
11
15
20
22
22
20
16
10
5
1
-2
-5
-7
-9
-13
-15
-19
-22
-25
-27
-28
-29
-29
-29
-29
-29
-29
-29
-28
-27
-24
-18
-4
18
51
87
120
142
148
135
106
65
21
-18
-50
-75
-92
-102
-107
-105
-99
-90
-79
-67
-57
-47
-40
-35
-30
-29
-27
-25
-23
-23
-20
-19
-17
-15
-14
-13
-13
-12
-10
-10
-9
-7
-5
-3
1
6
10
15
21
27
33
41
48
55
60
63
67
68
71
73
75
75
76
77
78
80
81
81
82
83
82
82
81
78
75
70
63
57
50
43
36
28
22
16
10
5
1
-3
-5
-8
-9
-12
-14
-17
-19
-20
-23
-24
-27
-29
-30
-30
-30
-32
-29
-25
-22
-18
-14
-10
-5
0
3
7
10
8
7
1
-5
-10
-15
-19
-22
-23
-24
-27
-29
-32
-34
-35
-37
-38
-39
-39
-39
-42
-42
-40
-39
-35
-25
-8
16
43
72
93
103
96
75
38
-7
-49
-89
-120
-140
-150
-149
-142
-129
-113
-95
-78
-63
-52
-42
-35
-30
-25
-23
-19
-17
-14
-14
-12
-9
-8
-7
-5
-3
-2
1
3
5
7
10
15
18
23
28
36
42
50
57
63
68
73
77
81
82
83
85
85
86
86
86
86
86
86
86
86
85
82
78
75
70
63
56
48
41
32
25
17
11
5
0
-3
-7
-7
-9
-10
-12
-12
-13
-13
-14
-15
-17
-18
-18
-19
-19
-20
-20
-22
-22
-23
-24
-24
-25
-27
-27
-24
-23
-19
-15
-10
-7
-3
1
3
8
11
13
12
8
5
0
-7
-10
-14
-17
-18
-19
-22
-25
-30
-34
-37
-39
-42
-44
-45
-47
-48
-49
-49
-49
-48
-40
-27
-8
18
47
71
86
86
71
41
3
-37
-74
-105
-127
-138
-142
-138
-129
-115
-100
-85
-72
-59
-50
-44
-39
-35
-32
-29
-27
-23
-20
-18
-15
-13
-13
-10
-9
-7
-5
-4
-3
-2
1
2
6
8
12
17
23
31
37
43
50
55
58
62
65
67
67
68
70
71
71
72
72
72
72
72
70
68
66
63
60
56
51
47
43
37
30
20
11
2
-3
-7
-7
-8
-8
-9
-12
-12
-15
-18
-20
-24
-27
-30
-34
-37
-39
-40
-40
-40
-39
-39
-39
-38
-38
-38
-37
-37
-38
-37
-33
-25
-8
18
50
82
106
120
117
100
73
40
5
-24
-50
-69
-84
-92
-95
-94
-88
-80
-73
-65
-58
-53
-49
-45
-42
-40
-38
-35
-33
-30
-28
-25
-23
-20
-18
-15
-12
-9
-7
-3
0
5
10
16
22
30
37
46
52
58
63
67
71
73
75
76
77
76
77
77
77
76
75
72
70
66
61
56
48
42
35
27
20
12
6
1
-5
-10
-14
-17
-19
-22
-24
-25
-27
-27
-27
-28
-27
-28
-28
-29
-29
-30
-30
-32
-32
-33
-33
-32
-33
-33
-32
-32
-32
-30
-30
-29
-28
-27
-27
-25
-24
-23
-22
-20
-19
-18
-17
-18
-17
-15
-15
-14
-14
-14
-14
-14
-13
-13
-13
-12
-12
-12
-12
-10
-9
-7
-5
-3
0
2
6
10
13
18
21
22
21
17
12
6
1
-2
-4
-7
-9
-12
-14
-17
-19
-22
-24
-25
-27
-27
-27
-27
-28
-28
-28
-27
-27
-24
-15
0
23
56
91
120
136
136
116
82
40
-4
-42
-73
-94
-107
-113
-114
-109
-100
-90
-79
-67
-57
-49
-42
-37
-33
-29
-27
-24
-23
-20
-19
-17
-15
-13
-12
-12
-10
-10
-9
-8
-7
-5
-2
1
6
11
16
22
28
37
43
50
56
60
63
66
68
70
71
71
72
73
72
73
72
73
73
75
76
75
73
72
70
67
62
57
51
45
37
30
23
15
10
3
0
-5
-9
-12
-13
-14
-17
-18
-20
-22
-24
-25
-28
-30
-33
-34
-38
-39
-40
-43
-43
-42
-42
-38
-34
-29
-25
-23
-19
-15
-12
-8
-4
-3
-3
-4
-7
-10
-13
-15
-17
-19
-20
-22
-24
-25
-28
-29
-30
-33
-33
-33
-34
-34
-33
-33
-30
-27
-18
1
26
53
81
102
111
103
80
42
-2
-45
-84
-114
-132
-140
-139
-132
-117
-100
-83
-65
-52
-39
-32
-27
-23
-18
-15
-12
-8
-5
-3
0
2
6
6
8
11
15
16
18
21
22
26
30
33
38
45
52
58
66
73
80
85
88
92
95
95
95
95
95
95
95
95
95
95
95
93
92
91
88
85
81
75
68
61
53
45
37
30
22
16
11
6
2
-2
-4
-5
-8
-9
-9
-10
-12
-12
-13
-14
-14
-14
-15
-15
-17
-18
-19
-19
-19
-20
-22
-22
-22
-22
-22
-19
-17
-14
-9
-5
-3
2
6
10
13
15
12
8
2
-5
-10
-15
-17
-19
-22
-24
-28
-30
-34
-38
-40
-43
-45
-47
-49
-50
-52
-52
-52
-50
-45
-34
-15
8
36
62
81
87
76
51
16
-24
-62
-95
-120
-135
-140
-139
-132
-119
-104
-89
-75
-63
-54
-47
-40
-37
-33
-30
-28
-25
-24
-22
-19
-17
-14
-13
-10
-9
-8
-5
-4
-3
1
3
6
10
16
22
28
36
42
48
56
61
65
67
70
71
72
73
75
76
77
77
78
80
80
80
80
77
76
72
68
63
57
50
42
33
26
17
10
5
0
-5
-10
-14
-17
-19
-22
-23
-24
-25
-27
-28
-29
-30
-32
-33
-33
-34
-34
-34
-33
-33
-32
-32
-32
-30
-29
-27
-24
-19
-14
-10
-5
-2
3
7
11
15
16
16
13
10
5
0
-3
-5
-5
-8
-9
-12
-15
-19
-24
-27
-32
-33
-35
-37
-37
-38
-38
-38
-37
-33
-25
-8
18
50
83
112
128
127
111
80
41
0
-37
-69
-92
-107
-114
-114
-110
-102
-92
-80
-69
-60
-54
-49
-45
-42
-39
-37
-34
-30
-28
-25
-22
-19
-19
-17
-15
-13
-12
-10
-8
-5
-3
0
2
6
11
16
22
27
33
40
45
48
52
55
58
60
62
65
66
67
68
70
71
70
70
70
68
66
62
57
52
48
45
40
36
30
23
16
7
1
-4
-7
-7
-5
-5
-3
-4
-7
-9
-13
-15
-19
-24
-28
-32
-34
-37
-38
-38
-38
-38
-38
-38
-38
-38
-39
-38
-38
-37
-35
-28
-14
5
33
66
95
115
118
105
76
37
-4
-45
-79
-105
-120
-128
-128
-123
-113
-99
-85
-74
-63
-54
-49
-44
-40
-38
-35
-33
-30
-28
-25
-22
-19
-15
-12
-9
-5
-3
1
6
12
18
25
32
40
47
56
65
71
76
81
86
88
90
91
92
92
92
92
90
88
87
85
82
80
76
71
65
58
51
43
37
28
21
15
8
2
0
-4
-8
-10
-13
-14
-17
-18
-18
-19
-19
-19
-20
-20
-20
-20
-22
-22
-23
-23
-25
-25
-27
-27
-28
-30
-30
-30
-30
-32
-32
-32
-30
-30
-30
-29
-29
-28
-27
-27
-25
-25
-24
-23
-22
-22
-20
-20
-20
-19
-18
-18
-18
-17
-17
-17
-17
-15
-14
-13
-10
-8
-7
-3
0
2
6
10
16
21
25
25
23
18
12
7
2
-2
-5
-8
-10
-14
-17
-20
-23
-25
-27
-28
-28
-28
-29
-29
-29
-29
-29
-29
-29
-25
-17
0
21
50
76
97
103
95
70
33
-9
-50
-84
-109
-123
-130
-130
-124
-114
-102
-88
-73
-60
-50
-42
-35
-30
-28
-24
-20
-18
-14
-12
-10
-9
-7
-5
-4
-3
-2
1
2
6
8
11
15
18
22
26
32
37
45
52
60
66
71
76
80
82
83
85
86
86
86
85
86
86
86
86
87
87
88
88
87
86
82
78
75
68
61
53
46
38
32
25
18
13
8
5
2
0
-3
-4
-5
-8
-10
-13
-15
-18
-19
-22
-24
-27
-28
-30
-32
-33
-32
-30
-29
-25
-23
-19
-15
-12
-8
-3
0
3
3
0
-5
-9
-15
-20
-23
-24
-27
-29
-32
-35
-39
-43
-45
-48
-49
-50
-50
-50
-52
-53
-53
-52
-48
-40
-25
-5
20
47
70
82
80
63
33
-4
-43
-80
-108
-129
-140
-142
-138
-128
-114
-99
-84
-72
-60
-53
-47
-43
-40
-38
-34
-32
-29
-27
-25
-22
-20
-18
-15
-13
-12
-9
-7
-4
-2
1
5
8
12
16
21
28
35
41
48
55
58
62
66
68
70
72
73
75
76
77
78
80
80
80
80
78
76
73
70
65
57
51
45
37
30
22
15
10
3
-2
-7
-12
-14
-15
-18
-20
-22
-23
-24
-24
-24
-25
-25
-25
-28
-28
-28
-29
-29
-30
-30
-30
-30
-29
-29
-27
-24
-22
-17
-12
-5
0
3
8
11
13
16
17
17
13
10
5
1
-3
-5
-7
-8
-10
-14
-18
-23
-27
-29
-33
-34
-35
-37
-37
-38
-39
-39
-37
-30
-18
5
35
67
100
122
130
120
95
60
18
-19
-53
-79
-98
-109
-113
-110
-104
-94
-84
-74
-64
-57
-50
-47
-43
-40
-38
-34
-32
-29
-29
-27
-24
-23
-22
-19
-17
-15
-13
-12
-8
-5
-3
0
3
6
11
18
25
31
38
46
51
55
58
61
63
66
68
70
70
72
73
75
75
75
75
75
72
70
66
61
56
50
42
36
28
21
13
7
2
-3
-7
-10
-13
-14
-17
-18
-19
-20
-22
-22
-23
-23
-23
-23
-23
-24
-24
-25
-25
-27
-27
-27
-28
-28
-27
-25
-24
-20
-17
-12
-7
-2
1
5
8
11
15
16
16
13
8
2
-3
-9
-12
-14
-17
-18
-20
-24
-27
-30
-33
-35
-38
-39
-40
-42
-42
-42
-42
-42
-38
-29
-13
10
42
76
105
122
123
108
76
33
-12
-53
-89
-114
-128
-134
-132
-123
-110
-94
-80
-65
-53
-44
-37
-33
-28
-24
-20
-17
-14
-12
-8
-5
-4
-2
1
3
5
8
10
12
13
16
20
22
27
32
37
43
50
56
62
68
72
75
77
80
80
81
82
82
81
82
83
83
83
82
82
80
78
73
70
65
58
51
45
37
28
21
15
8
3
0
-4
-7
-10
-13
-14
-17
-17
-18
-18
-19
-19
-19
-19
-19
-20
-20
-23
-23
-23
-24
-24
-24
-25
-27
-27
-25
-24
-22
-19
-15
-12
-8
-5
-2
2
6
10
11
10
6
0
-5
-12
-17
-20
-22
-24
-27
-29
-33
-35
-37
-40
-42
-43
-44
-44
-44
-44
-44
-45
-43
-39
-29
-13
10
37
65
85
92
86
61
26
-18
-60
-99
-127
-144
-152
-149
-139
-124
-105
-87
-69
-54
-43
-34
-27
-22
-18
-14
-10
-7
-4
-2
0
2
3
5
6
8
11
12
15
17
20
23
26
30
33
40
46
53
60
66
72
77
81
85
86
87
88
88
88
90
90
88
88
88
88
87
87
85
82
78
73
67
62
57
52
47
41
35
26
16
8
2
0
0
0
0
0
-2
-4
-5
-8
-10
-14
-18
-23
-27
-30
-33
-35
-38
-39
-40
-42
-43
-44
-45
-47
-45
-47
-48
-47
-43
-33
-15
7
32
55
68
68
55
28
-5
-43
-79
-109
-129
-142
-145
-143
-134
-120
-104
-89
-77
-65
-58
-53
-49
-47
-44
-42
-38
-35
-33
-30
-28
-25
-23
-20
-17
-14
-10
-5
-2
2
6
12
18
26
33
40
46
53
58
63
66
70
72
73
75
75
75
76
76
75
75
73
72
70
67
63
60
55
48
41
33
26
18
11
7
1
-4
-7
-10
-14
-17
-18
-19
-19
-20
-22
-20
-22
-23
-23
-24
-24
-25
-25
-25
-27
-27
-27
-28
-28
-28
-28
-28
-27
-27
-27
-25
-24
-24
-23
-23
-22
-22
-20
-20
-19
-18
-18
-17
-15
-15
-14
-14
-13
-13
-13
-12
-12
-12
-10
-9
-10
-8
-8
-5
-3
1
5
5
8
12
16
20
25
27
28
28
25
18
12
8
5
1
-2
-4
-7
-10
-14
-18
-23
-27
-28
-29
-30
-32
-32
-33
-33
-35
-35
-35
-34
-28
-14
8
41
77
112
138
147
138
112
76
35
-3
-35
-63
-83
-95
-104
-107
-103
-97
-88
-78
-68
-60
-54
-49
-45
-43
-40
-38
-35
-32
-29
-27
-25
-23
-20
-19
-17
-15
-14
-13
-10
-8
-5
-3
0
3
7
12
18
25
32
38
46
51
55
58
62
65
66
67
68
70
70
71
72
72
73
73
75
75
73
72
70
66
62
57
51
45
38
31
25
17
12
6
2
-2
-4
-7
-10
-13
-13
-15
-17
-17
-18
-19
-20
-23
-24
-25
-27
-28
-29
-29
-29
-30
-28
-25
-20
-15
-10
-7
-3
1
6
10
12
13
11
6
1
-4
-8
-12
-14
-17
-17
-19
-23
-25
-28
-30
-33
-34
-35
-35
-37
-37
-37
-37
-34
-32
-23
-7
17
48
82
111
127
127
108
75
31
-14
-58
-92
-118
-132
-138
-134
-125
-112
-97
-82
-68
-57
-48
-42
-37
-33
-29
-27
-23
-19
-17
-14
-12
-9
-8
-5
-3
-2
1
3
5
6
8
12
16
20
25
31
38
46
53
61
66
70
75
77
78
80
80
81
81
82
82
82
82
82
81
81
80
76
72
68
63
57
51
43
36
28
21
13
10
3
-2
-4
-7
-10
-12
-14
-14
-15
-17
-17
-18
-18
-19
-19
-19
-19
-20
-20
-22
-22
-23
-25
-25
-27
-27
-27
-27
-25
-24
-20
-15
-10
-7
-4
0
2
6
10
11
10
6
0
-4
-10
-15
-19
-22
-23
-25
-28
-32
-34
-37
-40
-42
-43
-45
-47
-47
-47
-45
-45
-43
-39
-28
-10
11
40
67
88
97
88
65
28
-14
-58
-98
-127
-144
-152
-149
-140
-125
-107
-88
-70
-55
-43
-34
-29
-24
-20
-17
-13
-10
-7
-4
-2
0
2
3
6
8
10
12
13
16
17
20
23
27
32
38
45
51
57
63
71
76
80
82
85
86
86
86
86
86
87
87
87
86
86
85
83
82
78
75
71
66
61
57
52
47
40
32
22
13
5
1
-2
-4
-4
-3
-4
-7
-8
-10
-14
-18
-20
-24
-28
-32
-35
-38
-40
-42
-43
-44
-44
-45
-47
-47
-47
-48
-48
-49
-47
-42
-29
-10
12
38
61
73
72
57
30
-5
-43
-79
-108
-128
-139
-142
-139
-130
-117
-103
-89
-77
-67
-58
-53
-49
-47
-44
-42
-39
-37
-34
-32
-29
-27
-24
-22
-18
-15
-10
-7
-3
2
7
12
18
25
31
38
46
52
57
62
67
71
72
75
76
75
76
76
77
76
76
75
73
72
68
65
60
55
47
40
33
26
20
12
8
2
-3
-8
-10
-14
-17
-18
-19
-19
-20
-20
-22
-22
-22
-23
-24
-25
-25
-25
-25
-27
-27
-28
-28
-28
-28
-29
-29
-29
-28
-28
-28
-27
-24
-23
-23
-20
-19
-18
-18
-18
-17
-15
-15
-14
-13
-12
-12
-10
-9
-9
-8
-8
-7
-7
-7
-7
-5
-4
-3
-2
2
3
6
8
11
15
18
22
26
27
26
22
17
12
7
5
1
-3
-5
-9
-13
-17
-22
-25
-28
-30
-32
-33
-33
-34
-34
-35
-35
-35
-34
-32
-27
-12
11
43
80
115
140
147
136
108
72
31
-8
-40
-68
-87
-100
-108
-109
-105
-98
-88
-78
-68
-59
-54
-48
-44
-42
-38
-35
-33
-30
-28
-25
-24
-22
-20
-19
-17
-15
-14
-12
-10
-8
-7
-4
-2
2
6
11
17
23
30
37
43
50
53
57
60
62
65
65
67
68
70
71
72
72
73
73
73
73
73
72
68
65
61
57
51
45
37
31
25
17
11
6
1
-3
-5
-8
-9
-10
-13
-14
-14
-15
-17
-18
-19
-20
-23
-24
-25
-25
-28
-28
-28
-27
-25
-22
-18
-14
-10
-7
-4
1
5
10
12
12
10
5
-2
-7
-12
-14
-15
-15
-18
-20
-23
-27
-29
-32
-33
-34
-35
-35
-35
-37
-37
-35
-34
-30
-20
-3
22
53
87
113
127
122
101
65
21
-24
-67
-99
-123
-137
-139
-135
-125
-112
-97
-80
-68
-57
-47
-40
-34
-30
-28
-25
-22
-19
-17
-15
-13
-12
-9
-7
-7
-5
-4
-2
2
5
7
11
16
20
26
31
38
46
52
58
65
70
72
76
77
78
80
80
80
81
81
81
81
80
80
78
78
75
72
68
63
57
51
43
36
28
21
15
10
5
0
-3
-7
-9
-12
-13
-14
-15
-15
-17
-17
-17
-18
-18
-18
-18
-18
-19
-20
-20
-22
-23
-24
-25
-27
-27
-27
-24
-22
-18
-14
-10
-7
-4
0
3
7
10
11
8
3
-2
-7
-13
-18
-20
-23
-24
-27
-29
-33
-35
-38
-39
-40
-42
-42
-42
-42
-42
-42
-40
-39
-34
-22
-4
22
50
76
93
98
85
56
17
-27
-69
-105
-132
-145
-148
-144
-133
-117
-98
-80
-63
-50
-40
-33
-28
-23
-19
-17
-13
-9
-7
-3
0
1
3
5
7
8
10
12
13
16
18
21
25
28
33
40
46
53
61
67
72
77
81
83
85
85
86
86
86
86
86
86
86
86
86
85
83
81
77
73
70
65
60
56
51
43
36
26
16
7
0
-4
-7
-5
-5
-7
-7
-8
-10
-13
-15
-19
-23
-28
-30
-34
-38
-40
-42
-44
-44
-45
-47
-47
-48
-48
-48
-48
-49
-48
-45
-38
-23
-2
23
48
68
76
70
51
20
-17
-54
-88
-113
-130
-138
-139
-134
-123
-110
-97
-83
-70
-63
-55
-50
-49
-47
-45
-43
-39
-37
-34
-32
-29
-27
-24
-22
-18
-15
-10
-7
-3
2
6
12
18
26
32
40
48
55
60
65
67
70
71
72
73
75
75
75
76
76
76
75
72
72
68
63
58
52
47
40
31
25
17
11
6
2
-3
-7
-10
-14
-15
-18
-19
-20
-22
-20
-22
-22
-22
-22
-22
-23
-24
-24
-24
-25
-25
-25
-28
-27
-27
-27
-27
-27
-27
-27
-25
-24
-23
-22
-20
-19
-18
-17
-15
-14
-13
-12
-13
-12
-10
-10
-9
-8
-8
-7
-7
-7
-7
-5
-5
-7
-5
-5
-4
-3
0
3
6
7
10
13
17
21
25
25
23
18
13
7
3
0
-3
-5
-8
-12
-14
-18
-22
-24
-27
-29
-32
-33
-33
-34
-34
-34
-34
-33
-34
-30
-20
-4
21
57
95
126
145
146
128
96
56
16
-22
-52
-77
-94
-104
-109
-109
-103
-94
-84
-74
-65
-57
-50
-47
-43
-39
-37
-33
-32
-28
-25
-23
-20
-18
-15
-14
-13
-12
-10
-9
-8
-5
-4
0
1
5
10
15
20
26
32
38
45
48
53
56
58
61
63
65
66
67
68
70
71
72
71
72
72
72
71
68
66
63
58
53
47
41
35
28
22
16
10
6
2
0
-4
-5
-7
-8
-10
-12
-14
-15
-17
-18
-20
-22
-22
-23
-24
-27
-27
-27
-28
-25
-23
-19
-15
-12
-8
-5
-3
2
6
10
11
11
7
1
-5
-8
-12
-15
-18
-19
-20
-23
-25
-28
-30
-33
-34
-35
-37
-38
-38
-38
-37
-38
-35
-28
-15
5
33
65
95
116
122
111
83
45
-2
-44
-83
-113
-130
-139
-139
-133
-122
-107
-90
-75
-62
-52
-43
-38
-33
-29
-25
-24
-20
-18
-15
-13
-10
-9
-8
-5
-3
-2
1
3
6
8
11
15
20
25
30
36
43
51
57
65
70
73
76
78
80
80
80
80
80
81
81
81
80
81
80
80
76
73
70
66
60
53
47
38
31
23
17
11
5
2
-3
-5
-8
-9
-12
-13
-14
-14
-14
-14
-15
-15
-15
-15
-17
-18
-18
-18
-19
-20
-22
-22
-24
-25
-25
-25
-24
-22
-19
-15
-12
-8
-5
-2
2
6
10
12
11
7
1
-5
-9
-14
-18
-20
-23
-25
-28
-30
-33
-35
-37
-40
-40
-42
-43
-43
-43
-43
-42
-42
-38
-28
-13
8
36
65
86
96
92
70
36
-7
-50
-90
-120
-140
-148
-147
-138
-124
-107
-87
-69
-53
-42
-33
-25
-22
-18
-14
-12
-8
-5
-3
-2
1
2
5
6
8
10
12
15
17
20
22
26
28
33
38
46
52
58
65
71
76
80
82
85
86
87
87
87
87
88
88
87
87
87
86
85
82
80
76
71
66
61
55
50
43
36
27
17
8
1
-3
-5
-8
-8
-8
-9
-12
-13
-15
-18
-22
-25
-28
-32
-35
-38
-40
-42
-43
-44
-45
-45
-45
-45
-45
-45
-47
-47
-47
-45
-40
-29
-10
13
40
63
77
77
62
35
2
-37
-72
-100
-120
-133
-137
-135
-127
-115
-102
-88
-77
-67
-59
-54
-52
-48
-45
-44
-42
-39
-37
-34
-32
-29
-27
-23
-20
-18
-14
-10
-5
0
5
10
17
25
32
40
47
53
60
65
68
71
73
75
76
77
77
78
77
77
77
77
75
73
71
67
62
56
51
43
36
30
21
13
7
3
-2
-7
-10
-12
-15
-17
-19
-20
-22
-22
-23
-23
-24
-23
-24
-24
-24
-27
-27
-27
-28
-28
-28
-29
-29
-28
-28
-28
-27
-27
-25
-24
-23
-22
-20
-19
-18
-17
-15
-14
-13
-12
-10
-10
-9
-9
-8
-8
-7
-7
-5
-5
-5
-7
-7
-7
-7
-5
-5
-4
-2
1
3
6
8
12
16
20
22
23
21
17
12
7
3
-2
-4
-7
-9
-13
-15
-18
-23
-25
-28
-29
-30
-32
-32
-33
-33
-34
-35
-35
-34
-32
-24
-9
15
48
85
118
140
145
130
101
61
20
-18
-50
-75
-93
-105
-110
-110
-104
-97
-85
-74
-64
-55
-48
-44
-39
-37
-34
-32
-29
-25
-23
-20
-18
-15
-15
-14
-13
-13
-10
-9
-8
-7
-5
-3
0
3
7
13
20
26
32
38
45
50
53
57
60
63
65
67
68
68
70
71
71
72
72
73
73
73
72
70
68
65
61
57
51
45
38
32
26
20
13
8
3
0
-3
-5
-7
-8
-10
-12
-14
-15
-17
-17
-19
-20
-22
-24
-25
-27
-27
-29
-28
-27
-25
-22
-19
-15
-9
-5
-3
2
6
10
11
11
7
2
-3
-8
-12
-14
-17
-19
-19
-22
-24
-28
-30
-32
-34
-34
-35
-35
-37
-37
-37
-35
-33
-28
-17
3
32
63
95
116
125
115
88
48
2
-40
-80
-109
-128
-138
-138
-132
-122
-107
-90
-74
-62
-50
-43
-38
-33
-30
-27
-24
-22
-19
-14
-12
-9
-8
-5
-4
-4
0
1
2
5
7
10
12
17
21
27
33
40
47
53
61
66
70
73
75
77
78
77
77
77
76
77
77
77
77
77
76
75
72
68
65
60
53
47
40
32
25
18
12
6
1
-3
-5
-9
-12
-13
-14
-15
-15
-18
-19
-20
-22
-23
-23
-25
-24
-23
-22
-19
-17
-15
-17
-17
-20
-22
-22
-19
-17
-13
-12
-10
-12
-14
-17
-19
-23
-27
-30
-33
-35
-37
-38
-38
-38
-37
-35
-34
-33
-33
-33
-33
-33
-29
-20
-5
15
42
70
90
98
90
65
28
-15
-59
-98
-125
-143
-149
-148
-139
-124
-107
-88
-72
-58
-47
-39
-33
-28
-25
-22
-18
-14
-9
-3
1
7
11
13
13
13
13
15
18
23
30
37
43
48
53
58
65
71
76
78
81
82
81
80
78
77
77
77
77
77
76
76
76
75
73
71
68
66
61
55
48
41
32
23
16
7
1
-4
-9
-12
-14
-15
-17
-18
-20
-23
-25
-27
-28
-28
-27
-22
-12
2
22
45
67
86
96
92
77
51
18
-20
-57
-92
-119
-138
-149
-154
-152
-143
-130
-115
-99
-85
-74
-65
-60
-58
-55
-53
-50
-47
-43
-38
-33
-28
-23
-17
-13
-8
-3
1
5
10
16
23
31
40
47
55
58
62
65
65
66
70
71
72
72
71
68
66
62
58
55
48
43
37
31
23
17
11
6
1
-5
-12
-17
-22
-25
-27
-29
-32
-34
-35
-37
-37
-37
-38
-38
-37
-37
-35
-35
-33
-32
-32
-30
-29
-29
-28
-25
-23
-22
-18
-14
-10
-7
-3
3
8
13
17
20
20
17
12
8
6
2
0
-4
-7
-10
-15
-19
-23
-27
-28
-30
-33
-34
-34
-35
-35
-34
-34
-33
-33
-33
-33
-32
-30
-23
-9
15
47
86
120
143
151
142
116
81
41
3
-29
-57
-77
-90
-98
-99
-95
-89
-80
-72
-63
-57
-50
-45
-43
-39
-37
-34
-32
-30
-28
-25
-24
-22
-22
-19
-18
-17
-14
-13
-10
-8
-5
-2
2
7
12
18
25
31
37
42
46
50
52
55
56
58
60
61
63
65
65
66
67
67
67
66
63
60
57
55
53
51
46
42
37
32
26
22
20
18
17
16
15
11
6
1
-3
-8
-12
-17
-20
-24
-29
-33
-35
-39
-40
-44
-44
-45
-47
-47
-47
-48
-47
-47
-45
-44
-43
-42
-40
-40
-39
-35
-25
-9
13
43
73
95
105
98
78
46
8
-28
-59
-83
-99
-108
-112
-108
-102
-92
-79
-67
-53
-43
-34
-28
-24
-23
-22
-20
-18
-17
-15
-14
-13
-13
-12
-12
-10
-9
-8
-5
-3
2
7
13
20
27
35
40
47
53
57
62
65
67
71
73
76
77
78
80
80
78
78
78
77
76
75
71
67
62
57
48
40
30
21
12
5
0
-4
-8
-10
-14
-17
-19
-20
-23
-25
-28
-29
-30
-32
-33
-33
-34
-34
-35
-37
-35
-32
-24
-8
17
46
73
92
98
90
65
30
-12
-53
-90
-120
-139
-150
-155
-152
-143
-128
-110
-92
-74
-58
-45
-33
-23
-15
-10
-7
-3
0
2
3
6
7
8
10
10
8
8
7
8
12
17
23
30
36
43
50
55
58
62
65
66
67
68
68
70
68
67
67
65
63
61
57
52
47
41
35
28
20
12
3
-3
-9
-13
-18
-23
-25
-28
-28
-29
-30
-32
-33
-32
-32
-32
-29
-29
-28
-25
-24
-23
-20
-14
-4
12
38
68
97
118
127
121
98
63
22
-18
-57
-89
-113
-130
-139
-139
-133
-123
-108
-93
-78
-65
-55
-48
-43
-40
-37
-35
-32
-29
-27
-23
-20
-15
-12
-8
-4
-2
3
8
13
21
28
37
45
53
62
68
73
80
83
87
88
91
92
91
92
91
90
87
85
81
77
72
67
62
56
48
41
33
26
18
12
6
2
-2
-5
-9
-12
-13
-15
-17
-18
-19
-19
-20
-20
-20
-20
-20
-20
-19
-20
-20
-20
-22
-23
-23
-24
-25
-27
-28
-28
-28
-28
-29
-29
-29
-29
-28
-28
-27
-25
-25
-24
-24
-23
-20
-18
-17
-14
-13
-10
-7
-2
2
5
5
5
1
-4
-8
-10
-14
-15
-18
-20
-23
-27
-29
-32
-34
-37
-38
-39
-40
-40
-39
-39
-38
-37
-37
-35
-35
-34
-28
-14
6
32
62
88
105
107
93
66
31
-4
-38
-65
-87
-99
-108
-109
-104
-97
-85
-74
-62
-52
-44
-38
-35
-32
-29
-27
-24
-22
-19
-18
-18
-17
-17
-17
-17
-15
-15
-14
-12
-12
-9
-7
-4
1
5
8
16
23
31
38
45
51
56
61
62
66
68
71
71
73
75
76
77
80
81
81
80
77
76
72
67
62
56
51
46
41
36
30
23
15
7
0
-4
-7
-7
-5
-5
-5
-7
-9
-12
-14
-17
-19
-23
-27
-30
-32
-33
-34
-34
-33
-32
-32
-30
-30
-29
-29
-30
-32
-33
-33
-32
-24
-10
12
43
75
102
118
117
102
73
38
0
-34
-63
-84
-99
-109
-112
-110
-105
-97
-87
-77
-68
-60
-54
-52
-47
-44
-40
-37
-34
-30
-28
-24
-22
-18
-15
-12
-9
-5
-3
0
3
8
13
20
27
35
43
51
57
63
67
71
75
76
77
78
78
78
80
80
77
77
76
75
72
70
66
60
53
46
38
30
23
15
8
2
-3
-8
-12
-15
-19
-20
-22
-23
-24
-25
-25
-25
-27
-28
-28
-28
-28
-29
-29
-29
-29
-32
-32
-32
-32
-33
-33
-32
-32
-32
-30
-30
-29
-28
-27
-25
-23
-22
-20
-18
-17
-17
-17
-15
-14
-14
-13
-13
-13
-13
-13
-12
-12
-10
-9
-8
-8
-7
-4
-4
-2
0
2
5
8
12
16
21
23
25
22
17
12
6
1
-3
-5
-8
-12
-14
-18
-20
-23
-25
-28
-29
-30
-30
-30
-32
-32
-32
-32
-30
-30
-25
-15
2
28
61
93
118
128
121
95
58
15
-27
-62
-89
-107
-114
-118
-115
-107
-97
-83
-70
-58
-47
-39
-33
-30
-27
-23
-22
-19
-18
-15
-13
-12
-10
-8
-7
-7
-5
-3
-2
0
1
3
6
10
13
18
25
31
37
46
52
58
63
68
72
75
77
80
81
81
81
82
82
82
82
83
82
83
82
82
80
77
73
68
63
56
50
42
35
28
21
16
11
6
2
0
-4
-5
-7
-8
-10
-12
-13
-14
-15
-17
-18
-20
-23
-25
-27
-28
-29
-29
-30
-30
-28
-25
-22
-18
-13
-9
-7
-3
1
6
8
8
5
0
-5
-9
-14
-18
-22
-22
-24
-28
-30
-33
-37
-38
-40
-42
-42
-43
-44
-44
-44
-44
-42
-37
-25
-9
13
41
68
90
100
93
70
35
-8
-53
-92
-123
-142
-150
-150
-142
-128
-110
-90
-73
-58
-45
-37
-30
-27
-23
-20
-17
-14
-10
-8
-5
-4
-3
0
1
2
3
7
8
11
13
17
20
25
28
35
41
48
55
62
68
75
78
82
85
87
88
88
90
88
88
90
90
88
88
88
88
87
83
81
76
70
63
56
50
41
32
25
17
10
3
-2
-7
-10
-13
-17
-19
-20
-23
-23
-24
-27
-28
-30
-33
-34
-35
-34
-33
-30
-28
-27
-27
-28
-30
-32
-30
-28
-24
-22
-19
-18
-17
-18
-20
-23
-25
-28
-30
-34
-37
-38
-40
-40
-39
-38
-38
-35
-34
-33
-33
-34
-35
-37
-35
-28
-15
6
35
62
85
95
90
68
36
-2
-40
-73
-100
-118
-129
-132
-129
-122
-112
-99
-87
-75
-68
-60
-55
-52
-49
-45
-40
-35
-29
-23
-17
-13
-10
-9
-9
-9
-8
-5
0
5
10
15
20
25
28
33
38
43
50
53
56
58
60
61
62
63
63
65
66
66
67
68
68
68
68
67
65
62
57
52
46
38
32
25
17
10
3
-3
-8
-12
-14
-17
-18
-19
-20
-23
-25
-27
-28
-28
-27
-23
-17
-7
8
30
57
85
106
120
120
106
82
50
15
-17
-48
-73
-92
-105
-112
-113
-108
-102
-93
-84
-75
-69
-65
-63
-58
-55
-53
-49
-45
-39
-34
-28
-23
-18
-13
-9
-5
-3
1
3
8
16
22
32
41
51
58
65
68
71
73
76
77
77
77
75
72
67
63
58
55
51
46
42
36
31
25
18
11
5
0
-5
-10
-15
-20
-24
-28
-30
-33
-34
-35
-35
-37
-35
-35
-35
-35
-35
-35
-35
-35
-35
-35
-35
-35
-37
-35
-35
-34
-33
-30
-28
-25
-23
-22
-19
-17
-13
-9
-7
-5
-5
-8
-12
-15
-18
-22
-24
-28
-29
-32
-32
-32
-32
-32
-32
-30
-30
-29
-27
-20
-8
11
42
80
118
148
165
161
138
102
57
12
-28
-62
-88
-104
-114
-115
-112
-102
-90
-78
-65
-55
-47
-40
-35
-32
-28
-27
-23
-20
-17
-15
-13
-10
-8
-7
-5
-3
-2
0
2
5
8
12
17
22
28
36
42
48
55
60
65
67
70
71
72
72
73
75
75
75
73
73
73
72
72
70
66
62
58
52
47
40
32
26
20
13
7
2
-2
-5
-8
-12
-14
-15
-15
-14
-13
-9
-9
-10
-12
-15
-17
-18
-17
-15
-13
-12
-10
-12
-13
-15
-17
-19
-23
-25
-28
-29
-33
-33
-33
-33
-33
-33
-32
-32
-33
-33
-34
-33
-34
-35
-34
-27
-13
6
31
57
78
90
85
66
33
-7
-49
-87
-115
-134
-142
-142
-133
-120
-105
-89
-73
-63
-53
-48
-43
-38
-34
-29
-23
-18
-14
-10
-8
-5
-2
1
5
8
11
12
13
16
17
21
23
28
33
38
45
52
57
62
67
70
72
75
75
76
77
78
80
80
81
82
82
82
81
78
75
70
65
57
50
41
35
28
22
15
8
2
-4
-8
-13
-15
-17
-17
-14
-14
-14
-14
-15
-17
-18
-20
-22
-24
-25
-25
-25
-23
-14
1
23
50
73
91
96
85
58
22
-22
-65
-103
-134
-154
-165
-168
-163
-152
-135
-117
-98
-83
-69
-58
-49
-43
-37
-29
-18
-9
0
7
13
17
21
25
27
31
33
35
37
37
40
41
43
47
52
57
62
66
68
71
72
72
72
71
71
70
68
67
65
63
60
57
53
48
42
36
28
20
12
3
-3
-9
-17
-23
-28
-30
-34
-37
-39
-40
-42
-42
-40
-40
-39
-38
-35
-33
-28
-18
0
22
50
76
95
102
95
76
46
11
-22
-54
-83
-105
-122
-132
-135
-133
-125
-115
-103
-90
-79
-69
-62
-57
-52
-49
-47
-44
-42
-39
-35
-32
-29
-24
-19
-15
-10
-4
5
12
22
33
45
52
61
70
77
83
86
87
86
83
80
76
72
67
62
57
51
45
40
33
28
22
17
11
5
-2
-8
-13
-18
-23
-28
-32
-34
-37
-38
-39
-40
-40
-40
-39
-38
-38
-37
-35
-35
-37
-35
-32
-23
-7
16
45
75
98
112
112
100
77
45
12
-19
-48
-70
-88
-100
-107
-108
-104
-97
-87
-77
-68
-59
-53
-47
-43
-39
-35
-33
-30
-28
-24
-23
-20
-18
-15
-13
-9
-5
-2
2
7
11
18
26
33
41
46
52
57
62
66
68
71
72
73
76
76
77
77
76
75
72
70
65
58
52
45
37
30
22
16
8
3
-3
-9
-13
-18
-20
-23
-25
-28
-30
-32
-33
-34
-34
-33
-32
-29
-25
-24
-24
-25
-28
-29
-30
-29
-28
-25
-23
-23
-23
-24
-25
-27
-28
-30
-32
-32
-33
-33
-34
-33
-30
-30
-29
-27
-25
-25
-24
-24
-23
-23
-24
-23
-20
-13
1
23
53
86
113
131
132
116
85
45
2
-37
-68
-93
-109
-119
-123
-122
-114
-104
-92
-80
-68
-58
-48
-40
-33
-29
-25
-23
-22
-23
-20
-18
-13
-8
-3
2
6
10
12
13
16
18
21
25
27
31
36
40
45
50
56
60
63
66
68
70
70
70
71
70
70
68
67
66
63
61
58
53
48
43
36
30
22
16
11
7
3
2
1
-2
-5
-8
-12
-14
-15
-15
-14
-12
-9
-8
-7
-7
-8
-9
-10
-10
-8
0
13
35
61
86
106
115
110
88
57
16
-27
-68
-102
-128
-147
-155
-157
-153
-142
-127
-110
-94
-80
-69
-60
-53
-45
-40
-34
-28
-22
-17
-13
-10
-9
-7
-4
0
6
13
21
27
35
40
46
52
61
68
75
81
85
87
87
87
85
83
82
80
77
75
72
70
66
62
58
53
47
40
32
25
18
11
3
-3
-8
-13
-18
-22
-24
-25
-28
-29
-29
-30
-30
-30
-29
-29
-29
-30
-30
-30
-30
-29
-27
-24
-20
-17
-13
-9
-7
-5
-3
-2
0
1
2
1
-2
-4
-9
-13
-18
-22
-24
-27
-29
-32
-33
-33
-34
-34
-35
-35
-35
-34
-34
-32
-27
-15
3
30
62
92
115
123
113
87
47
1
-42
-80
-110
-130
-139
-140
-135
-125
-110
-93
-77
-63
-52
-42
-35
-30
-27
-23
-20
-19
-15
-13
-9
-7
-4
-2
0
2
3
6
10
12
16
20
26
31
37
45
52
58
66
72
77
81
83
85
86
86
87
87
87
87
88
87
87
86
85
81
77
73
67
61
55
47
40
32
25
17
13
7
3
1
-2
-4
-5
-8
-8
-9
-12
-12
-12
-13
-14
-15
-17
-18
-20
-22
-23
-24
-25
-27
-28
-28
-29
-30
-30
-30
-29
-27
-24
-19
-14
-9
-4
2
6
11
11
10
6
0
-5
-9
-14
-18
-20
-22
-24
-28
-30
-33
-35
-39
-40
-43
-44
-45
-47
-47
-48
-49
-49
-49
-48
-44
-34
-19
5
30
55
72
76
66
43
10
-27
-64
-94
-117
-132
-137
-134
-128
-115
-103
-89
-75
-63
-54
-47
-40
-37
-33
-32
-29
-27
-24
-22
-20
-18
-17
-15
-14
-12
-10
-8
-7
-4
-2
2
6
8
16
22
30
37
46
53
61
66
71
75
77
78
80
80
81
82
83
85
86
86
86
86
86
82
81
77
72
66
60
52
43
35
26
18
11
5
0
-5
-9
-13
-15
-18
-19
-20
-22
-23
-23
-24
-24
-24
-24
-24
-24
-25
-25
-25
-25
-25
-25
-25
-24
-23
-20
-19
-15
-12
-7
-2
1
3
7
11
13
17
20
20
17
12
8
3
0
-4
-7
-9
-12
-15
-19
-24
-28
-33
-35
-38
-39
-40
-42
-43
-43
-43
-43
-42
-37
-25
-7
20
53
86
110
123
120
98
65
23
-17
-53
-83
-102
-114
-119
-117
-110
-100
-88
-77
-67
-58
-52
-45
-42
-39
-35
-32
-29
-25
-23
-20
-17
-15
-13
-12
-10
-9
-8
-7
-4
-3
0
2
6
10
15
20
26
33
41
47
52
57
61
65
67
68
70
72
73
75
75
76
77
76
76
75
73
71
67
63
58
52
45
37
31
23
16
8
3
-2
-5
-8
-12
-13
-15
-17
-17
-17
-18
-18
-19
-20
-22
-23
-25
-25
-27
-27
-24
-22
-18
-17
-15
-17
-18
-19
-19
-18
-14
-10
-7
-5
-4
-7
-8
-12
-14
-18
-20
-23
-25
-27
-28
-28
-28
-28
-25
-25
-25
-25
-27
-27
-28
-28
-27
-18
-2
22
52
83
107
118
112
88
51
7
-35
-73
-103
-123
-133
-134
-129
-119
-105
-89
-74
-63
-52
-43
-38
-33
-30
-28
-24
-22
-18
-13
-9
-3
3
10
13
16
16
16
16
18
22
28
36
43
51
58
66
71
76
80
82
83
82
81
78
76
75
73
71
70
70
70
70
68
67
66
63
60
56
50
45
37
30
21
13
6
-2
-9
-13
-18
-23
-25
-28
-30
-32
-33
-32
-32
-32
-30
-27
-20
-8
8
31
55
73
85
83
70
45
10
-30
-70
-104
-133
-153
-162
-164
-159
-147
-130
-113
-93
-75
-62
-50
-42
-37
-34
-32
-29
-28
-25
-22
-19
-17
-14
-9
-5
-2
3
10
16
23
28
36
45
52
58
66
72
77
81
85
86
86
87
86
85
83
81
80
77
75
71
67
63
57
51
43
36
30
23
16
10
5
0
-4
-7
-9
-12
-14
-15
-18
-19
-20
-22
-20
-20
-20
-19
-19
-17
-15
-15
-15
-14
-14
-14
-13
-13
-13
-14
-14
-14
-13
-13
-14
-14
-14
-14
-14
-14
-14
-14
-15
-15
-15
-15
-15
-17
-17
-17
-19
-19
-18
-18
-18
-17
-15
-15
-15
-15
-15
-14
-14
-14
-14
-15
-17
-17
-17
-17
-17
-17
-17
-15
-15
-15
-14
-14
-14
-14
-14
-13
-13
-13
-12
-9
-8
-5
-4
-2
1
5
8
13
16
17
16
13
10
7
3
1
0
-2
-5
-8
-12
-15
-19
-22
-23
-24
-27
-27
-28
-28
-29
-29
-29
-29
-30
-30
-29
-27
-17
0
23
56
88
113
127
122
103
73
37
3
-25
-49
-67
-79
-85
-89
-90
-87
-83
-75
-67
-59
-53
-47
-44
-40
-38
-35
-33
-32
-30
-29
-29
-27
-27
-25
-24
-24
-23
-22
-19
-18
-17
-14
-13
-9
-7
-2
2
7
12
20
26
32
37
42
47
52
56
58
61
62
65
66
68
70
73
77
80
85
87
90
90
86
80
73
67
61
56
51
47
40
32
23
16
7
0
-5
-12
-18
-23
-28
-30
-33
-34
-35
-35
-35
-35
-35
-37
-35
-35
-34
-34
-34
-34
-32
-25
-12
8
37
68
93
108
110
96
70
37
3
-27
-54
-74
-89
-100
-105
-104
-99
-92
-83
-73
-65
-58
-52
-48
-44
-42
-39
-37
-34
-32
-29
-25
-23
-20
-17
-14
-10
-8
-4
-2
2
7
13
20
28
36
43
51
57
63
67
71
73
75
76
77
78
80
80
80
77
77
75
72
70
65
60
55
47
40
32
23
15
7
0
-5
-10
-14
-18
-20
-24
-27
-27
-29
-29
-29
-30
-30
-30
-30
-30
-30
-32
-32
-32
-30
-32
-32
-32
-32
-33
-34
-34
-34
-33
-34
-33
-33
-32
-30
-28
-27
-25
-24
-23
-22
-20
-19
-18
-17
-15
-14
-13
-13
-12
-12
-12
-12
-12
-10
-10
-9
-9
-9
-9
-9
-9
-9
-9
-9
-9
-9
-8
-7
-5
-3
0
2
5
8
12
17
22
25
26
23
18
12
6
2
0
-3
-5
-8
-12
-15
-18
-20
-23
-24
-25
-27
-27
-27
-28
-28
-28
-28
-28
-27
-24
-17
-2
22
55
87
117
135
133
115
83
41
-2
-39
-68
-89
-103
-110
-110
-107
-99
-88
-77
-65
-54
-44
-38
-33
-29
-27
-24
-22
-19
-18
-17
-14
-13
-12
-10
-9
-9
-8
-7
-7
-5
-3
-2
2
5
10
15
21
28
36
43
50
56
62
67
70
72
75
77
78
78
80
80
80
81
82
81
82
83
83
83
82
80
76
71
66
58
52
45
37
30
23
16
11
6
1
-3
-7
-8
-10
-12
-13
-15
-17
-19
-20
-23
-24
-27
-28
-29
-30
-32
-30
-28
-25
-22
-17
-13
-9
-5
-2
2
6
7
6
2
-3
-9
-14
-19
-22
-23
-24
-27
-29
-30
-33
-35
-38
-39
-40
-40
-40
-40
-40
-42
-40
-38
-32
-20
-3
23
52
78
96
98
86
58
20
-24
-67
-104
-132
-147
-152
-149
-139
-124
-107
-88
-70
-55
-44
-35
-29
-24
-20
-18
-14
-12
-10
-8
-5
-4
-3
-2
1
2
5
6
8
11
12
15
20
23
28
35
42
50
57
65
71
76
81
83
86
88
90
90
90
90
91
91
91
91
91
90
88
86
81
77
72
66
60
52
43
37
28
21
13
7
1
-2
-5
-9
-12
-14
-15
-18
-20
-22
-22
-24
-25
-25
-27
-28
-30
-30
-32
-33
-34
-35
-35
-37
-38
-38
-37
-35
-33
-29
-24
-20
-15
-12
-8
-4
1
5
6
7
6
3
0
-7
-12
-14
-17
-19
-22
-24
-28
-30
-34
-38
-42
-43
-47
-48
-49
-50
-52
-53
-53
-52
-49
-39
-22
1
30
58
81
91
86
66
35
-3
-40
-74
-100
-119
-129
-130
-127
-118
-105
-92
-79
-69
-59
-52
-45
-42
-38
-34
-30
-28
-24
-20
-18
-17
-15
-13
-12
-10
-8
-8
-5
-4
-2
1
3
5
10
15
21
27
35
41
47
52
57
62
66
68
72
73
75
76
77
78
80
80
80
80
78
77
76
72
67
61
56
51
46
40
35
27
20
11
3
-2
-5
-7
-7
-5
-5
-5
-7
-8
-10
-13
-17
-19
-23
-25
-28
-30
-32
-32
-32
-32
-32
-30
-30
-29
-29
-28
-28
-28
-28
-27
-20
-8
15
46
80
110
127
130
116
87
51
13
-22
-52
-75
-92
-103
-107
-107
-102
-93
-84
-74
-67
-59
-53
-49
-47
-44
-42
-39
-37
-34
-32
-29
-27
-24
-22
-18
-15
-12
-8
-4
-2
3
10
16
22
30
38
47
53
60
65
70
72
76
77
80
81
81
81
82
81
80
77
75
72
68
63
57
51
43
36
27
21
13
6
2
-4
-9
-14
-18
-19
-22
-24
-25
-27
-27
-28
-29
-29
-28
-29
-29
-29
-29
-30
-30
-33
-33
-34
-34
-35
-35
-35
-34
-34
-33
-32
-32
-30
-29
-28
-27
-25
-24
-23
-20
-19
-17
-15
-14
-15
-15
-14
-14
-13
-13
-12
-12
-10
-10
-12
-10
-10
-9
-9
-7
-5
-3
0
1
3
7
10
13
18
22
25
23
21
15
8
3
0
-3
-5
-8
-10
-13
-17
-19
-23
-24
-27
-28
-28
-29
-29
-29
-29
-28
-29
-28
-25
-19
-7
15
43
76
103
122
123
108
76
35
-9
-47
-79
-100
-113
-118
-118
-112
-103
-90
-77
-65
-54
-44
-37
-33
-28
-24
-22
-18
-17
-14
-13
-10
-8
-7
-5
-3
-3
-2
0
2
3
6
10
12
17
21
26
32
38
45
52
58
65
70
73
76
77
78
80
80
80
80
80
81
81
81
81
82
81
80
80
77
75
70
65
60
55
47
40
33
26
20
15
8
3
0
-4
-5
-8
-9
-12
-13
-14
-15
-17
-18
-20
-22
-23
-25
-27
-30
-32
-32
-32
-30
-28
-24
-20
-17
-13
-10
-8
-2
2
6
8
8
5
1
-4
-9
-13
-17
-19
-22
-24
-28
-29
-32
-34
-37
-38
-39
-42
-42
-43
-43
-43
-42
-40
-37
-25
-9
13
41
68
88
97
88
66
30
-13
-58
-97
-127
-144
-152
-150
-142
-127
-109
-92
-73
-58
-45
-37
-29
-25
-22
-18
-15
-13
-9
-7
-5
-4
-3
0
2
3
7
8
10
12
16
18
22
26
33
38
46
53
61
67
72
77
82
86
88
90
91
91
91
91
91
91
91
90
90
88
88
86
83
80
73
67
61
53
45
36
27
18
11
5
0
-5
-10
-14
-17
-19
-22
-23
-25
-25
-27
-27
-28
-29
-29
-30
-32
-32
-33
-34
-34
-35
-37
-38
-39
-39
-38
-37
-33
-29
-25
-20
-17
-10
-7
-3
1
5
6
8
6
3
-2
-7
-12
-15
-18
-19
-20
-23
-27
-30
-35
-39
-42
-44
-47
-48
-49
-52
-52
-52
-53
-50
-45
-34
-15
8
37
65
83
88
78
55
21
-14
-52
-83
-107
-123
-129
-128
-123
-112
-100
-87
-74
-63
-54
-48
-43
-39
-37
-33
-32
-28
-25
-20
-18
-15
-13
-12
-9
-7
-5
-3
0
2
5
7
8
12
17
22
28
35
43
50
56
61
66
68
72
73
75
77
78
80
80
81
82
82
83
83
82
80
77
73
68
63
57
50
42
33
26
18
11
5
1
-4
-7
-10
-13
-15
-17
-19
-20
-22
-22
-23
-24
-24
-25
-28
-29
-29
-30
-29
-25
-23
-20
-19
-19
-20
-20
-19
-15
-10
-5
-2
0
-2
-5
-8
-12
-15
-19
-23
-25
-28
-28
-28
-27
-27
-27
-24
-24
-24
-24
-24
-25
-27
-28
-24
-15
2
30
62
96
123
136
130
107
72
32
-8
-43
-70
-90
-103
-109
-110
-105
-97
-87
-75
-65
-58
-52
-45
-42
-38
-35
-32
-29
-25
-20
-15
-9
-3
0
3
5
3
2
3
6
11
16
23
31
37
45
50
55
58
60
62
62
62
61
60
60
60
60
60
61
61
62
62
63
63
63
61
58
56
51
45
38
30
22
15
7
1
-4
-10
-15
-19
-22
-24
-25
-27
-28
-28
-28
-27
-24
-20
-12
-2
13
28
36
35
18
-8
-45
-88
-132
-170
-204
-229
-249
-259
-260
-254
-242
-223
-202
-178
-154
-128
-100
-75
-52
-32
-15
-4
5
11
15
20
23
27
32
38
43
48
55
61
68
76
85
93
103
112
120
128
136
143
148
152
156
157
157
157
155
153
150
147
143
138
132
126
117
108
98
87
77
67
56
46
37
28
21
12
5
-2
-8
-12
-15
-18
-20
-22
-23
-23
-24
-23
-24
-23
-23
-23
-23
-23
-24
-24
-25
-25
-27
-27
-28
-27
-27
-27
-27
-27
-28
-28
-27
-27
-27
-27
-27
-27
-28
-28
-28
-28
-28
-28
-29
-29
-29
-29
-29
-29
-28
-28
-28
-28
-28
-28
-28
-28
-28
-28
-28
-28
-27
-27
-25
-25
-24
-24
-23
-23
-22
-22
-20
-20
-19
-18
-15
-14
-12
-10
-8
-4
0
5
10
12
13
11
7
2
0
-3
-4
-5
-8
-9
-12
-14
-17
-18
-19
-19
-19
-20
-20
-20
-20
-20
-20
-20
-20
-20
-19
-19
-12
1
20
48
80
107
125
126
110
77
37
-3
-40
-69
-88
-99
-104
-105
-103
-97
-88
-77
-64
-54
-44
-35
-29
-25
-22
-19
-18
-15
-13
-12
-10
-8
-7
-4
-4
-3
-2
0
0
2
3
6
7
11
15
20
25
32
38
45
51
57
62
66
70
72
72
73
73
75
75
75
75
76
78
82
87
91
93
95
93
90
83
77
71
66
61
57
51
45
37
28
22
13
6
-2
-7
-13
-19
-25
-29
-33
-37
-39
-42
-43
-45
-47
-49
-49
-50
-52
-52
-53
-54
-53
-47
-33
-13
10
35
53
61
56
37
8
-25
-60
-90
-114
-130
-139
-140
-137
-127
-114
-99
-85
-73
-63
-54
-50
-45
-42
-39
-37
-35
-33
-30
-27
-24
-22
-19
-15
-13
-9
-5
-2
2
7
12
18
25
31
37
45
51
57
62
66
70
72
73
73
75
75
73
73
73
73
72
71
70
66
62
57
51
45
38
31
23
16
11
5
1
-4
-8
-12
-15
-17
-19
-20
-20
-22
-23
-22
-23
-24
-23
-24
-24
-24
-23
-24
-24
-24
-24
-24
-25
-25
-25
-25
-25
-27
-25
-25
-24
-24
-23
-22
-19
-19
-17
-15
-15
-14
-14
-13
-13
-12
-10
-10
-9
-8
-7
-5
-5
-4
-4
-3
-4
-4
-3
-3
-3
-4
-4
-4
-4
-5
-4
-3
-2
1
3
5
7
11
15
18
22
25
23
20
15
8
5
0
-3
-5
-8
-12
-14
-18
-22
-25
-28
-29
-30
-32
-32
-33
-33
-33
-33
-33
-34
-34
-32
-24
-8
16
50
88
125
147
153
138
110
70
30
-9
-43
-67
-87
-99
-105
-107
-103
-95
-85
-74
-64
-57
-49
-45
-42
-39
-37
-33
-32
-29
-27
-25
-23
-22
-20
-19
-18
-18
-17
-15
-14
-13
-10
-9
-5
-3
0
5
10
16
22
30
36
41
46
51
55
57
61
63
65
67
67
70
70
72
73
75
75
76
76
75
73
70
66
62
56
50
43
36
30
22
16
11
6
2
-2
-4
-5
-9
-12
-13
-15
-17
-18
-19
-20
-23
-25
-27
-28
-29
-29
-27
-25
-23
-19
-15
-12
-8
-5
0
5
8
11
10
7
2
-4
-8
-12
-15
-17
-19
-19
-22
-24
-27
-30
-32
-33
-35
-37
-38
-38
-39
-39
-39
-37
-32
-20
-2
26
58
90
113
123
116
92
55
8
-35
-75
-105
-127
-137
-139
-134
-123
-109
-93
-78
-64
-53
-44
-38
-33
-29
-25
-23
-19
-15
-13
-9
-8
-7
-4
-2
0
2
3
5
7
8
11
13
17
23
28
35
41
47
55
61
66
71
76
77
78
80
80
81
80
81
81
80
80
80
80
78
77
75
71
67
61
55
50
42
33
26
18
11
5
0
-4
-7
-10
-12
-14
-17
-18
-19
-20
-22
-22
-24
-25
-27
-28
-28
-27
-24
-22
-19
-18
-18
-19
-22
-24
-24
-23
-19
-15
-13
-13
-13
-14
-17
-19
-22
-24
-28
-30
-33
-34
-35
-34
-35
-34
-33
-33
-32
-32
-29
-29
-29
-28
-27
-18
-2
21
50
77
97
105
93
67
27
-17
-60
-98
-124
-139
-145
-144
-135
-120
-104
-85
-68
-54
-42
-33
-27
-23
-19
-17
-13
-10
-7
-2
3
10
15
18
20
17
17
17
18
23
28
36
42
50
56
62
67
73
78
81
85
86
86
85
83
82
81
80
80
80
80
81
81
80
80
77
76
72
68
63
57
50
41
32
23
15
7
0
-5
-9
-13
-14
-14
-14
-14
-15
-17
-19
-20
-22
-22
-18
-8
6
22
36
42
36
16
-14
-53
-93
-130
-167
-198
-225
-247
-258
-258
-252
-239
-222
-202
-180
-159
-137
-114
-92
-70
-53
-38
-27
-18
-12
-8
-3
0
6
12
18
27
35
43
51
58
66
72
80
88
97
107
117
126
133
138
141
142
141
141
140
140
137
135
131
126
118
111
102
92
82
71
61
51
40
30
20
11
2
-4
-12
-17
-23
-28
-33
-38
-42
-42
-43
-43
-40
-39
-38
-37
-37
-38
-39
-40
-39
-37
-34
-32
-29
-27
-25
-25
-27
-27
-28
-27
-27
-23
-14
2
23
51
77
97
107
103
86
58
25
-8
-43
-70
-94
-110
-118
-120
-118
-110
-102
-93
-84
-77
-70
-65
-60
-58
-55
-53
-50
-48
-45
-43
-40
-37
-34
-30
-27
-22
-18
-13
-8
-4
1
7
13
20
27
33
40
45
48
52
56
62
68
76
83
90
95
97
97
95
90
83
76
70
62
55
47
40
31
23
16
8
3
-3
-9
-14
-19
-23
-25
-28
-29
-32
-33
-34
-33
-34
-34
-35
-35
-35
-37
-35
-37
-38
-38
-38
-39
-39
-40
-39
-39
-38
-37
-35
-34
-33
-30
-29
-27
-24
-23
-22
-19
-18
-17
-13
-5
7
28
57
88
117
135
141
128
102
66
27
-12
-45
-72
-92
-103
-109
-108
-103
-94
-87
-75
-67
-59
-54
-50
-47
-45
-44
-44
-44
-45
-47
-48
-50
-52
-54
-54
-54
-49
-42
-32
-19
-4
11
25
38
50
60
68
75
81
86
88
91
93
95
96
97
98
98
97
96
93
92
88
86
82
77
71
66
58
50
41
33
26
18
12
6
2
-2
-5
-8
-10
-13
-14
-15
-17
-17
-17
-18
-18
-17
-17
-18
-18
-19
-19
-20
-19
-19
-20
-22
-22
-23
-23
-23
-24
-24
-23
-23
-23
-23
-23
-23
-22
-22
-20
-20
-20
-19
-19
-19
-19
-18
-18
-18
-18
-17
-17
-17
-17
-17
-15
-15
-15
-15
-15
-14
-14
-14
-15
-14
-15
-15
-15
-15
-15
-15
-15
-15
-15
-14
-14
-13
-13
-13
-14
-14
-15
-15
-15
-15
-15
-15
-15
-14
-14
-14
-13
-13
-13
-13
-10
-10
-10
-10
-9
-9
-9
-9
-9
-9
-9
-9
-8
-8
-7
-7
-5
-5
-5
-5
-4
-4
-3
5
20
41
73
108
140
158
161
145
113
75
33
-4
-34
-57
-73
-82
-85
-84
-79
-73
-64
-57
-50
-45
-43
-39
-38
-38
-38
-39
-42
-42
-40
-37
-30
-24
-17
-10
-9
-5
-4
-2
0
1
3
7
11
15
20
25
31
38
46
52
57
62
66
70
72
73
75
76
77
77
78
78
80
81
80
81
81
81
80
78
75
71
66
60
52
46
38
31
25
18
13
7
3
0
-3
-7
-7
-9
-10
-12
-14
-14
-15
-17
-19
-18
-19
-20
-22
-23
-23
-24
-24
-25
-25
-25
-25
-25
-24
-24
-23
-23
-23
-22
-22
-22
-22
-22
-22
-22
-22
-20
-20
-19
-19
-18
-18
-19
-18
-18
-17
-17
-18
-18
-18
-19
-19
-19
-19
-19
-19
-20
-20
-20
-20
-20
-20
-20
-20
-20
-20
-20
-19
-19
-20
-20
-20
-20
-19
-19
-20
-20
-20
-20
-19
-18
-18
-18
-18
-17
-17
-15
-14
-13
-12
-9
-5
-2
1
5
6
10
13
17
20
21
18
15
10
6
1
-3
-5
-5
0
11
31
58
87
112
126
125
107
78
43
7
-24
-52
-74
-90
-102
-107
-108
-104
-98
-90
-84
-77
-70
-65
-62
-58
-55
-52
-49
-47
-43
-40
-37
-33
-30
-27
-24
-20
-18
-15
-13
-9
-5
-3
1
3
6
11
16
22
28
35
41
47
53
58
63
66
70
71
73
75
76
77
80
81
83
85
86
87
87
86
85
81
77
72
66
60
51
42
33
25
17
10
3
-3
-9
-12
-15
-19
-22
-24
-24
-25
-25
-25
-25
-27
-25
-25
-24
-24
-24
-24
-23
-23
-23
-23
-23
-24
-24
-24
-24
-24
-24
-24
-24
-23
-23
-23
-23
-23
-24
-24
-23
-22
-19
-15
-13
-9
-5
-3
1
3
7
10
11
11
8
5
1
-3
-8
-12
-13
-15
-18
-20
-23
-27
-29
-32
-33
-34
-35
-35
-37
-37
-37
-35
-33
-25
-10
12
43
77
106
123
125
110
78
38
-4
-43
-75
-100
-115
-123
-124
-119
-110
-98
-87
-74
-64
-58
-53
-48
-44
-42
-39
-35
-33
-30
-27
-24
-22
-19
-17
-14
-13
-10
-9
-7
-5
-3
0
2
6
11
17
23
31
37
45
51
57
62
66
70
73
76
78
78
80
80
81
81
81
81
81
81
80
78
77
72
70
65
58
52
45
37
30
23
17
12
7
2
-2
-4
-5
-8
-9
-9
-10
-10
-12
-13
-17
-18
-20
-22
-24
-25
-25
-23
-22
-19
-18
-19
-20
-20
-23
-22
-20
-17
-13
-10
-9
-10
-13
-17
-20
-23
-25
-27
-29
-32
-32
-32
-30
-30
-28
-28
-27
-24
-24
-24
-24
-24
-23
-19
-7
13
41
71
98
115
115
97
65
22
-20
-62
-94
-117
-129
-133
-129
-119
-107
-90
-74
-60
-49
-39
-33
-28
-24
-20
-18
-17
-13
-10
-7
-3
2
7
12
15
15
13
12
12
13
17
23
31
38
46
53
60
65
71
75
77
77
77
75
73
72
71
70
68
68
68
68
68
67
66
65
62
61
57
52
47
40
31
22
13
5
-3
-9
-14
-17
-19
-22
-23
-22
-22
-20
-20
-20
-19
-18
-14
-8
3
21
37
48
50
36
10
-27
-69
-112
-153
-187
-215
-239
-252
-257
-254
-242
-224
-204
-184
-162
-140
-117
-93
-72
-52
-35
-23
-14
-10
-5
-2
3
8
16
23
32
40
48
56
65
73
82
92
101
111
121
131
141
151
158
163
166
167
167
166
165
162
162
160
157
152
146
137
128
117
105
93
81
68
58
47
36
27
17
8
1
-5
-10
-17
-20
-24
-28
-32
-34
-35
-38
-38
-39
-40
-40
-39
-39
-39
-39
-38
-38
-37
-35
-34
-33
-32
-29
-27
-22
-12
2
22
41
56
61
51
31
-2
-39
-79
-119
-158
-193
-219
-238
-247
-245
-237
-223
-207
-189
-172
-152
-133
-114
-94
-75
-59
-44
-33
-25
-19
-14
-10
-5
-2
2
6
11
17
23
31
38
47
58
70
81
92
103
113
122
130
136
140
142
145
146
146
146
145
143
141
137
132
127
121
113
103
93
82
72
61
50
40
28
18
10
3
-4
-12
-17
-23
-27
-30
-32
-34
-37
-38
-39
-39
-40
-43
-43
-43
-44
-44
-44
-44
-44
-44
-44
-44
-43
-43
-42
-40
-39
-38
-35
-34
-33
-32
-30
-29
-28
-27
-25
-24
-24
-24
-24
-23
-23
-23
-22
-22
-22
-20
-20
-20
-19
-19
-19
-19
-19
-19
-19
-20
-20
-20
-19
-19
-20
-20
-19
-19
-18
-18
-17
-17
-17
-15
-17
-15
-15
-14
-15
-15
-14
-14
-13
-13
-12
-12
-12
-12
-12
-10
-9
-9
-9
-9
-7
-8
-8
-8
-8
-8
-9
-9
-8
-8
-9
-9
-9
-9
-9
-9
-9
-9
-8
-4
6
22
52
91
133
167
187
190
173
146
112
77
47
18
-5
-27
-44
-54
-60
-62
-60
-58
-57
-55
-57
-57
-58
-58
-58
-59
-58
-57
-55
-54
-54
-52
-50
-48
-45
-45
-43
-39
-37
-33
-30
-25
-22
-17
-12
-5
1
7
15
22
31
37
43
48
52
56
58
61
61
63
65
65
66
67
67
68
68
68
68
67
65
62
57
52
47
41
33
27
21
13
8
2
-2
-4
-8
-12
-14
-17
-18
-20
-22
-23
-24
-25
-25
-27
-27
-27
-27
-27
-27
-27
-25
-24
-23
-22
-20
-20
-18
-17
-15
-17
-17
-17
-18
-18
-18
-18
-18
-18
-17
-15
-14
-14
-13
-12
-9
-9
-8
-8
-8
-8
-8
-9
-9
-10
-10
-10
-10
-13
-13
-13
-13
-13
-13
-14
-13
-13
-14
-13
-12
-9
-7
-3
0
5
8
13
18
23
27
30
30
28
23
18
12
7
3
1
-2
-3
-5
-9
-12
-15
-18
-19
-23
-24
-25
-25
-27
-27
-25
-24
-18
-8
12
38
70
98
117
120
105
73
33
-9
-49
-83
-104
-118
-123
-123
-117
-107
-95
-83
-70
-58
-49
-42
-38
-34
-30
-28
-25
-23
-20
-18
-15
-13
-12
-10
-9
-8
-7
-5
-4
-3
0
2
6
10
15
20
26
31
38
45
52
60
65
71
75
78
80
82
83
82
83
83
85
83
83
85
86
87
88
88
87
85
82
77
72
66
58
51
43
36
27
21
13
8
2
-3
-5
-9
-10
-13
-15
-18
-22
-24
-27
-29
-30
-32
-30
-28
-25
-24
-24
-24
-25
-28
-27
-24
-20
-18
-15
-14
-15
-18
-20
-24
-27
-29
-32
-34
-37
-38
-38
-38
-37
-35
-34
-32
-30
-30
-29
-29
-29
-29
-28
-23
-10
7
32
58
80
92
88
67
35
-7
-50
-89
-119
-137
-145
-145
-137
-123
-103
-84
-64
-47
-34
-25
-19
-15
-14
-13
-10
-7
-4
1
6
8
11
12
15
16
17
18
20
22
23
23
25
26
28
32
38
43
50
57
63
68
73
76
76
77
76
75
72
71
71
70
70
68
67
67
66
63
61
56
51
46
38
32
23
16
8
1
-3
-9
-15
-20
-24
-28
-30
-32
-33
-34
-34
-34
-35
-35
-34
-33
-27
-17
2
28
56
80
96
98
87
63
30
-8
-44
-78
-105
-125
-139
-144
-142
-134
-122
-107
-92
-79
-68
-59
-53
-48
-45
-42
-39
-37
-34
-32
-28
-24
-22
-20
-18
-15
-12
-8
-4
1
6
11
18
26
32
40
45
51
55
60
62
65
67
67
67
67
66
66
65
63
61
58
56
52
47
42
36
30
22
16
10
6
1
-4
-9
-13
-15
-18
-19
-20
-22
-24
-24
-24
-25
-25
-25
-24
-24
-23
-24
-24
-23
-23
-23
-23
-23
-23
-23
-23
-23
-23
-23
-22
-22
-22
-20
-20
-19
-18
-18
-18
-17
-15
-17
-15
-14
-14
-13
-12
-12
-10
-9
-8
-8
-7
-5
-4
-4
-4
-4
-4
-4
-4
-4
-4
-4
-4
-5
-5
-7
-7
-7
-7
-8
-7
-7
-7
-8
-8
-7
-8
-8
-8
-9
-8
-7
-4
-2
1
3
3
2
1
0
-2
-3
-4
-5
-9
-13
-15
-19
-22
-23
-24
-24
-24
-25
-25
-25
-25
-25
-27
-27
-27
-27
-23
-17
-2
22
57
97
135
162
173
163
137
98
57
18
-14
-42
-62
-77
-87
-90
-89
-85
-77
-69
-60
-52
-44
-39
-35
-32
-29
-27
-24
-23
-22
-20
-19
-20
-19
-19
-20
-20
-20
-20
-19
-18
-17
-14
-13
-10
-5
-3
2
7
13
20
26
31
35
40
43
47
50
52
53
55
57
58
58
61
63
66
71
75
77
78
77
73
68
62
57
52
48
46
42
36
30
23
16
10
3
-3
-8
-12
-17
-22
-24
-27
-29
-30
-32
-33
-34
-35
-37
-38
-38
-39
-39
-40
-40
-35
-24
-8
18
48
75
92
97
85
58
21
-19
-59
-93
-118
-133
-140
-140
-134
-122
-108
-92
-75
-62
-52
-44
-38
-35
-32
-29
-25
-22
-19
-17
-14
-12
-9
-8
-5
-3
1
5
10
15
21
27
35
42
50
57
65
72
78
83
86
88
91
91
91
90
88
88
86
85
83
81
77
73
70
63
57
51
43
36
27
20
12
6
0
-5
-10
-13
-15
-19
-19
-20
-22
-22
-22
-22
-22
-22
-22
-22
-20
-20
-20
-20
-20
-20
-20
-20
-22
-22
-22
-22
-23
-23
-23
-24
-24
-25
-27
-27
-25
-25
-24
-24
-24
-23
-23
-23
-23
-23
-22
-20
-20
-20
-20
-20
-20
-20
-18
-17
-18
-17
-15
-15
-15
-15
-15
-15
-14
-14
-14
-14
-14
-13
-13
-10
-8
-5
-3
0
2
6
10
15
20
25
27
27
25
20
15
10
5
3
1
0
-3
-7
-9
-12
-15
-17
-19
-20
-22
-23
-24
-24
-24
-25
-25
-25
-25
-23
-17
-5
13
41
71
98
116
118
102
72
32
-9
-48
-77
-98
-110
-115
-114
-109
-103
-92
-78
-64
-53
-43
-35
-29
-25
-22
-19
-15
-13
-10
-9
-8
-5
-4
-3
-3
-2
-2
0
1
2
3
6
8
12
16
21
26
31
37
42
48
53
60
63
67
70
71
72
72
73
73
75
76
77
78
78
80
80
81
81
80
78
77
72
67
61
52
45
36
27
20
12
5
0
-5
-9
-13
-17
-19
-22
-24
-27
-28
-29
-32
-33
-34
-35
-38
-38
-39
-38
-37
-34
-32
-28
-24
-19
-15
-12
-7
-2
2
2
2
0
-4
-9
-14
-17
-19
-20
-22
-24
-28
-32
-34
-38
-40
-43
-44
-44
-45
-47
-48
-48
-48
-47
-43
-32
-13
13
43
72
95
103
98
78
47
8
-27
-60
-85
-104
-115
-118
-115
-108
-98
-88
-75
-65
-58
-50
-45
-43
-39
-37
-34
-30
-28
-25
-24
-22
-20
-19
-18
-17
-14
-13
-12
-10
-9
-7
-4
0
3
7
12
17
25
31
37
42
47
53
55
58
61
63
65
67
70
72
75
76
77
77
77
77
76
73
70
66
61
55
47
40
32
23
17
8
3
0
-4
-8
-10
-13
-15
-18
-20
-22
-23
-24
-27
-28
-28
-30
-29
-28
-24
-22
-19
-18
-18
-19
-20
-22
-19
-17
-13
-10
-9
-9
-10
-12
-15
-17
-20
-23
-27
-29
-30
-30
-30
-30
-29
-28
-27
-25
-25
-23
-24
-25
-27
-27
-23
-14
5
33
66
101
127
140
133
110
73
32
-8
-44
-72
-92
-104
-109
-108
-103
-92
-79
-65
-53
-43
-37
-32
-30
-29
-28
-25
-20
-17
-12
-8
-5
-3
-3
0
2
3
5
5
5
3
3
3
6
8
13
18
23
30
36
41
45
47
48
51
51
52
53
55
53
55
55
56
56
56
56
55
53
51
47
42
37
31
25
18
11
5
0
-5
-9
-12
-15
-17
-19
-20
-22
-23
-22
-22
-22
-20
-19
-15
-7
7
31
60
88
112
126
123
106
76
36
-5
-45
-80
-107
-127
-137
-140
-137
-128
-114
-98
-83
-69
-57
-49
-43
-38
-35
-33
-29
-27
-25
-23
-20
-18
-13
-10
-8
-4
0
5
8
15
20
26
33
40
46
52
58
63
67
71
72
73
76
75
75
75
73
71
70
68
65
62
58
55
50
43
37
31
25
16
10
3
-2
-4
-7
-10
-12
-13
-14
-15
-15
-15
-17
-17
-17
-18
-17
-18
-18
-18
-18
-18
-18
-18
-18
-18
-18
-19
-19
-19
-19
-18
-18
-18
-18
-19
-19
-19
-19
-19
-19
-19
-19
-19
-19
-19
-20
-20
-20
-20
-20
-20
-20
-20
-19
-19
-18
-18
-17
-17
-15
-15
-15
-15
-15
-15
-15
-14
-15
-14
-13
-12
-10
-9
-8
-7
-7
-5
-4
-3
-2
2
6
8
11
10
7
5
3
2
1
0
-2
-4
-7
-9
-12
-13
-14
-15
-15
-15
-15
-17
-17
-17
-15
-15
-15
-15
-15
-14
-13
-4
10
33
61
90
110
117
108
85
48
7
-30
-62
-85
-99
-108
-109
-108
-102
-93
-82
-69
-58
-47
-37
-29
-24
-20
-18
-15
-13
-10
-8
-7
-4
-3
-3
-3
-2
0
0
1
3
6
8
12
17
21
27
32
40
46
53
60
67
72
77
80
82
83
85
85
85
85
85
85
86
87
87
88
90
90
90
90
87
82
77
71
65
57
48
40
30
22
13
6
0
-4
-8
-13
-17
-20
-24
-25
-28
-30
-32
-34
-35
-37
-38
-39
-40
-42
-42
-42
-42
-42
-40
-39
-39
-38
-38
-37
-35
-34
-33
-32
-29
-25
-23
-19
-15
-12
-5
-2
2
7
10
10
8
5
0
-7
-12
-15
-19
-23
-27
-29
-33
-38
-40
-44
-47
-48
-49
-49
-49
-50
-49
-48
-47
-44
-37
-23
-2
23
53
80
97
100
87
61
27
-10
-44
-74
-97
-110
-117
-117
-112
-103
-92
-79
-69
-59
-52
-47
-43
-39
-35
-33
-30
-28
-25
-22
-20
-18
-17
-15
-13
-12
-10
-9
-7
-4
-3
0
2
5
8
13
21
27
33
41
47
52
57
60
63
66
68
71
72
75
77
78
80
82
83
85
83
82
81
78
76
71
66
60
53
46
37
30
22
15
8
2
-2
-5
-9
-12
-14
-17
-19
-22
-24
-27
-27
-27
-25
-24
-22
-19
-18
-19
-20
-22
-23
-22
-20
-17
-14
-12
-12
-12
-14
-15
-18
-23
-25
-28
-32
-33
-34
-35
-34
-34
-32
-30
-29
-28
-28
-28
-29
-30
-30
-27
-18
0
28
61
95
120
131
125
101
65
23
-15
-48
-75
-95
-107
-113
-113
-108
-99
-87
-77
-65
-57
-50
-47
-43
-40
-37
-32
-27
-20
-15
-10
-8
-7
-8
-8
-8
-7
-2
3
10
15
21
25
30
32
36
40
43
47
51
52
53
55
56
55
56
57
58
60
60
60
60
60
60
58
57
56
53
48
43
37
30
22
15
7
1
-4
-8
-9
-10
-13
-13
-15
-17
-19
-20
-22
-22
-20
-18
-13
-5
6
25
47
73
100
120
126
120
100
66
25
-18
-58
-92
-118
-135
-143
-145
-142
-132
-119
-105
-90
-77
-67
-59
-53
-49
-47
-43
-40
-35
-32
-25
-20
-17
-13
-8
-5
-2
3
8
13
20
28
37
46
55
62
67
72
75
77
81
83
85
86
86
86
83
80
76
72
66
62
58
53
48
42
35
28
21
15
8
2
-3
-8
-13
-15
-19
-20
-23
-24
-24
-25
-24
-24
-23
-23
-22
-22
-22
-23
-22
-22
-22
-22
-22
-22
-22
-22
-22
-22
-22
-22
-22
-20
-20
-20
-22
-22
-22
-22
-22
-22
-22
-23
-23
-23
-23
-23
-23
-23
-23
-22
-22
-22
-22
-20
-20
-20
-20
-20
-20
-19
-19
-18
-18
-18
-19
-18
-18
-18
-17
-18
-17
-15
-15
-15
-14
-14
-14
-14
-13
-13
-14
-13
-13
-12
-12
-10
-9
-8
-8
-7
-7
-7
-5
-5
-5
-5
-4
-4
-4
-2
-2
-2
0
0
2
5
8
11
15
17
21
26
31
36
43
55
73
100
128
158
180
186
173
145
105
58
15
-22
-53
-75
-90
-99
-102
-100
-95
-89
-83
-75
-69
-64
-60
-57
-53
-50
-49
-45
-42
-38
-34
-32
-28
-24
-22
-19
-15
-12
-8
-7
-3
1
3
8
12
17
23
28
36
42
48
55
60
63
66
67
68
71
71
72
72
73
75
75
76
77
77
78
78
77
75
72
68
62
56
48
41
32
23
16
7
1
-4
-9
-14
-18
-20
-24
-25
-29
-30
-32
-33
-34
-37
-38
-39
-40
-42
-42
-42
-40
-40
-39
-38
-38
-37
-35
-35
-35
-34
-34
-35
-35
-35
-37
-35
-34
-32
-28
-23
-20
-18
-15
-15
-18
-17
-17
-14
-13
-10
-9
-10
-12
-14
-18
-19
-22
-25
-27
-29
-30
-32
-32
-32
-32
-30
-30
-28
-27
-27
-25
-24
-25
-25
-24
-15
1
25
57
90
117
132
130
111
81
43
7
-25
-53
-73
-87
-95
-95
-92
-82
-70
-59
-48
-39
-34
-29
-27
-25
-23
-20
-17
-13
-9
-5
-3
-2
-2
0
0
2
2
3
3
1
1
1
2
2
5
8
12
18
23
30
35
40
45
46
50
52
53
55
57
58
61
62
65
65
66
66
67
66
66
63
60
56
51
45
38
32
25
18
12
6
1
-3
-8
-12
-14
-17
-19
-22
-24
-25
-27
-27
-27
-25
-23
-15
-3
8
20
25
18
2
-24
-55
-89
-120
-148
-173
-194
-209
-218
-220
-217
-208
-197
-180
-162
-140
-115
-92
-67
-45
-29
-15
-7
-2
2
6
10
13
18
22
26
31
35
41
47
55
63
72
82
92
103
113
123
132
140
146
150
153
156
157
157
156
155
152
147
143
137
132
125
117
107
98
88
77
67
57
46
36
27
18
10
3
-3
-8
-13
-17
-20
-24
-28
-30
-33
-35
-37
-38
-39
-39
-40
-40
-42
-42
-43
-43
-43
-43
-43
-43
-43
-43
-42
-42
-42
-39
-39
-38
-37
-37
-37
-35
-35
-33
-33
-32
-30
-30
-29
-28
-28
-28
-25
-24
-24
-23
-23
-22
-20
-20
-20
-20
-20
-19
-18
-17
-14
-12
-10
-8
-4
-2
0
0
-2
-3
-4
-7
-8
-9
-12
-14
-17
-20
-22
-24
-25
-25
-25
-27
-27
-27
-25
-25
-25
-24
-23
-23
-20
-13
0
20
48
80
108
126
127
111
80
41
0
-38
-68
-89
-103
-110
-112
-108
-100
-89
-75
-64
-52
-43
-35
-30
-27
-23
-20
-17
-14
-13
-10
-8
-7
-5
-4
-4
-4
-3
-3
-2
0
1
3
6
10
13
18
25
31
37
45
50
56
60
63
67
70
71
72
73
75
75
76
77
78
81
82
82
83
83
82
81
77
73
68
62
56
48
42
35
27
21
15
10
5
2
0
-3
-7
-8
-10
-13
-15
-17
-19
-20
-22
-24
-25
-27
-27
-28
-28
-29
-29
-29
-29
-29
-29
-29
-29
-29
-28
-28
-28
-28
-28
-29
-29
-29
-28
-28
-28
-27
-25
-24
-22
-19
-15
-12
-8
-4
0
2
7
11
13
16
15
12
8
2
-2
-5
-9
-12
-14
-17
-20
-23
-24
-27
-28
-29
-29
-30
-30
-30
-30
-29
-29
-28
-25
-19
-4
16
42
70
91
105
101
82
48
7
-37
-77
-108
-129
-138
-140
-134
-123
-108
-92
-74
-59
-47
-38
-30
-25
-22
-18
-15
-13
-9
-9
-7
-4
-3
0
0
1
2
3
3
5
7
10
11
13
17
21
25
31
37
42
47
53
58
62
66
68
71
72
73
73
73
73
73
75
75
76
77
77
77
76
75
72
68
63
58
51
43
36
27
20
12
5
2
-3
-7
-10
-13
-15
-18
-19
-22
-23
-23
-24
-27
-28
-29
-29
-30
-32
-32
-33
-33
-33
-34
-35
-34
-34
-33
-30
-28
-24
-20
-15
-12
-8
-4
0
3
5
7
6
2
-3
-7
-12
-15
-19
-22
-23
-27
-30
-35
-39
-42
-44
-45
-47
-48
-48
-48
-48
-47
-47
-45
-40
-29
-9
17
48
78
102
112
107
87
56
20
-17
-49
-75
-94
-104
-108
-107
-100
-90
-79
-69
-59
-52
-45
-40
-39
-35
-33
-30
-28
-27
-24
-22
-20
-20
-18
-17
-17
-15
-14
-13
-13
-10
-9
-7
-4
0
3
8
16
22
30
36
42
47
52
56
60
63
65
68
70
71
72
73
75
76
75
75
75
72
70
65
61
57
53
48
45
38
28
20
12
5
0
-3
-4
-4
-3
-3
-4
-7
-9
-13
-17
-19
-23
-27
-30
-33
-34
-35
-35
-35
-35
-35
-35
-35
-34
-34
-35
-35
-35
-34
-29
-17
2
33
68
101
123
131
121
95
58
17
-19
-52
-75
-94
-105
-110
-110
-105
-98
-89
-78
-69
-62
-55
-50
-47
-44
-42
-38
-35
-32
-28
-27
-23
-20
-17
-14
-10
-8
-4
-2
3
8
13
21
27
35
43
50
57
63
68
73
76
78
80
81
82
82
82
82
81
80
78
77
75
71
67
62
56
48
41
35
26
18
12
6
1
-3
-8
-10
-14
-17
-17
-19
-20
-22
-20
-22
-23
-22
-23
-23
-24
-25
-25
-27
-28
-29
-29
-30
-32
-32
-32
-32
-32
-33
-32
-32
-29
-28
-27
-25
-24
-22
-20
-19
-18
-17
-17
-18
-17
-17
-17
-15
-14
-14
-13
-13
-12
-12
-12
-10
-12
-10
-10
-9
-9
-9
-8
-7
-4
-2
0
0
2
5
10
13
20
23
23
22
17
12
6
1
-2
-4
-7
-9
-13
-17
-20
-23
-25
-27
-28
-28
-29
-29
-29
-30
-30
-30
-29
-28
-24
-18
-4
18
47
77
102
116
116
97
65
22
-18
-55
-85
-104
-115
-119
-117
-110
-100
-88
-75
-63
-50
-42
-35
-29
-25
-23
-20
-18
-15
-14
-12
-9
-8
-8
-7
-5
-4
-3
-2
0
1
3
6
10
13
18
23
30
36
42
48
55
61
66
70
73
76
77
78
80
80
80
81
81
81
81
82
82
82
83
82
81
78
76
71
65
58
52
45
37
31
23
17
12
7
3
0
-3
-5
-8
-8
-9
-12
-13
-15
-17
-19
-20
-23
-24
-27
-28
-29
-30
-30
-29
-27
-24
-20
-17
-10
-8
-4
1
6
10
11
10
6
1
-5
-10
-14
-18
-19
-22
-24
-25
-28
-30
-34
-35
-37
-38
-39
-39
-39
-39
-38
-38
-34
-29
-17
0
23
52
77
95
101
88
61
23
-20
-62
-100
-127
-143
-148
-144
-134
-118
-100
-83
-65
-50
-40
-33
-27
-22
-19
-17
-13
-12
-8
-5
-4
-3
-3
0
1
2
3
5
7
8
11
13
16
18
22
27
32
40
46
52
58
63
66
68
71
71
72
72
71
72
72
72
73
73
73
72
71
70
67
63
60
53
47
40
33
26
17
10
2
-3
-8
-13
-17
-19
-23
-25
-27
-29
-29
-30
-32
-33
-34
-35
-38
-39
-39
-37
-35
-32
-29
-28
-28
-29
-30
-30
-29
-24
-20
-17
-13
-13
-14
-17
-19
-22
-24
-25
-27
-29
-30
-32
-30
-30
-29
-28
-27
-25
-25
-25
-25
-27
-28
-29
-27
-18
-2
23
53
83
107
117
112
91
60
22
-12
-44
-70
-89
-102
-107
-107
-100
-93
-82
-72
-62
-54
-49
-45
-42
-39
-37
-33
-29
-24
-18
-14
-8
-4
-2
-2
-2
-3
-2
0
5
10
16
21
27
31
36
42
47
52
57
60
62
61
62
63
65
67
68
71
72
73
75
75
73
73
72
70
67
63
58
52
45
37
30
21
13
5
-2
-5
-12
-14
-15
-17
-18
-19
-22
-23
-25
-28
-29
-28
-23
-14
-4
13
31
41
42
31
8
-23
-58
-94
-127
-158
-185
-205
-218
-223
-223
-215
-204
-190
-173
-155
-133
-109
-88
-65
-47
-32
-20
-12
-5
0
5
11
17
23
30
33
40
45
51
56
62
70
78
87
97
108
118
127
133
137
140
142
143
145
146
146
145
141
136
131
123
116
107
100
92
83
73
62
52
41
30
20
10
1
-8
-14
-19
-24
-29
-33
-37
-39
-40
-42
-43
-43
-44
-43
-44
-44
-44
-43
-43
-44
-44
-44
-44
-44
-43
-43
-42
-43
-42
-40
-39
-38
-35
-28
-14
7
36
66
95
112
115
101
75
37
-3
-43
-75
-103
-120
-132
-133
-130
-122
-110
-97
-84
-73
-64
-57
-52
-48
-45
-42
-39
-35
-32
-28
-25
-22
-18
-14
-10
-8
-4
1
6
11
17
25
32
42
50
57
65
70
75
80
81
83
83
85
85
85
85
83
82
81
80
78
77
75
72
70
66
62
58
55
52
51
48
46
40
31
22
13
3
-3
-8
-12
-17
-20
-25
-30
-35
-40
-43
-45
-48
-49
-52
-52
-53
-53
-55
-55
-55
-55
-55
-54
-54
-53
-53
-52
-49
-42
-29
-9
13
37
57
67
65
47
17
-20
-60
-97
-125
-144
-153
-155
-149
-139
-124
-108
-90
-73
-59
-47
-38
-33
-28
-25
-23
-19
-17
-14
-10
-8
-5
-3
-2
0
2
5
8
12
16
22
27
33
41
48
56
63
70
76
81
83
86
87
88
88
88
87
87
86
85
83
82
80
77
73
68
63
56
50
42
35
27
21
15
8
5
1
-3
-7
-10
-13
-15
-17
-17
-17
-14
-10
-7
-5
-4
-4
-5
-8
-10
-10
-9
-8
-8
-8
-9
-12
-14
-15
-18
-20
-23
-25
-29
-30
-32
-32
-33
-33
-33
-33
-33
-32
-33
-33
-32
-33
-33
-34
-34
-30
-20
-4
18
45
68
83
85
71
45
6
-37
-75
-108
-130
-143
-147
-143
-133
-119
-103
-84
-68
-55
-45
-39
-33
-27
-20
-14
-8
-3
1
2
2
2
2
5
7
12
17
21
25
28
31
33
36
38
42
46
50
52
55
58
60
61
62
63
63
65
65
66
65
66
66
66
66
66
63
61
57
52
47
38
31
22
15
7
3
-2
-5
-8
-12
-14
-18
-20
-24
-28
-30
-30
-30
-28
-27
-25
-25
-24
-24
-22
-15
-3
15
40
63
81
91
87
72
48
17
-17
-49
-79
-104
-123
-135
-142
-142
-134
-123
-109
-97
-87
-77
-69
-63
-57
-50
-45
-42
-37
-32
-28
-25
-23
-20
-18
-14
-10
-4
2
8
15
21
26
32
38
46
55
63
70
76
80
82
82
81
80
76
75
72
70
66
62
58
55
50
45
38
32
25
17
10
5
-2
-7
-12
-15
-19
-22
-24
-27
-28
-29
-29
-29
-29
-29
-27
-27
-25
-25
-25
-24
-24
-24
-25
-25
-25
-25
-23
-20
-18
-14
-12
-9
-7
-5
-4
-3
-3
-4
-5
-8
-10
-13
-17
-19
-23
-25
-28
-29
-30
-30
-29
-29
-28
-28
-27
-27
-25
-22
-10
8
36
72
110
141
156
156
137
105
63
22
-17
-50
-74
-93
-105
-110
-109
-104
-94
-83
-74
-64
-57
-50
-47
-43
-42
-39
-37
-34
-32
-28
-24
-22
-19
-17
-15
-13
-10
-9
-7
-4
0
3
6
12
18
25
31
38
46
51
56
60
62
63
65
66
67
68
67
68
68
70
70
68
66
65
61
57
53
47
41
35
27
21
15
10
5
0
-4
-7
-9
-12
-14
-15
-15
-17
-18
-18
-18
-19
-19
-19
-19
-20
-20
-22
-22
-23
-23
-24
-24
-24
-25
-25
-24
-24
-23
-23
-22
-20
-19
-19
-18
-17
-17
-15
-14
-14
-15
-15
-15
-15
-15
-15
-17
-17
-17
-17
-15
-14
-14
-14
-13
-13
-13
-14
-14
-14
-14
-14
-14
-17
-17
-17
-17
-17
-17
-18
-18
-17
-17
-17
-15
-15
-15
-15
-14
-15
-14
-14
-13
-12
-10
-12
-10
-10
-10
-9
-8
-7
-7
-5
-5
-5
-4
-3
-2
1
3
6
10
11
15
20
23
27
28
27
25
20
15
10
7
3
2
1
6
20
42
76
113
147
167
171
156
123
83
38
-3
-38
-65
-87
-99
-107
-108
-105
-99
-92
-83
-75
-68
-62
-57
-53
-49
-45
-43
-40
-37
-33
-29
-27
-23
-20
-18
-18
-17
-14
-13
-10
-9
-7
-3
1
6
10
15
20
26
32
38
45
51
56
60
63
66
68
71
71
72
75
76
77
80
80
82
83
85
85
83
82
80
75
68
62
55
47
38
31
22
15
7
0
-4
-9
-10
-12
-12
-10
-12
-13
-17
-19
-23
-25
-24
-23
-20
-19
-18
-18
-19
-20
-20
-23
-24
-27
-29
-32
-34
-34
-34
-34
-34
-34
-33
-33
-32
-30
-30
-32
-32
-29
-20
-5
15
38
62
81
87
77
52
16
-25
-67
-103
-130
-147
-153
-150
-142
-127
-109
-89
-72
-55
-44
-34
-28
-24
-19
-15
-12
-7
-3
0
1
5
6
8
11
12
15
17
18
21
25
27
31
36
42
48
53
60
67
71
75
78
80
80
80
78
77
76
73
72
72
71
71
70
68
66
65
61
56
52
46
38
31
23
16
8
2
-4
-9
-14
-19
-23
-24
-27
-28
-30
-30
-30
-32
-32
-32
-33
-33
-34
-35
-37
-37
-39
-39
-39
-39
-39
-39
-39
-38
-38
-38
-37
-35
-34
-32
-30
-29
-28
-28
-27
-25
-25
-25
-24
-24
-24
-23
-23
-23
-22
-20
-19
-18
-18
-17
-15
-15
-15
-13
-12
-9
-7
-4
-2
2
5
7
11
15
17
17
15
11
6
1
-3
-5
-8
-10
-13
-15
-18
-22
-25
-28
-29
-30
-32
-32
-32
-32
-32
-32
-32
-32
-29
-22
-9
13
43
77
108
130
136
125
100
66
30
-3
-32
-54
-70
-82
-88
-88
-85
-79
-70
-62
-54
-47
-42
-39
-35
-33
-30
-28
-25
-23
-23
-20
-19
-19
-17
-15
-13
-12
-10
-9
-8
-5
-4
-2
1
3
7
12
18
25
31
37
45
50
53
57
61
62
65
66
68
70
70
70
71
71
70
70
70
70
68
67
65
61
57
52
47
41
36
28
22
15
10
3
0
-4
-7
-10
-13
-15
-17
-18
-19
-20
-22
-23
-24
-25
-27
-28
-29
-30
-32
-33
-33
-33
-32
-29
-25
-22
-17
-13
-8
-4
0
3
8
11
12
10
6
0
-5
-9
-13
-15
-17
-18
-20
-24
-28
-30
-34
-35
-39
-40
-40
-40
-42
-42
-43
-42
-39
-29
-13
11
42
77
106
123
126
110
78
38
-5
-45
-79
-103
-119
-125
-124
-118
-107
-94
-80
-68
-57
-48
-43
-38
-34
-30
-27
-23
-19
-18
-15
-13
-10
-8
-8
-7
-5
-4
-4
-3
0
1
3
7
11
16
21
30
36
43
51
57
62
66
70
71
73
75
75
76
76
77
76
76
76
76
75
72
68
65
61
57
52
48
45
41
36
30
22
15
6
1
-3
-4
-4
-4
-2
-3
-4
-7
-9
-10
-13
-17
-19
-23
-25
-27
-28
-29
-29
-30
-30
-30
-30
-30
-30
-30
-32
-32
-32
-30
-22
-8
15
41
66
85
90
80
55
17
-23
-64
-99
-127
-144
-150
-149
-142
-129
-113
-97
-79
-65
-55
-48
-42
-38
-35
-32
-29
-27
-23
-20
-18
-15
-13
-10
-7
-4
1
5
10
15
20
27
35
42
50
58
67
73
80
83
87
90
93
95
95
96
95
95
92
90
88
86
82
78
75
70
63
57
52
45
37
31
25
18
12
6
2
-3
-5
-8
-10
-13
-15
-15
-17
-18
-17
-18
-18
-18
-18
-18
-18
-18
-19
-19
-19
-19
-20
-20
-22
-22
-23
-24
-25
-25
-25
-27
-27
-27
-27
-27
-27
-25
-25
-25
-25
-24
-23
-23
-22
-22
-20
-20
-20
-20
-19
-18
-18
-17
-15
-17
-15
-14
-14
-13
-13
-12
-9
-7
-4
0
1
5
8
13
20
25
28
30
27
23
17
11
8
5
2
1
-2
-4
-8
-12
-14
-17
-19
-20
-22
-23
-23
-23
-23
-23
-23
-23
-22
-19
-12
2
21
47
73
97
106
100
77
43
3
-38
-73
-99
-115
-124
-125
-122
-114
-103
-90
-77
-64
-53
-44
-39
-34
-30
-28
-25
-22
-20
-18
-17
-15
-14
-13
-12
-10
-10
-9
-8
-7
-5
-4
-2
1
5
8
13
21
27
32
38
45
51
55
60
62
65
66
67
70
71
72
71
73
75
76
76
77
78
78
77
75
72
67
62
55
48
40
32
25
16
10
2
-3
-7
-10
-13
-17
-19
-20
-22
-24
-25
-28
-29
-30
-30
-33
-33
-34
-34
-34
-35
-34
-33
-30
-28
-23
-19
-15
-12
-8
-4
0
5
7
10
10
7
1
-3
-9
-13
-15
-18
-19
-22
-25
-28
-32
-34
-37
-38
-39
-40
-40
-42
-42
-42
-42
-40
-38
-28
-9
16
47
78
105
118
117
100
71
36
1
-33
-60
-80
-93
-100
-100
-95
-87
-77
-67
-58
-50
-44
-40
-37
-34
-32
-29
-27
-24
-22
-20
-18
-17
-15
-13
-13
-12
-10
-10
-9
-8
-5
-3
0
3
7
13
20
25
31
38
43
47
51
55
57
60
61
62
63
66
67
67
68
70
70
70
70
67
66
62
57
52
46
40
32
25
17
11
5
0
-4
-8
-10
-13
-15
-17
-19
-20
-22
-23
-24
-27
-28
-29
-29
-29
-29
-27
-23
-20
-18
-18
-18
-20
-22
-22
-19
-15
-12
-9
-8
-8
-9
-10
-14
-17
-19
-22
-24
-28
-28
-29
-29
-29
-29
-28
-28
-28
-28
-27
-27
-28
-29
-25
-15
0
27
61
92
117
127
117
92
55
11
-32
-67
-95
-114
-125
-128
-123
-112
-98
-82
-67
-53
-42
-35
-30
-28
-25
-23
-20
-15
-10
-7
-3
1
3
5
7
10
13
15
17
18
18
20
20
22
26
30
36
42
47
53
58
62
65
65
65
65
65
62
62
62
62
62
62
61
61
60
58
56
52
47
42
36
28
22
16
8
2
-3
-8
-12
-15
-18
-20
-23
-24
-24
-25
-27
-27
-27
-27
-24
-19
-9
6
28
57
85
107
116
111
92
60
18
-24
-64
-99
-124
-140
-149
-150
-144
-132
-115
-98
-80
-68
-55
-48
-42
-38
-35
-34
-32
-28
-27
-24
-22
-18
-15
-12
-8
-5
-2
3
8
15
20
26
33
41
47
53
61
65
68
72
75
76
76
75
75
73
72
71
70
67
65
61
56
52
45
40
33
27
21
15
10
5
0
-3
-5
-8
-9
-12
-13
-14
-14
-15
-17
-17
-17
-15
-17
-15
-17
-17
-15
-17
-17
-17
-17
-17
-17
-17
-17
-18
-18
-18
-18
-18
-18
-18
-17
-17
-17
-15
-15
-15
-15
-15
-15
-17
-17
-17
-15
-17
-17
-18
-18
-17
-17
-17
-15
-15
-15
-15
-14
-14
-15
-14
-14
-14
-14
-14
-13
-12
-12
-12
-10
-10
-9
-8
-7
-7
-5
-2
2
5
7
10
11
10
8
7
6
6
6
5
3
0
-3
-5
-8
-9
-10
-12
-13
-14
-14
-14
-14
-14
-14
-14
-13
-13
-12
-9
-3
8
28
55
81
101
110
103
81
47
7
-30
-64
-88
-102
-109
-112
-108
-102
-93
-82
-70
-59
-49
-40
-33
-29
-25
-22
-18
-17
-14
-12
-12
-10
-10
-9
-8
-8
-7
-7
-5
-4
-3
-2
0
2
6
10
15
20
26
32
38
45
50
55
58
62
65
67
68
71
72
73
76
77
78
80
81
82
83
83
83
81
78
75
70
61
53
45
36
27
20
12
5
0
-5
-10
-15
-19
-23
-27
-28
-30
-33
-34
-35
-37
-39
-39
-40
-40
-40
-40
-40
-39
-38
-37
-34
-33
-32
-30
-29
-29
-29
-28
-29
-28
-25
-23
-19
-14
-10
-7
-2
2
6
11
13
15
13
10
3
0
-7
-10
-13
-15
-18
-20
-24
-28
-32
-34
-35
-37
-38
-38
-38
-38
-38
-38
-37
-35
-30
-20
-4
20
50
80
103
113
110
91
62
26
-10
-42
-68
-87
-98
-103
-102
-97
-87
-77
-68
-58
-50
-45
-40
-38
-34
-32
-29
-28
-25
-23
-20
-19
-18
-17
-15
-14
-13
-13
-10
-9
-8
-5
-3
0
3
7
13
20
27
35
42
48
53
56
58
62
63
65
67
68
70
72
73
75
75
75
75
75
73
72
68
65
60
53
47
41
33
27
20
13
7
2
-2
-5
-9
-13
-15
-18
-20
-22
-24
-25
-28
-28
-28
-25
-23
