78
80
66
40
2
-35
-74
-105
-128
-140
-145
-143
-134
-120
-104
-88
-73
-60
-50
-44
-39
-34
-32
-29
-25
-23
-19
-17
-14
-12
-9
-9
-8
-7
-4
-3
-2
0
0
1
3
7
12
17
23
30
36
41
47
52
56
58
61
61
62
65
66
67
68
70
71
72
73
73
73
71
70
66
63
60
56
52
46
40
30
20
11
3
-2
-3
-3
-3
-4
-4
-7
-9
-10
-13
-17
-19
-23
-27
-30
-32
-33
-34
-34
-34
-34
-34
-33
-33
-33
-33
-33
-33
-34
-34
-28
-15
5
32
63
93
113
120
112
90
60
25
-8
-37
-60
-77
-88
-94
-94
-90
-82
-74
-64
-55
-48
-44
-39
-37
-35
-33
-32
-29
-27
-24
-23
-20
-18
-17
-14
-12
-9
-7
-4
0
6
11
17
23
30
37
43
50
57
61
65
68
71
75
75
76
77
77
78
77
77
76
75
72
68
66
60
55
48
41
32
25
16
8
2
-3
-8
-13
-17
-19
-22
-24
-27
-28
-28
-29
-30
-30
-30
-32
-32
-32
-32
-32
-32
-32
-33
-33
-33
-33
-33
-33
-33
-33
-33
-32
-30
-29
-29
-27
-25
-24
-23
-22
-20
-19
-18
-18
-18
-17
-17
-15
-15
-14
-14
-13
-13
-12
-12
-12
-12
-12
-10
-10
-9
-7
-5
-3
0
3
6
8
13
17
20
21
20
17
13
7
2
0
-3
-5
-8
-10
-15
-18
-22
-25
-27
-29
-29
-30
-30
-30
-30
-29
-29
-28
-28
-24
-14
1
25
57
90
118
132
130
108
73
31
-12
-50
-79
-100
-114
-119
-118
-113
-103
-90
-78
-64
-53
-44
-38
-32
-28
-25
-23
-20
-17
-14
-13
-12
-9
-8
-7
-5
-5
-5
-4
-3
-2
1
3
6
10
13
20
25
32
38
46
53
58
63
66
70
72
72
73
75
76
76
77
78
78
80
81
81
81
81
80
78
75
71
66
60
53
47
40
32
26
20
13
8
5
1
-3
-5
-7
-8
-10
-12
-13
-15
-17
-18
-19
-20
-22
-24
-25
-27
-27
-27
-28
-25
-23
-20
-17
-14
-10
-7
-3
1
5
8
8
7
3
-3
-8
-14
-18
-20
-22
-24
-27
-28
-32
-35
-38
-40
-42
-43
-44
-44
-44
-44
-45
-44
-40
-33
-18
3
31
60
83
97
95
78
45
3
-42
-83
-115
-138
-149
-149
-144
-132
-114
-97
-78
-62
-48
-39
-32
-27
-22
-19
-15
-13
-9
-7
-4
-3
-2
0
2
3
5
6
8
10
12
13
17
21
26
32
38
45
51
60
66
71
75
78
80
81
82
82
82
82
82
81
81
81
81
81
80
78
75
71
67
63
60
55
50
45
37
30
20
11
3
-2
-2
-2
-2
-2
0
-3
-4
-7
-9
-12
-15
-18
-22
-24
-25
-27
-28
-28
-28
-28
-29
-29
-30
-32
-33
-34
-35
-37
-37
-30
-18
0
23
46
63
71
65
45
12
-27
-67
-103
-130
-149
-157
-158
-150
-138
-123
-105
-90
-75
-64
-57
-50
-47
-44
-40
-38
-34
-32
-29
-25
-23
-19
-15
-12
-7
-4
0
2
6
10
16
22
28
37
46
53
60
66
71
76
78
80
81
81
81
80
78
78
77
76
75
73
71
68
66
61
56
50
42
36
28
21
16
8
3
-2
-7
-10
-15
-19
-20
-22
-24
-25
-25
-27
-28
-28
-27
-28
-29
-29
-30
-33
-34
-34
-35
-35
-34
-35
-34
-33
-33
-32
-30
-29
-29
-27
-25
-25
-24
-23
-22
-20
-18
-17
-17
-17
-15
-14
-14
-14
-13
-13
-13
-12
-12
-10
-10
-9
-9
-9
-8
-8
-5
-4
-2
2
3
6
10
13
18
22
23
25
21
16
11
6
3
2
1
-2
-3
-5
-9
-13
-15
-18
-20
-23
-24
-24
-24
-27
-27
-27
-28
-28
-27
-22
-9
12
43
80
115
140
148
141
116
81
42
3
-29
-57
-77
-92
-100
-103
-102
-95
-85
-77
-67
-58
-52
-47
-43
-39
-37
-34
-32
-28
-27
-23
-22
-20
-19
-18
-17
-18
-17
-15
-14
-13
-10
-9
-5
-3
0
5
10
17
23
30
35
40
45
48
51
53
56
57
58
58
60
61
62
63
66
70
72
77
78
77
73
68
62
56
51
47
45
41
36
30
25
17
10
3
-4
-8
-14
-19
-24
-27
-29
-30
-32
-33
-35
-37
-38
-40
-42
-44
-45
-45
-47
-47
-45
-38
-24
-4
26
58
87
105
107
93
65
26
-13
-52
-85
-108
-124
-132
-130
-125
-114
-102
-87
-73
-60
-50
-43
-38
-34
-30
-27
-25
-23
-20
-18
-14
-12
-8
-5
-3
1
3
7
12
17
22
30
37
45
52
60
66
72
77
81
85
86
87
87
87
86
86
85
82
80
77
75
71
67
62
57
51
46
38
30
23
16
8
3
-2
-5
-9
-12
-15
-18
-19
-22
-22
-23
-23
-23
-23
-22
-23
-24
-23
-24
-24
-24
-25
-25
-28
-28
-28
-29
-29
-29
-29
-29
-29
-29
-29
-28
-28
-27
-25
-24
-23
-23
-22
-22
-20
-20
-19
-19
-19
-18
-18
-18
-17
-17
-17
-17
-17
-17
-15
-15
-15
-14
-13
-12
-10
-7
-4
-3
0
3
8
12
17
21
22
22
18
13
8
3
1
-2
-4
-7
-10
-13
-15
-18
-22
-23
-24
-25
-25
-25
-25
-25
-25
-27
-27
-25
-24
-18
-5
15
41
70
95
110
108
91
58
16
-24
-63
-93
-113
-125
-129
-127
-119
-109
-97
-83
-68
-55
-45
-38
-32
-27
-24
-20
-17
-13
-9
-7
-7
-4
-3
-3
-2
-2
0
1
2
3
6
8
11
15
20
25
31
37
45
51
58
63
70
73
76
78
80
81
81
82
82
83
85
86
86
88
90
91
91
91
90
86
82
77
72
65
56
48
40
32
23
17
11
6
2
1
-3
-7
-9
-9
-12
-13
-14
-15
-17
-18
-19
-20
-22
-25
-27
-28
-29
-29
-28
-25
-22
-19
-15
-12
-8
-4
0
3
5
3
2
-2
-8
-13
-18
-20
-22
-24
-27
-28
-32
-35
-39
-43
-45
-47
-49
-50
-52
-53
-54
-54
-54
-52
-43
-27
-7
20
47
68
80
75
57
26
-12
-53
-88
-117
-135
-145
-147
-139
-129
-114
-98
-83
-69
-59
-50
-44
-39
-35
-32
-28
-25
-23
-20
-18
-17
-14
-12
-10
-9
-8
-7
-4
-3
-2
0
2
5
7
11
17
22
28
36
42
47
51
55
57
60
62
62
63
66
67
67
70
71
72
72
72
71
68
66
62
60
55
52
47
41
33
23
15
7
1
-2
-4
-3
-4
-4
-7
-9
-12
-15
-17
-20
-24
-28
-32
-34
-35
-35
-35
-37
-37
-35
-35
-34
-34
-34
-34
-34
-34
-34
-32
-25
-9
15
46
78
105
118
118
103
76
42
7
-22
-49
-69
-83
-90
-94
-92
-87
-78
-70
-62
-54
-49
-44
-40
-37
-34
-32
-29
-27
-25
-23
-20
-18
-15
-14
-10
-8
-5
-2
0
3
8
13
20
26
32
40
47
53
58
63
66
68
71
72
72
73
73
75
75
75
75
75
73
70
67
62
57
51
43
37
28
21
15
7
2
-4
-8
-13
-17
-20
-24
-25
-27
-28
-30
-30
-30
-30
-30
-32
-30
-30
-30
-32
-32
-32
-32
-33
-33
-33
-33
-33
-33
-33
-33
-32
-32
-30
-28
-27
-25
-24
-23
-22
-20
-19
-18
-17
-18
-17
-17
-15
-14
-14
-13
-13
-13
-12
-10
-10
-9
-9
-9
-8
-7
-4
-2
1
3
5
7
11
16
20
22
22
20
16
10
5
1
-2
-4
-7
-9
-12
-15
-19
-23
-25
-28
-29
-30
-30
-30
-30
-29
-29
-29
-28
-27
-22
-10
8
36
68
101
123
132
122
95
57
13
-27
-62
-89
-107
-117
-119
-117
-110
-99
-87
-74
-60
-50
-42
-35
-30
-27
-24
-20
-17
-15
-12
-10
-9
-8
-5
-5
-5
-4
-3
-2
0
1
2
5
8
12
17
23
31
37
45
51
57
62
67
70
72
75
76
76
76
76
77
77
78
81
81
82
82
82
82
81
78
75
71
66
60
52
46
38
31
25
18
13
7
3
-2
-4
-5
-7
-9
-12
-13
-15
-17
-18
-19
-20
-22
-24
-25
-28
-28
-29
-30
-29
-27
-23
-19
-17
-13
-10
-7
-3
1
3
5
5
2
-3
-7
-12
-17
-19
-22
-24
-27
-30
-33
-35
-38
-40
-42
-43
-44
-47
-47
-47
-45
-45
-43
-38
-28
-10
13
41
68
87
93
86
61
25
-18
-60
-99
-128
-147
-153
-150
-142
-127
-109
-90
-72
-57
-44
-35
-28
-23
-19
-15
-13
-10
-8
-5
-2
0
1
2
5
6
7
8
11
12
15
17
20
26
30
35
41
48
55
61
67
72
76
78
81
83
85
85
85
85
85
85
83
83
83
82
81
78
76
72
68
65
61
57
52
46
37
27
18
10
3
1
0
0
0
-2
-4
-7
-8
-9
-12
-14
-18
-20
-23
-25
-28
-29
-30
-30
-32
-33
-33
-34
-34
-35
-35
-37
-39
-39
-37
-28
-13
7
31
53
67
68
56
31
-5
-44
-83
-115
-139
-153
-157
-153
-144
-130
-114
-99
-84
-72
-63
-55
-49
-47
-44
-40
-38
-35
-32
-28
-24
-22
-18
-15
-12
-9
-5
-2
3
8
13
20
26
32
40
46
52
60
65
68
72
75
76
77
77
77
76
75
75
73
72
72
71
70
67
66
61
56
48
42
35
27
21
13
6
1
-3
-8
-13
-17
-18
-20
-22
-23
-24
-24
-25
-25
-27
-25
-27
-27
-29
-29
-30
-30
-32
-33
-34
-34
-33
-33
-32
-32
-30
-29
-29
-28
-27
-25
-24
-23
-22
-20
-19
-18
-17
-15
-15
-15
-15
-15
-14
-14
-13
-12
-12
-12
-12
-10
-10
-10
-9
-9
-7
-5
-2
1
2
6
8
12
16
20
22
23
23
20
15
11
7
5
2
1
0
-3
-5
-9
-12
-15
-17
-20
-22
-23
-24
-24
-27
-27
-28
-28
-28
-24
-17
0
23
57
93
126
146
148
133
103
65
25
-10
-42
-67
-84
-97
-103
-103
-98
-90
-82
-72
-63
-55
-49
-45
-40
-37
-32
-30
-27
-24
-22
-22
-19
-19
-18
-17
-15
-17
-15
-14
-13
-10
-8
-5
-3
0
5
10
15
21
28
33
38
43
47
50
52
55
57
60
60
61
62
62
65
65
68
73
76
78
80
77
72
66
60
55
50
46
42
40
35
28
22
15
7
0
-8
-10
-17
-22
-25
-27
-29
-32
-33
-34
-37
-38
-39
-40
-43
-44
-45
-47
-48
-48
-45
-35
-18
6
38
71
96
107
102
81
47
7
-34
-72
-99
-119
-132
-134
-132
-123
-112
-98
-83
-70
-58
-49
-42
-38
-34
-30
-28
-24
-23
-19
-17
-13
-10
-8
-4
0
3
6
11
15
21
27
33
41
50
57
65
71
76
81
85
86
87
87
87
87
86
86
85
82
80
77
73
70
66
60
55
48
42
35
28
21
13
7
1
-3
-8
-10
-14
-17
-19
-19
-20
-22
-23
-24
-24
-23
-24
-23
-23
-23
-23
-24
-24
-24
-25
-25
-25
-25
-25
-25
-25
-25
-25
-27
-27
-27
-25
-25
-25
-25
-24
-24
-23
-23
-22
-22
-22
-22
-20
-20
-19
-19
-19
-19
-18
-18
-18
-18
-18
-18
-18
-17
-17
-14
-12
-9
-7
-3
0
2
6
11
16
20
22
23
21
16
11
5
1
-2
-4
-7
-8
-10
-14
-17
-19
-20
-23
-23
-23
-23
-23
-23
-23
-23
-23
-23
-23
-20
-12
3
27
55
83
103
111
102
77
40
-3
-44
-79
-105
-120
-129
-129
-125
-117
-104
-89
-75
-63
-52
-43
-35
-30
-25
-23
-19
-15
-13
-10
-7
-4
-3
-3
-2
0
0
1
2
3
5
7
10
12
16
21
27
33
41
48
55
61
66
71
75
77
80
81
82
83
83
82
83
85
85
87
88
90
91
91
91
88
86
81
76
68
62
55
46
38
31
23
18
12
7
2
-2
-2
-4
-7
-9
-12
-13
-14
-17
-18
-19
-20
-22
-24
-25
-27
-28
-28
-28
-27
-24
-20
-17
-14
-10
-7
-3
1
3
5
5
1
-4
-10
-15
-19
-22
-24
-27
-29
-33
-35
-38
-42
-44
-45
-49
-50
-50
-52
-52
-52
-53
-50
-47
-35
-17
6
33
60
77
81
71
46
12
-28
-65
-99
-123
-138
-144
-142
-133
-120
-105
-89
-74
-62
-52
-45
-40
-37
-33
-29
-27
-24
-20
-18
-15
-14
-12
-10
-9
-8
-8
-7
-5
-4
-3
-2
2
5
8
15
20
27
33
38
43
48
52
55
57
60
61
63
65
66
67
70
71
72
71
71
71
68
67
63
60
57
53
50
46
40
31
22
13
6
1
-2
-3
-3
-4
-5
-7
-9
-12
-14
-17
-20
-24
-29
-32
-34
-35
-35
-35
-34
-34
-34
-33
-33
-33
-33
-32
-32
-33
-32
-27
-14
5
32
65
95
116
122
113
92
61
28
-4
-33
-57
-75
-85
-92
-93
-89
-82
-74
-65
-58
-50
-44
-40
-37
-35
-33
-30
-28
-27
-23
-20
-18
-17
-14
-12
-9
-7
-4
-2
1
5
10
15
21
27
35
41
48
53
58
62
66
68
70
71
71
72
73
73
75
75
73
72
71
68
63
58
53
46
40
31
23
16
8
2
-4
-9
-13
-17
-20
-23
-25
-27
-29
-29
-29
-30
-30
-29
-29
-30
-30
-30
-30
-32
-33
-34
-34
-34
-35
-35
-35
-34
-34
-34
-32
-30
-30
-29
-28
-27
-25
-25
-24
-23
-22
-20
-20
-20
-19
-19
-19
-18
-17
-15
-15
-14
-13
-13
-13
-12
-10
-12
-9
-8
-5
-3
0
1
5
7
11
15
18
23
25
23
20
15
10
5
1
-2
-4
-7
-10
-13
-17
-20
-23
-27
-28
-29
-29
-29
-29
-29
-30
-29
-29
-28
-24
-15
0
23
53
88
117
133
132
112
78
36
-8
-48
-79
-102
-113
-119
-119
-114
-104
-93
-79
-67
-55
-45
-38
-32
-28
-24
-22
-19
-17
-14
-12
-10
-8
-5
-4
-4
-3
-3
-2
-2
0
1
3
6
8
13
18
23
32
38
45
51
57
62
66
70
72
73
76
76
77
78
78
78
80
80
81
81
82
81
80
78
75
71
66
61
55
47
40
32
25
18
12
7
5
1
-3
-5
-8
-8
-10
-12
-14
-15
-17
-19
-20
-23
-24
-27
-28
-29
-30
-30
-30
-29
-25
-23
-19
-15
-12
-8
-7
-3
2
5
5
3
0
-5
-10
-14
-18
-22
-24
-25
-28
-30
-33
-37
-38
-40
-42
-43
-43
-43
-44
-44
-44
-43
-40
-33
-18
1
28
57
81
96
96
78
47
5
-38
-80
-114
-138
-148
-150
-145
-134
-118
-100
-82
-64
-50
-39
-32
-25
-20
-17
-13
-10
-8
-5
-3
-2
0
1
3
5
7
8
10
11
12
15
17
21
26
31
37
43
51
60
66
72
76
80
82
82
83
83
83
83
82
82
82
82
82
82
82
80
77
73
70
65
61
57
53
48
41
32
23
16
8
3
1
0
1
0
0
-3
-5
-8
-12
-14
-15
-18
-20
-23
-25
-28
-29
-29
-30
-32
-32
-32
-32
-32
-32
-33
-35
-37
-37
-32
-20
-3
18
42
61
68
62
42
11
-25
-67
-102
-130
-148
-158
-158
-152
-139
-124
-107
-90
-77
-65
-57
-52
-47
-44
-40
-38
-35
-32
-29
-25
-22
-18
-15
-13
-9
-5
-2
2
6
11
16
22
31
38
46
53
60
66
70
75
77
78
80
80
80
80
77
77
76
75
73
72
71
68
65
60
55
48
42
36
27
20
13
6
1
-4
-8
-13
-17
-19
-20
-23
-25
-27
-28
-27
-28
-29
-29
-28
-29
-29
-30
-30
-30
-32
-32
-32
-33
-34
-34
-33
-33
-33
-32
-29
-28
-27
-25
-23
-22
-20
-19
-18
-18
-18
-17
-17
-15
-15
-14
-14
-13
-12
-12
-10
-9
-8
-9
-8
-8
-9
-8
-8
-5
-3
0
2
5
7
10
12
18
22
25
25
23
18
13
10
6
3
2
1
-2
-4
-8
-12
-14
-18
-19
-20
-22
-22
-24
-24
-25
-25
-25
-27
-25
-23
-10
8
38
75
110
137
150
143
121
86
45
6
-27
-55
-77
-93
-102
-105
-103
-97
-88
-78
-69
-60
-53
-49
-44
-40
-38
-34
-32
-28
-27
-24
-22
-20
-19
-18
-17
-15
-14
-13
-12
-9
-8
-5
-2
0
3
7
13
18
23
30
37
42
47
52
56
58
61
62
65
66
67
68
70
70
72
73
73
75
75
73
72
68
65
58
52
46
38
32
25
18
12
6
1
-2
-4
-7
-10
-13
-14
-17
-18
-19
-20
-22
-23
-24
-27
-28
-30
-32
-33
-33
-32
-32
-29
-25
-20
-17
-12
-8
-5
0
3
7
10
10
7
2
-3
-8
-12
-14
-14
-15
-17
-19
-22
-23
-27
-29
-32
-34
-35
-37
-37
-38
-38
-38
-35
-30
-19
-2
27
60
92
117
128
122
98
61
16
-29
-69
-102
-122
-133
-135
-132
-120
-107
-90
-75
-60
-49
-40
-35
-30
-27
-23
-20
-17
-14
-13
-10
-9
-7
-5
-5
-4
-2
0
2
3
6
7
10
13
17
22
28
36
43
50
55
61
65
67
70
71
71
72
73
75
73
75
75
76
76
75
73
72
67
65
61
57
53
50
46
40
32
25
16
7
2
-2
-2
-2
-2
-3
-2
-4
-7
-8
-9
-13
-15
-19
-22
-24
-27
-28
-28
-28
-28
-29
-30
-30
-32
-33
-34
-35
-37
-38
-35
-27
-12
10
35
58
73
76
63
36
-2
-44
-85
-120
-145
-159
-164
-162
-152
-137
-118
-99
-82
-67
-55
-48
-40
-37
-34
-30
-27
-23
-20
-17
-14
-10
-7
-5
-2
2
6
11
16
22
28
36
43
52
60
67
73
81
86
90
91
93
93
93
92
91
88
87
86
85
82
78
76
75
71
66
61
56
50
42
36
27
21
15
8
2
0
-4
-7
-9
-12
-13
-13
-14
-14
-14
-14
-14
-14
-14
-14
-15
-15
-17
-17
-18
-19
-22
-22
-23
-24
-24
-24
-25
-25
-25
-25
-25
-24
-24
-24
-23
-23
-22
-22
-22
-22
-22
-20
-20
-20
-19
-19
-19
-18
-18
-18
-18
-17
-17
-15
-14
-13
-13
-12
-9
-7
-4
-2
2
5
7
12
16
22
25
25
21
17
12
6
2
-2
-5
-8
-12
-15
-19
-23
-25
-28
-30
-32
-33
-34
-34
-35
-35
-35
-35
-35
-34
-32
-22
-4
20
50
77
98
105
96
71
38
1
-35
-67
-90
-104
-113
-115
-113
-107
-97
-85
-73
-62
-53
-47
-40
-37
-34
-30
-28
-24
-23
-20
-18
-17
-15
-14
-14
-13
-12
-10
-9
-8
-7
-5
-3
0
2
6
11
18
23
31
37
42
47
52
56
58
62
63
66
67
70
72
72
76
77
78
80
81
82
82
81
78
76
71
65
57
50
41
33
26
18
11
5
0
-4
-8
-12
-14
-15
-17
-18
-19
-20
-22
-22
-23
-24
-27
-28
-29
-29
-29
-29
-28
-27
-23
-19
-14
-10
-5
-2
1
5
8
12
13
12
8
3
0
-5
-8
-9
-12
-14
-15
-17
-20
-23
-27
-28
-30
-32
-33
-34
-34
-35
-35
-34
-33
-25
-12
11
42
76
105
125
128
116
88
52
11
-25
-60
-87
-104
-114
-118
-115
-108
-98
-87
-75
-67
-58
-52
-47
-43
-40
-38
-35
-33
-29
-27
-24
-22
-20
-18
-15
-15
-13
-12
-10
-9
-7
-5
-3
0
3
8
15
20
26
31
36
41
45
48
51
53
56
58
60
61
63
63
65
66
67
67
67
65
62
60
56
52
50
46
41
33
26
17
10
3
-2
-3
-2
-2
-2
-3
-4
-3
-7
-9
-13
-15
-19
-23
-27
-29
-30
-32
-34
-34
-34
-35
-35
-35
-35
-35
-35
-35
-34
-32
-23
-9
15
45
76
101
115
110
90
55
12
-30
-69
-99
-122
-134
-137
-134
-125
-113
-99
-83
-69
-58
-49
-42
-38
-34
-32
-29
-27
-24
-23
-19
-17
-14
-10
-8
-5
0
3
7
13
18
25
31
38
48
56
63
70
76
81
85
87
88
90
90
90
90
88
86
85
85
83
80
78
75
70
65
58
53
46
38
31
23
16
11
5
0
-2
-5
-8
-10
-13
-14
-15
-17
-18
-17
-18
-19
-19
-19
-20
-20
-22
-22
-23
-23
-25
-27
-28
-29
-29
-30
-30
-32
-32
-32
-32
-33
-32
-32
-29
-28
-27
-27
-27
-25
-25
-25
-24
-24
-23
-23
-22
-22
-20
-20
-20
-19
-19
-18
-17
-17
-15
-14
-12
-9
-7
-3
0
2
6
10
13
18
22
25
23
20
15
8
3
0
-2
-4
-7
-9
-13
-17
-19
-23
-25
-27
-28
-29
-29
-29
-29
-28
-28
-29
-28
-25
-18
-5
13
37
66
90
103
103
86
53
12
-29
-68
-99
-120
-132
-135
-132
-124
-113
-99
-83
-68
-54
-43
-34
-28
-23
-20
-17
-14
-10
-8
-7
-4
-4
-3
0
0
1
2
3
5
7
8
12
15
18
25
30
36
42
48
55
62
67
73
77
81
82
83
85
85
86
86
85
86
87
87
88
90
90
90
88
86
83
80
75
70
63
56
48
40
32
25
18
13
8
5
1
-2
-2
-4
-5
-8
-10
-12
-14
-15
-18
-19
-20
-22
-23
-25
-27
-29
-28
-27
-24
-22
-18
-14
-12
-9
-5
0
2
3
3
1
-2
-8
-13
-18
-20
-23
-25
-28
-29
-33
-37
-39
-43
-44
-47
-48
-49
-50
-50
-52
-52
-52
-49
-42
-28
-7
20
47
70
82
80
63
32
-4
-44
-82
-112
-132
-143
-145
-139
-129
-115
-100
-84
-70
-60
-52
-44
-39
-35
-32
-29
-27
-23
-20
-19
-17
-15
-13
-12
-10
-9
-8
-7
-5
-4
-2
1
3
7
12
18
26
32
40
46
51
55
58
61
62
65
66
67
68
68
70
71
71
72
71
71
70
68
66
63
60
56
52
48
43
35
27
17
10
2
-2
-4
-4
-3
-3
-4
-7
-9
-13
-15
-19
-22
-25
-28
-30
-33
-33
-34
-34
-33
-33
-34
-34
-34
-34
-34
-33
-34
-34
-33
-25
-10
12
41
75
102
120
122
108
83
50
16
-17
-43
-65
-82
-92
-97
-95
-90
-83
-74
-65
-57
-50
-45
-40
-38
-35
-33
-30
-28
-25
-23
-22
-19
-17
-15
-13
-10
-8
-5
-3
2
6
11
16
25
31
38
45
51
57
62
66
68
71
73
75
77
78
77
77
77
76
76
73
72
68
65
60
53
46
38
30
21
15
6
1
-5
-9
-14
-18
-22
-24
-25
-27
-28
-29
-28
-29
-29
-29
-28
-29
-29
-29
-30
-32
-32
-32
-33
-33
-33
-33
-33
-33
-33
-33
-33
-32
-32
-30
-29
-28
-28
-27
-25
-24
-23
-22
-19
-18
-17
-15
-15
-14
-14
-13
-12
-12
-10
-10
-10
-9
-10
-9
-7
-5
-3
0
1
3
7
10
13
17
21
23
23
22
17
11
6
1
-2
-4
-8
-10
-13
-15
-19
-24
-27
-28
-29
-30
-30
-30
-30
-30
-30
-30
-29
-28
-23
-10
8
35
68
100
123
131
121
95
57
12
-29
-64
-92
-110
-119
-122
-119
-112
-100
-87
-73
-60
-50
-42
-34
-30
-27
-23
-19
-17
-14
-12
-9
-8
-7
-5
-5
-4
-3
-2
1
2
3
6
8
11
15
21
27
33
40
47
53
60
65
68
71
73
75
76
77
77
77
78
80
78
80
81
80
80
81
80
78
76
73
68
62
56
51
43
36
30
22
16
10
5
1
-2
-4
-7
-8
-10
-10
-13
-14
-15
-17
-19
-20
-22
-23
-24
-25
-28
-29
-29
-28
-25
-23
-19
-17
-13
-10
-7
-4
1
5
6
5
2
-3
-7
-13
-18
-22
-24
-25
-27
-30
-33
-35
-38
-40
-42
-44
-44
-45
-45
-45
-44
-44
-42
-35
-24
-5
18
47
72
91
96
85
58
21
-23
-67
-104
-132
-148
-154
-153
-143
-128
-109
-90
-73
-57
-44
-35
-29
-24
-20
-17
-14
-12
-8
-5
-3
0
0
2
3
5
7
8
11
12
15
17
21
26
31
37
42
48
56
62
67
71
75
78
80
80
81
81
81
81
81
81
81
81
81
80
78
77
73
71
67
63
58
55
50
43
35
25
17
8
3
0
0
-2
-2
-3
-2
-4
-5
-8
-9
-12
-15
-19
-22
-24
-27
-29
-29
-30
-30
-32
-32
-33
-34
-34
-35
-38
-40
-42
-39
-30
-15
5
28
51
65
68
56
30
-5
-44
-82
-113
-137
-149
-155
-153
-144
-130
-114
-97
-83
-70
-62
-54
-48
-44
-42
-38
-34
-32
-28
-25
-22
-18
-15
-12
-9
-5
-3
2
5
8
13
18
25
31
37
45
51
58
63
67
70
72
73
73
73
73
73
73
73
73
73
72
71
68
66
65
60
53
47
42
33
26
20
12
6
2
-4
-8
-13
-15
-18
-20
-22
-23
-23
-24
-24
-25
-25
-25
-27
-27
-27
-28
-28
-28
-30
-30
-30
-32
-32
-32
-30
-30
-29
-28
-28
-27
-25
-24
-23
-22
-22
-20
-19
-18
-17
-17
-15
-14
-13
-13
-12
-10
-9
-9
-9
-8
-8
-8
-8
-8
-7
-5
-4
-2
1
2
5
8
12
16
20
25
27
28
27
22
17
13
10
6
5
3
0
-3
-7
-12
-15
-19
-22
-24
-25
-28
-29
-29
-30
-30
-30
-32
-30
-28
-18
1
28
62
100
130
146
143
123
91
51
11
-23
-53
-75
-93
-103
-108
-107
-100
-92
-82
-72
-63
-55
-49
-47
-43
-39
-37
-33
-30
-28
-25
-23
-20
-19
-18
-17
-15
-14
-13
-12
-9
-8
-4
-2
1
5
8
13
20
26
32
38
43
48
52
56
58
61
62
65
66
68
70
71
72
73
73
73
75
73
73
71
68
65
60
53
47
41
33
27
20
13
7
2
-2
-3
-7
-9
-12
-14
-14
-17
-19
-20
-22
-24
-25
-28
-29
-29
-30
-32
-32
-32
-30
-28
-24
-20
-17
-12
-8
-4
-2
2
6
10
10
8
3
-2
-7
-10
-14
-14
-17
-19
-22
-24
-27
-29
-32
-34
-35
-38
-39
-39
-39
-39
-40
-38
-34
-24
-7
20
52
86
112
126
122
101
66
22
-23
-63
-98
-120
-133
-138
-135
-127
-113
-97
-82
-67
-54
-47
-39
-34
-29
-25
-23
-20
-18
-15
-13
-10
-10
-8
-5
-4
-3
-3
0
1
2
5
7
11
16
22
28
35
42
48
56
61
65
67
70
71
71
73
75
75
76
75
75
76
76
75
73
71
68
66
62
58
55
52
48
43
36
27
18
10
3
0
-3
-3
-2
-3
-3
-4
-7
-7
-9
-12
-14
-18
-20
-22
-24
-27
-28
-29
-29
-30
-32
-32
-33
-33
-34
-35
-37
-37
-34
-27
-12
8
33
57
73
77
66
42
5
-38
-79
-115
-142
-158
-165
-162
-153
-139
-120
-102
-83
-69
-57
-48
-42
-35
-32
-29
-27
-23
-19
-15
-12
-8
-5
-2
2
6
10
15
20
25
30
36
43
51
58
66
73
81
87
91
93
96
97
97
96
95
92
90
88
87
83
81
78
75
72
68
62
57
52
45
38
31
23
17
10
5
1
-3
-5
-8
-10
-12
-14
-14
-15
-17
-15
-17
-18
-17
-17
-17
-17
-17
-18
-19
-22
-23
-23
-24
-25
-25
-25
-25
-27
-27
-28
-27
-28
-28
-28
-28
-27
-27
-25
-24
-23
-23
-22
-22
-22
-22
-22
-19
-19
-19
-18
-18
-18
-17
-17
-15
-17
-14
-13
-10
-8
-4
-2
1
3
6
10
15
18
21
22
18
13
7
2
-3
-5
-8
-9
-12
-14
-18
-22
-24
-28
-29
-33
-34
-34
-35
-35
-37
-37
-37
-37
-35
-30
-20
-4
20
50
80
100
107
97
75
41
3
-32
-63
-85
-100
-109
-113
-110
-104
-94
-83
-72
-60
-52
-45
-40
-35
-33
-29
-27
-24
-23
-20
-19
-17
-17
-17
-15
-14
-13
-13
-12
-9
-8
-5
-3
0
3
8
13
18
26
32
38
45
50
55
58
62
65
67
68
70
72
73
76
78
78
80
81
81
81
81
80
77
75
70
63
57
50
42
35
27
20
13
7
2
-2
-4
-7
-9
-12
-13
-14
-15
-17
-18
-19
-22
-23
-24
-25
-27
-29
-29
-29
-29
-27
-24
-19
-15
-10
-5
-3
2
6
10
13
13
12
8
3
-2
-5
-8
-8
-10
-12
-14
-15
-19
-22
-24
-27
-28
-30
-33
-34
-34
-35
-37
-37
-33
-25
-9
13
46
80
108
125
126
111
82
43
2
-35
-68
-92
-108
-117
-119
-115
-108
-97
-85
-74
-64
-57
-50
-47
-43
-39
-37
-34
-30
-28
-27
-24
-23
-20
-19
-17
-15
-13
-12
-9
-9
-8
-4
-2
2
6
11
17
22
30
36
41
46
50
53
56
58
60
62
63
63
66
67
68
70
70
67
66
63
61
57
53
51
48
45
40
33
25
16
8
2
-2
-4
-3
-2
-2
-3
-4
-5
-8
-10
-14
-18
-22
-24
-27
-29
-30
-32
-33
-33
-33
-34
-34
-34
-34
-34
-34
-34
-33
-30
-23
-7
17
47
77
100
111
105
83
48
6
-35
-74
-104
-124
-137
-139
-137
-127
-114
-100
-85
-70
-60
-52
-45
-42
-38
-34
-30
-28
-25
-22
-19
-15
-13
-9
-8
-4
0
3
7
12
18
25
32
40
47
55
63
70
76
80
83
86
88
90
90
90
88
87
87
86
83
82
81
78
75
72
67
61
55
48
41
33
27
20
12
7
1
-3
-5
-7
-9
-12
-13
-15
-15
-17
-17
-18
-19
-19
-19
-18
-19
-20
-23
-23
-24
-25
-27
-27
-28
-28
-29
-29
-29
-30
-30
-29
-29
-29
-28
-28
-27
-27
-25
-24
-24
-24
-23
-23
-22
-22
-20
-20
-20
-20
-20
-19
-19
-19
-18
-18
-17
-15
-15
-13
-10
-9
-5
-3
1
5
10
15
20
23
25
23
20
13
8
2
-2
-3
-5
-8
-12
-14
-17
-19
-22
-24
-25
-27
-27
-28
-28
-28
-28
-27
-27
-25
-22
-14
-2
21
48
76
97
107
100
77
42
-2
-42
-78
-107
-122
-130
-132
-128
-118
-105
-90
-75
-60
-48
-40
-33
-27
-24
-19
-15
-13
-10
-7
-5
-4
-3
0
1
2
2
3
3
5
7
10
12
16
21
26
31
37
45
51
58
65
70
75
77
81
83
85
86
85
86
87
87
87
88
90
91
91
92
92
91
90
86
82
76
70
62
53
47
38
31
23
17
11
6
2
-2
-4
-7
-8
-10
-13
-14
-15
-17
-18
-19
-20
-23
-25
-29
-30
-32
-32
-30
-29
-27
-24
-20
-17
-12
-8
-5
-2
1
2
2
0
-5
-12
-17
-22
-25
-27
-28
-30
-32
-35
-38
-42
-44
-47
-48
-49
-50
-52
-52
-53
-52
-52
-47
-37
-19
3
32
58
77
85
76
53
20
-19
-57
-92
-117
-134
-140
-140
-135
-124
-110
-95
-80
-68
-58
-49
-44
-39
-35
-33
-30
-28
-24
-22
-19
-17
-14
-12
-10
-9
-8
-7
-5
-4
-4
-2
1
5
10
16
21
28
35
41
47
52
56
58
62
63
65
67
68
71
72
72
73
75
75
76
76
75
72
68
65
61
56
52
47
41
33
23
15
7
1
-3
-2
-2
-2
-3
-4
-7
-9
-12
-15
-18
-22
-24
-27
-29
-30
-32
-32
-32
-33
-33
-33
-33
-33
-33
-33
-32
-32
-32
-29
-19
-3
23
56
87
112
125
122
103
76
41
5
-25
-53
-73
-88
-98
-100
-99
-93
-84
-74
-67
-58
-52
-47
-43
-39
-37
-35
-33
-30
-28
-25
-23
-20
-18
-15
-12
-9
-5
-3
1
5
10
15
21
27
35
43
50
56
61
65
68
71
73
75
76
77
77
77
77
77
76
75
73
71
67
62
57
51
43
35
27
18
12
5
0
-7
-10
-14
-18
-22
-23
-24
-27
-27
-27
-27
-28
-28
-27
-28
-28
-29
-29
-30
-32
-33
-33
-33
-33
-34
-34
-35
-34
-33
-33
-32
-30
-30
-29
-28
-27
-25
-24
-23
-22
-20
-19
-19
-19
-18
-18
-17
-15
-15
-14
-13
-13
-12
-13
-13
-12
-10
-10
-9
-5
-4
0
1
3
7
10
13
18
21
22
22
18
13
7
2
0
-3
-5
-8
-10
-14
-18
-20
-24
-25
-27
-28
-29
-30
-30
-32
-32
-30
-29
-28
-24
-15
0
23
55
88
116
131
128
107
73
30
-14
-53
-84
-105
-118
-123
-122
-115
-105
-92
-78
-65
-54
-45
-38
-33
-28
-24
-23
-19
-17
-14
-12
-9
-8
-7
-5
-4
-4
-3
-2
0
1
3
6
8
12
16
21
27
33
41
48
55
61
67
71
72
75
76
76
77
78
77
78
80
80
81
82
82
82
82
81
78
76
71
66
60
53
47
40
32
25
18
12
6
2
-2
-4
-5
-8
-10
-12
-13
-14
-15
-17
-18
-19
-20
-23
-25
-28
-29
-30
-29
-29
-28
-24
-22
-18
-14
-9
-7
-4
0
3
5
6
3
0
-5
-12
-18
-20
-23
-25
-28
-29
-32
-35
-38
-40
-43
-43
-44
-44
-45
-45
-45
-44
-44
-39
-30
-17
5
32
60
83
95
92
73
40
-3
-45
-88
-120
-143
-153
-154
-147
-134
-117
-98
-79
-64
-50
-40
-32
-25
-20
-17
-14
-12
-9
-7
-5
-3
-2
1
3
5
6
7
8
11
12
15
18
21
26
31
37
43
51
57
63
70
73
77
80
81
82
83
83
85
85
86
86
86
86
85
85
82
80
76
72
67
63
60
55
48
42
33
23
13
6
0
-2
-2
-2
-2
-2
-3
-5
-8
-9
-12
-15
-19
-22
-25
-27
-29
-30
-32
-33
-33
-34
-35
-37
-38
-38
-39
-40
-42
-40
-35
-24
-7
16
41
60
70
67
48
17
-18
-58
-94
-122
-142
-152
-154
-149
-139
-124
-107
-92
-78
-67
-58
-52
-48
-43
-40
-37
-33
-30
-28
-25
-23
-20
-17
-14
-10
-7
-3
2
5
10
16
21
28
35
42
48
55
62
66
70
72
73
75
76
76
77
77
77
77
77
76
75
73
71
70
66
61
55
50
42
33
26
18
11
6
0
-5
-9
-12
-15
-18
-19
-22
-22
-23
-24
-25
-25
-25
-27
-27
-27
-27
-27
-28
-29
-30
-30
-30
-32
-33
-33
-32
-32
-29
-28
-27
-25
-24
-24
-23
-22
-20
-20
-19
-18
-17
-17
-17
-15
-15
-14
-14
-13
-12
-10
-10
-9
-8
-8
-8
-8
-7
-7
-4
-2
1
3
6
8
11
15
21
23
26
26
22
18
12
7
3
1
0
-3
-5
-9
-13
-17
-20
-24
-25
-28
-29
-29
-30
-30
-33
-33
-33
-33
-30
-24
-9
15
47
85
118
141
147
133
106
67
26
-10
-44
-69
-89
-103
-109
-109
-105
-98
-87
-78
-68
-59
-53
-49
-44
-40
-38
-34
-30
-27
-25
-22
-19
-18
-15
-14
-13
-12
-12
-10
-9
-7
-5
-3
0
3
8
13
18
25
31
38
43
48
53
57
60
62
65
66
68
71
71
73
75
75
76
76
76
76
76
73
71
68
63
58
52
46
38
32
25
18
12
6
1
-3
-4
-8
-10
-13
-15
-18
-18
-19
-20
-23
-24
-25
-27
-29
-32
-33
-33
-32
-32
-30
-27
-23
-19
-14
-10
-7
-2
2
7
10
11
10
5
0
-5
-9
-13
-15
-17
-18
-20
-23
-25
-28
-30
-33
-34
-35
-37
-37
-37
-38
-37
-38
-34
-27
-14
8
38
71
102
122
128
115
85
43
-4
-47
-84
-112
-130
-137
-137
-129
-117
-102
-84
-69
-58
-47
-38
-33
-28
-25
-23
-20
-18
-15
-13
-10
-8
-8
-7
-4
-3
0
0
1
3
5
7
12
16
20
26
32
40
47
53
58
63
66
70
71
73
75
75
75
76
76
76
76
75
75
73
72
70
66
62
58
55
52
48
43
37
30
20
11
3
-2
-4
-5
-5
-4
-5
-7
-8
-8
-10
-13
-15
-19
-22
-24
-27
-28
-29
-29
-30
-30
-32
-32
-33
-33
-34
-35
-37
-38
-37
-30
-19
0
25
48
68
78
72
51
17
-22
-65
-103
-133
-152
-162
-163
-158
-144
-128
-109
-90
-75
-62
-50
-44
-38
-33
-30
-27
-23
-20
-17
-14
-10
-8
-5
-2
3
7
12
16
22
27
35
41
48
56
65
73
80
86
90
93
96
96
96
95
93
92
91
88
87
86
83
81
78
73
70
66
61
55
50
42
35
28
21
16
10
5
0
-3
-5
-9
-10
-12
-13
-13
-14
-15
-15
-15
-17
-15
-17
-18
-18
-19
-19
-22
-22
-23
-23
-24
-24
-25
-27
-27
-27
-28
-27
-25
-25
-25
-25
-25
-24
-24
-23
-23
-23
-23
-23
-23
-22
-20
-20
-20
-20
-20
-20
-19
-19
-18
-18
-17
-17
-14
-13
-12
-8
-5
-3
0
3
5
8
12
17
17
16
12
7
3
0
-4
-8
-10
-13
-15
-19
-22
-25
-28
-29
-32
-33
-34
-34
-34
-35
-35
-35
-37
-37
-34
-27
-12
10
38
68
93
106
103
86
56
20
-17
-49
-75
-94
-104
-110
-110
-107
-98
-88
-75
-64
-55
-48
-42
-38
-34
-30
-28
-24
-23
-20
-19
-17
-14
-14
-13
-13
-12
-12
-12
-10
-9
-7
-4
0
2
7
11
16
22
28
36
42
48
55
58
62
65
67
68
71
73
73
76
78
78
80
82
82
83
83
82
80
77
73
68
62
55
47
40
31
23
16
8
3
0
-5
-8
-12
-14
-15
-18
-19
-20
-22
-23
-24
-25
-27
-29
-30
-30
-32
-32
-29
-27
-23
-18
-13
-9
-5
-2
2
6
10
12
13
11
8
3
-2
-7
-9
-12
-13
-15
-18
-20
-24
-27
-30
-33
-34
-35
-37
-38
-38
-38
-39
-38
-37
-30
-18
3
32
67
98
120
127
118
92
56
16
-22
-57
-84
-104
-115
-118
-117
-110
-99
-88
-77
-65
-58
-50
-48
-44
-42
-38
-35
-33
-30
-27
-24
-23
-20
-18
-17
-14
-13
-12
-12
-10
-9
-7
-3
0
6
11
16
22
28
35
41
45
48
52
56
58
60
62
62
65
66
67
68
68
68
68
67
66
63
58
56
53
50
47
42
36
28
20
11
5
0
-3
-3
-3
-3
-3
-3
-4
-7
-10
-14
-18
-22
-25
-28
-30
-30
-32
-32
-32
-32
-33
-33
-33
-33
-33
-33
-35
-34
-33
-25
-12
8
38
70
97
113
113
97
65
23
-19
-60
-94
-118
-132
-138
-137
-129
-118
-103
-88
-75
-63
-53
-48
-43
-38
-34
-32
-29
-25
-22
-19
-15
-13
-9
-7
-4
0
3
8
12
18
25
31
38
46
53
61
70
75
80
85
88
90
91
91
91
91
90
90
88
87
86
83
82
78
75
70
65
58
51
43
36
28
22
15
8
5
0
-4
-8
-10
-14
-15
-17
-17
-18
-19
-18
-19
-20
-20
-20
-22
-23
-24
-25
-27
-28
-29
-30
-30
-33
-33
-33
-33
-33
-33
-33
-33
-33
-32
-30
-29
-28
-27
-27
-25
-25
-25
-25
-24
-24
-23
-23
-23
-20
-20
-20
-19
-19
-18
-18
-18
-15
-15
-13
-9
-7
-4
-2
1
3
7
11
17
21
23
23
20
16
11
5
1
-2
-4
-7
-9
-12
-15
-18
-20
-22
-23
-24
-25
-25
-27
-27
-27
-28
-28
-28
-27
-20
-8
11
36
63
87
101
100
81
48
8
-34
-73
-104
-124
-134
-138
-135
-128
-115
-100
-85
-70
-58
-48
-39
-33
-29
-24
-22
-18
-14
-12
-9
-7
-4
-3
-2
0
1
2
3
5
6
8
11
15
18
23
28
35
41
48
55
61
67
72
76
80
82
83
85
85
86
86
87
88
90
91
92
93
93
93
93
92
90
86
81
75
67
61
52
45
36
28
22
16
10
6
1
-2
-3
-7
-9
-12
-14
-17
-18
-20
-23
-25
-28
-30
-33
-34
-37
-38
-38
-37
-33
-30
-25
-20
-17
-13
-9
-5
-2
1
1
-3
-5
-12
-17
-20
-24
-25
-28
-29
-32
-34
-38
-40
-44
-45
-47
-48
-49
-50
-52
-52
-52
-52
-48
-39
-25
-3
23
51
72
85
82
63
32
-4
-43
-79
-107
-127
-138
-139
-135
-127
-113
-98
-83
-70
-59
-50
-44
-40
-38
-34
-32
-28
-25
-23
-19
-17
-14
-14
-12
-9
-8
-7
-7
-5
-3
-2
2
3
7
12
17
25
32
38
45
50
55
58
62
63
65
66
68
70
70
71
72
73
75
75
73
72
71
67
65
60
57
53
48
42
35
26
16
8
1
-2
-4
-5
-5
-5
-5
-8
-10
-14
-18
-22
-25
-28
-32
-33
-34
-35
-35
-35
-37
-37
-35
-35
-34
-33
-33
-32
-32
-32
-29
-23
-8
15
45
77
107
126
128
116
90
56
18
-17
-47
-69
-87
-98
-102
-102
-98
-90
-82
-72
-64
-57
-52
-47
-43
-39
-37
-34
-33
-30
-29
-25
-23
-20
-17
-14
-10
-7
-4
0
2
7
12
18
26
33
40
47
53
58
62
66
70
72
73
75
76
76
77
76
76
75
75
72
70
66
62
57
51
46
38
30
23
15
8
2
-2
-8
-12
-17
-20
-22
-24
-25
-27
-27
-27
-28
-28
-28
-29
-29
-30
-30
-32
-33
-34
-34
-34
-35
-35
-35
-35
-35
-35
-34
-34
-33
-32
-32
-30
-29
-28
-27
-25
-23
-22
-20
-19
-18
-17
-15
-14
-13
-12
-10
-10
-10
-9
-9
-9
-9
-9
-8
-7
-4
-2
1
2
5
8
11
15
20
22
25
23
21
15
10
3
0
-4
-7
-9
-12
-14
-18
-20
-24
-25
-27
-28
-28
-30
-30
-30
-30
-30
-29
-28
-25
-17
-2
20
50
82
111
128
128
110
76
35
-8
-48
-80
-103
-117
-120
-120
-114
-104
-92
-78
-67
-55
-45
-39
-33
-28
-25
-22
-18
-17
-13
-12
-10
-8
-7
-4
-4
-3
-2
0
0
1
2
5
7
12
17
23
30
37
43
51
56
61
66
70
72
75
76
77
77
77
78
78
78
78
80
80
80
80
81
80
78
76
71
66
60
53
46
38
31
25
18
13
7
3
-2
-4
-5
-7
-9
-10
-12
-14
-15
-17
-18
-19
-20
-23
-25
-27
-29
-29
-32
-30
-29
-27
-23
-19
-17
-13
-8
-5
-2
2
5
5
3
-2
-7
-12
-17
-20
-22
-24
-27
-29
-30
-34
-38
-40
-43
-44
-45
-45
-47
-47
-45
-45
-44
-39
-30
-15
6
33
61
83
93
90
70
36
-5
-49
-90
-122
-143
-153
-153
-145
-132
-114
-95
-77
-60
-47
-35
-28
-23
-18
-15
-12
-9
-7
-4
-2
0
2
3
5
6
8
10
11
12
15
17
21
25
30
35
41
48
55
61
66
71
75
77
80
81
82
82
82
83
83
83
85
85
85
83
82
81
78
75
71
67
61
57
52
46
38
30
21
12
5
1
0
-2
-2
-3
-4
-5
-8
-10
-13
-15
-18
-22
-24
-28
-32
-33
-34
-35
-37
-38
-39
-40
-43
-44
-44
-45
-48
-48
-47
-39
-27
-4
21
46
66
73
67
47
15
-23
-62
-95
-122
-139
-148
-148
-143
-132
-117
-102
-87
-74
-65
-57
-53
-48
-44
-42
-38
-35
-33
-29
-27
-24
-20
-17
-14
-10
-8
-4
0
2
7
12
17
25
31
40
46
52
58
63
67
71
72
73
75
73
73
73
72
73
73
73
73
71
70
67
63
57
52
46
38
31
25
18
11
7
2
-4
-8
-12
-14
-17
-18
-19
-20
-20
-22
-23
-23
-23
-24
-24
-24
-25
-25
-25
-27
-27
-28
-29
-29
-29
-29
-28
-28
-27
-27
-25
-24
-23
-23
-22
-20
-19
-18
-17
-15
-15
-14
-14
-13
-13
-13
-13
-10
-9
-8
-8
-7
-7
-7
-5
-5
-4
-3
1
3
6
10
12
15
18
23
27
30
30
28
23
17
12
7
5
2
1
-3
-5
-9
-14
-18
-22
-24
-28
-29
-30
-32
-32
-33
-33
-34
-34
-35
-32
-22
-3
25
61
98
128
146
146
127
95
55
13
-22
-53
-78
-94
-104
-109
-108
-103
-94
-83
-73
-64
-57
-50
-48
-43
-40
-37
-34
-30
-27
-25
-23
-20
-19
-17
-15
-14
-13
-12
-10
-9
-7
-4
-3
0
3
8
12
18
26
32
38
43
48
53
56
60
62
65
66
66
68
70
70
71
72
72
73
73
72
71
70
67
63
58
53
48
42
35
27
20
13
7
2
-2
-4
-8
-8
-10
-13
-14
-17
-18
-19
-22
-23
-23
-24
-25
-28
-29
-30
-32
-32
-29
-27
-25
-20
-17
-13
-9
-4
0
5
7
10
10
6
1
-4
-9
-13
-14
-17
-18
-19
-22
-23
-27
-29
-33
-34
-35
-37
-39
-39
-39
-39
-39
-38
-34
-23
-5
21
55
87
112
125
118
96
58
13
-32
-70
-103
-124
-135
-139
-134
-124
-109
-93
-75
-60
-48
-39
-34
-29
-24
-22
-18
-14
-12
-9
-7
-4
-3
-2
0
1
2
3
5
6
8
10
12
16
20
25
30
36
43
50
56
61
66
70
72
73
75
75
76
75
75
76
76
76
76
75
73
71
70
66
62
60
55
51
47
41
33
23
15
6
0
-4
-4
-4
-4
-4
-4
-5
-7
-8
-12
-14
-17
-20
-23
-27
-28
-29
-29
-30
-30
-32
-32
-33
-33
-34
-35
-35
-38
-38
-34
-25
-10
11
35
58
73
77
63
36
-3
-44
-85
-119
-145
-159
-164
-160
-150
-135
-117
-98
-82
-67
-55
-47
-40
-35
-33
-29
-25
-22
-18
-15
-12
-9
-7
-4
1
5
8
13
17
23
30
36
45
52
61
68
76
82
87
92
95
96
96
95
95
93
92
90
87
86
83
81
78
76
72
68
62
56
51
42
36
27
21
13
7
3
1
-4
-8
-9
-12
-14
-14
-15
-15
-14
-15
-15
-14
-14
-15
-15
-15
-17
-17
-18
-19
-20
-20
-22
-23
-23
-24
-24
-25
-25
-27
-27
-28
-28
-27
-27
-25
-25
-24
-24
-23
-23
-22
-22
-22
-22
-22
-20
-20
-20
-19
-18
-18
-19
-18
-18
-17
-17
-15
-13
-10
-8
-5
-3
1
5
8
12
16
16
15
11
7
2
-2
-5
-9
-12
-13
-17
-19
-22
-25
-28
-29
-30
-32
-32
-33
-33
-33
-33
-33
-34
-33
-30
-24
-10
11
38
68
93
107
106
88
58
22
-14
-47
-73
-93
-104
-110
-112
-108
-99
-89
-78
-67
-59
-50
-44
-40
-37
-33
-29
-27
-23
-20
-20
-18
-18
-17
-14
-14
-13
-12
-10
-9
-8
-7
-4
-2
2
5
10
15
20
26
32
40
46
51
56
60
62
65
67
70
71
72
75
76
77
78
80
81
82
82
81
80
77
72
67
61
55
47
38
30
22
16
10
3
0
-4
-8
-10
-14
-17
-17
-18
-19
-20
-22
-23
-23
-24
-24
-25
-25
-25
-25
-25
-23
-20
-15
-12
-7
-2
1
6
10
12
15
15
12
7
3
-2
-7
-9
-12
-14
-15
-18
-20
-24
-29
-32
-35
-37
-39
-39
-40
-40
-40
-40
-40
-38
-29
-15
7
37
71
101
121
126
113
86
48
8
-29
-63
-89
-107
-117
-119
-117
-108
-98
-85
-74
-64
-55
-50
-45
-43
-39
-35
-33
-29
-27
-24
-22
-19
-17
-15
-13
-12
-9
-9
-8
-5
-4
-3
1
5
10
16
21
27
33
40
45
48
52
56
58
60
61
63
63
65
66
68
67
68
68
68
66
63
61
56
53
51
46
43
38
32
25
16
7
1
-4
-5
-5
-5
-5
-5
-5
-8
-10
-13
-17
-20
-24
-27
-30
-32
-33
-33
-33
-33
-33
-34
-34
-34
-34
-33
-33
-34
-34
-32
-24
-9
12
42
73
98
112
110
90
56
15
-29
-69
-99
-123
-135
-140
-138
-129
-115
-100
-87
-72
-60
-52
-45
-40
-38
-34
-32
-28
-25
-23
-20
-17
-13
-10
-7
-4
0
2
7
12
17
25
31
40
47
56
63
71
78
82
86
88
91
91
91
91
91
91
90
88
87
86
83
82
78
76
71
63
58
50
42
35
27
20
15
7
2
-2
-4
-8
-10
-12
-13
-14
-15
-15
-15
-15
-17
-17
-17
-18
-19
-19
-19
-20
-23
-24
-25
-25
-27
-28
-29
-29
-30
-32
-32
-32
-33
-32
-30
-30
-30
-29
-28
-27
-27
-25
-24
-25
-24
-24
-24
-23
-23
-20
-20
-19
-19
-19
-18
-19
-18
-17
-17
-14
-10
-8
-4
0
1
5
8
12
17
20
20
18
15
10
3
1
-3
-5
-8
-10
-13
-15
-19
-22
-23
-24
-25
-28
-28
-28
-27
-27
-27
-27
-25
-24
-20
-10
6
30
57
83
101
105
91
63
23
-18
-58
-90
-114
-129
-133
-133
-125
-115
-102
-87
-72
-58
-47
-38
-32
-28
-23
-20
-17
-13
-9
-7
-4
-2
0
0
1
2
3
5
6
7
8
11
13
17
21
26
32
38
46
52
61
66
71
76
78
81
83
85
83
85
85
86
86
87
88
90
90
90
91
90
88
86
85
80
73
66
58
51
42
35
27
20
13
7
2
1
-3
-7
-9
-12
-14
-17
-19
-20
-22
-24
-25
-28
-30
-32
-35
-37
-38
-38
-37
-33
-30
-27
-22
-18
-13
-9
-5
-2
1
2
0
-5
-10
-17
-19
-23
-25
-27
-28
-30
-34
-37
-39
-43
-45
-48
-50
-52
-53
-53
-54
-55
-54
-50
-45
-30
-10
15
43
67
81
80
65
36
1
-38
-74
-103
-124
-134
-138
-135
-127
-114
-100
-87
-73
-62
-54
-48
-43
-39
-37
-33
-29
-25
-23
-19
-17
-13
-13
-10
-9
-8
-7
-5
-3
-2
1
3
5
8
13
20
26
32
40
46
51
56
60
62
65
66
68
68
70
71
73
73
75
75
76
75
73
72
67
65
61
56
52
48
43
37
28
18
10
2
-2
-4
-4
-4
-5
-5
-8
-10
-13
-17
-18
-22
-27
-30
-32
-33
-34
-33
-33
-32
-32
-32
-30
-30
-29
-28
-28
-28
-28
-27
-20
-7
13
43
77
107
126
131
118
92
57
20
-14
-45
-69
-88
-99
-104
-104
-100
-94
-84
-73
-64
-55
-49
-45
-42
-39
-37
-34
-32
-29
-29
-25
-23
-19
-15
-13
-9
-7
-3
0
3
7
12
18
25
32
38
47
53
58
62
66
68
70
71
72
73
75
75
75
76
75
73
73
72
68
65
60
53
46
38
31
23
15
7
2
-3
-8
-13
-15
-19
-22
-24
-25
-25
-27
-27
-28
-28
-29
-29
-29
-30
-30
-30
-32
-34
-34
-35
-35
-37
-38
-38
-38
-38
-37
-35
-34
-34
-33
-32
-29
-28
-27
-27
-24
-23
-22
-20
-19
-18
-17
-15
-14
-13
-13
-12
-12
-10
-10
-10
-12
-10
-9
-8
-5
-2
0
1
5
8
12
16
20
23
25
23
20
15
8
3
0
-3
-5
-8
-12
-14
-18
-20
-23
-25
-27
-27
-28
-28
-28
-28
-29
-28
-28
-25
-23
-13
3
28
60
92
117
130
125
101
65
21
-22
-59
-89
-107
-118
-122
-120
-113
-103
-89
-75
-62
-52
-43
-35
-32
-27
-24
-20
-17
-14
-12
-9
-8
-7
-5
-4
-2
0
1
1
2
3
6
8
11
15
20
25
32
40
46
53
60
65
68
72
75
76
78
80
78
80
80
80
80
81
81
82
82
82
82
81
78
76
72
67
61
53
46
38
31
25
18
13
8
3
0
-4
-7
-8
-10
-12
-13
-15
-17
-18
-19
-22
-23
-24
-27
-28
-29
-29
-29
-28
-25
-23
-19
-17
-13
-9
-7
-3
0
3
5
5
1
-4
-9
-15
-19
-23
-25
-28
-29
-33
-35
-39
-42
-44
-45
-47
-47
-47
-47
-45
-47
-44
-42
-37
-24
-7
18
46
71
91
95
83
57
17
-27
-69
-108
-134
-150
-155
-150
-140
-124
-104
-85
-67
-53
-42
-32
-25
-20
-17
-13
-10
-8
-5
-3
-2
1
1
3
5
7
8
10
12
13
16
18
22
27
32
37
43
50
58
63
70
75
78
81
83
85
85
85
86
86
86
85
85
83
83
82
81
78
76
72
68
65
61
56
51
43
35
26
16
8
2
0
0
-2
-2
-3
-4
-7
-9
-12
-14
-18
-22
-25
-29
-33
-35
-37
-38
-39
-39
-40
-40
-42
-43
-44
-45
-47
-48
-48
-44
-33
-15
7
33
56
71
72
58
31
-3
-42
-79
-109
-133
-145
-150
-148
-140
-127
-112
-97
-82
-69
-62
-54
-49
-45
-43
-39
-37
-33
-30
-28
-24
-22
-18
-15
-12
-9
-5
-3
1
3
10
16
22
30
36
43
50
56
62
66
70
71
72
73
73
75
73
73
75
73
73
73
72
71
68
65
62
57
51
43
37
30
22
16
10
5
0
-4
-7
-10
-13
-17
-17
-18
-19
-20
-20
-20
-20
-22
-22
-22
-23
-23
-24
-25
-25
-28
-28
-28
-28
-28
-28
-27
-27
-25
-25
-24
-23
-22
-20
-18
-18
-17
-17
-15
-15
-14
-14
-14
-13
-12
-12
-10
-9
-9
-8
-8
-7
-7
-5
-5
-4
-4
0
2
3
7
10
13
17
22
26
28
28
26
22
17
12
7
5
2
1
-3
-5
-10
-14
-18
-22
-25
-28
-30
-33
-34
-35
-37
-37
-38
-38
-38
-34
-25
-8
20
55
92
123
142
143
126
95
55
15
-22
-53
-78
-94
-107
-113
-113
-108
-99
-88
-78
-68
-59
-53
-49
-45
-43
-39
-35
-32
-29
-27
-24
-22
-19
-17
-15
-13
-12
-10
-9
-7
-5
-3
-2
1
5
10
15
20
27
33
40
46
51
56
58
61
63
65
67
67
70
72
72
73
73
73
75
73
72
72
71
68
66
61
56
50
42
36
28
22
16
10
6
2
-3
-4
-7
-9
-10
-13
-14
-15
-18
-19
-20
-22
-23
-25
-25
-27
-28
-29
-28
-27
-25
-22
-18
-14
-10
-7
-4
0
5
8
11
10
7
2
-4
-8
-12
-15
-15
-17
-19
-22
-23
-27
-29
-32
-34
-35
-37
-39
-40
-40
-40
-40
-38
-34
-23
-4
22
55
87
112
123
117
95
57
13
-33
-73
-104
-127
-139
-140
-135
-125
-110
-94
-79
-64
-53
-43
-35
-32
-27
-23
-19
-15
-13
-9
-7
-5
-4
-2
0
0
1
2
5
6
7
10
12
15
21
25
31
37
45
52
58
63
67
70
72
73
75
75
75
75
75
76
76
75
75
75
73
72
68
66
62
56
52
50
45
40
32
23
13
6
0
-4
-5
-4
-4
-4
-5
-5
-8
-10
-13
-15
-18
-22
-24
-27
-28
-29
-29
-30
-32
-32
-33
-33
-33
-34
-34
-35
-38
-38
-35
-27
-10
10
35
58
73
76
65
37
0
-42
-83
-117
-143
-158
-162
-159
-149
-134
-115
-98
-80
-65
-54
-45
-39
-35
-32
-28
-24
-22
-18
-15
-12
-8
-5
-3
2
7
12
16
21
26
32
38
46
53
61
68
75
81
85
90
92
93
93
93
92
91
90
88
86
85
82
80
77
75
72
67
62
57
51
43
36
28
22
15
8
5
1
-3
-5
-8
-10
-13
-13
-14
-15
-15
-15
-15
-15
-15
-17
-17
-17
-18
-18
-18
-19
-20
-22
-22
-23
-24
-25
-24
-25
-25
-25
-25
-25
-25
-25
-27
-27
-25
-25
-25
-24
-24
-24
-24
-23
-23
-23
-22
-20
-19
-19
-19
-18
-18
-17
-18
-17
-15
-14
-12
-9
-7
-3
0
2
6
8
12
15
16
13
10
6
0
-4
-8
-10
-13
-15
-19
-22
-25
-28
-30
-32
-34
-35
-35
-37
-37
-37
-37
-37
-37
-35
-32
-23
-7
16
46
76
98
108
103
83
50
12
-22
-53
-78
-94
-105
-110
-110
-105
-97
-87
-74
-64
-55
-49
-43
-38
-35
-32
-29
-25
-24
-22
-19
-19
-18
-17
-15
-14
-13
-12
-10
-9
-7
-5
-3
1
5
7
12
18
23
31
37
43
48
53
58
62
66
68
70
72
75
75
76
77
78
80
80
81
81
81
78
77
73
70
63
58
51
43
36
27
20
13
6
1
-3
-7
-9
-10
-13
-14
-17
-17
-18
-19
-19
-20
-22
-23
-24
-25
-27
-27
-25
-24
-20
-17
-13
-9
-5
-2
1
3
7
10
11
10
7
2
-2
-8
-12
-13
-15
-17
-19
-22
-24
-28
-30
-33
-35
-38
-39
-39
-40
-42
-42
-42
-40
-35
-25
-7
20
53
86
113
126
123
103
72
32
-8
-45
-75
-98
-110
-118
-119
-114
-104
-93
-82
-70
-60
-53
-48
-43
-40
-37
-35
-33
-29
-27
-24
-20
-19
-18
-15
-14
-12
-10
-9
-8
-5
-4
0
1
6
11
16
22
28
33
38
45
48
51
53
56
57
60
60
62
63
65
66
67
68
67
67
65
61
57
55
51
47
45
41
36
28
21
12
5
-2
-3
-4
-3
-3
-3
-4
-4
-7
-10
-13
-17
-20
-24
-27
-29
-30
-33
-33
-33
-33
-33
-34
-34
-34
-34
-34
-34
-34
-33
-28
-17
0
27
58
87
108
116
105
78
40
-3
-47
-84
-112
-130
-139
-140
-135
-124
-109
-95
-80
-67
-57
-48
-42
-39
-35
-32
-29
-27
-23
-22
-18
-15
-12
-9
-7
-4
1
5
8
15
20
27
35
42
48
56
62
68
73
80
82
85
86
87
87
87
86
85
85
85
83
82
80
78
76
71
66
60
52
45
37
30
22
17
11
5
0
-3
-5
-8
-10
-12
-12
-13
-14
-15
-15
-18
-19
-18
-18
-19
-19
-19
-22
-23
-24
-25
-27
-28
-29
-30
-30
-32
-30
-32
-32
-32
-32
-32
-32
-30
-30
-29
-28
-27
-25
-25
-24
-24
-23
-24
-24
-23
-22
-20
-20
-19
-18
-18
-18
-17
-15
-15
-13
-10
-7
-3
0
2
6
10
15
18
21
22
20
16
10
5
0
-3
-5
-8
-10
-13
-15
-19
-22
-24
-25
-27
-28
-28
-28
-27
-27
-27
-27
-27
-24
-20
-10
5
28
56
83
103
110
101
75
36
-7
-49
-83
-109
-124
-132
-133
-127
-115
-103
-87
-72
-59
-47
-38
-30
-27
-23
-19
-15
-13
-9
-7
-5
-3
-3
-2
0
1
2
2
2
3
6
8
11
15
18
23
30
36
43
51
57
63
68
72
76
78
81
81
82
82
82
81
81
81
83
86
87
91
95
97
97
93
88
81
73
67
61
56
51
46
40
33
26
20
12
6
0
-4
-10
-15
-18
-20
-23
-25
-27
-29
-32
-34
-37
-38
-40
-43
-45
-48
-50
-52
-49
-40
-25
-4
20
42
58
63
53
31
-3
-38
-74
-104
-128
-144
-150
-150
-144
-132
-118
-102
-85
-73
-63
-55
-49
-45
-42
-39
-37
-33
-30
-27
-23
-19
-17
-14
-12
-8
-5
-2
2
7
12
20
26
33
40
46
52
57
61
65
67
71
72
72
73
72
72
71
71
71
70
68
67
65
62
57
52
47
41
33
28
21
15
7
3
-2
-5
-10
-13
-17
-19
-22
-22
-23
-23
-23
-24
-24
-24
-24
-25
-27
-27
-28
-28
-28
-29
-29
-29
-30
-30
-30
-30
-30
-30
-29
-28
-28
-27
-24
-23
-22
-20
-18
-17
-17
-15
-14
-13
-13
-12
-10
-10
-9
-9
-8
-8
-7
-7
-5
-5
-5
-4
-3
0
1
3
7
10
12
16
20
25
28
31
31
27
22
17
11
7
5
2
1
-2
-5
-9
-13
-15
-19
-22
-24
-27
-28
-29
-30
-30
-32
-32
-34
-33
-29
-18
2
32
70
108
138
153
151
130
95
53
12
-23
-54
-78
-94
-105
-110
-109
-104
-95
-84
-74
-65
-58
-53
-48
-44
-43
-39
-35
-33
-30
-29
-28
-25
-23
-22
-19
-18
-17
-14
-13
-12
-9
-7
-4
-2
1
5
10
17
23
30
36
41
46
51
55
57
60
62
65
66
66
67
67
68
68
70
70
71
71
70
68
66
62
58
53
47
41
33
26
20
13
7
3
0
-4
-7
-8
-10
-12
-14
-17
-18
-19
-20
-22
-23
-24
-25
-28
-29
-29
-30
-29
-28
-24
-20
-17
-12
-8
-5
-2
2
6
10
10
8
5
0
-5
-10
-13
-14
-15
-18
-20
-22
-24
-27
-29
-32
-34
-35
-37
-37
-38
-38
-38
-38
-33
-25
-10
13
43
77
106
125
127
112
80
37
-8
-50
-88
-113
-129
-135
-134
-125
-113
-99
-84
-69
-57
-47
-38
-34
-29
-25
-22
-19
-15
-13
-12
-9
-7
-5
-3
-3
0
1
2
3
5
7
10
12
17
22
27
35
42
48
55
60
66
70
72
73
75
73
75
75
73
73
72
72
72
72
71
70
67
63
60
57
55
51
46
41
35
26
17
8
2
-2
-4
-4
-4
-5
-4
-7
-7
-9
-12
-14
-17
-20
-23
-25
-27
-28
-29
-30
-30
-30
-30
-32
-32
-33
-34
-35
-37
-38
-37
-30
-15
5
30
53
72
80
71
47
11
-29
-73
-109
-138
-155
-164
-163
-155
-140
-123
-104
-85
-70
-58
-48
-43
-38
-33
-29
-27
-23
-19
-15
-13
-9
-5
-3
1
3
7
12
17
22
28
35
43
51
58
66
73
80
87
91
93
95
96
96
95
93
92
91
88
86
83
81
78
76
73
70
65
60
53
47
40
32
23
16
10
6
1
-2
-3
-7
-8
-9
-10
-12
-12
-13
-13
-13
-13
-14
-13
-14
-15
-15
-18
-19
-19
-20
-20
-22
-23
-24
-24
-25
-25
-27
-27
-27
-27
-27
-27
-27
-25
-25
-25
-24
-24
-23
-23
-23
-23
-22
-22
-22
-20
-20
-19
-19
-19
-19
-18
-18
-17
-15
-13
-10
-9
-7
-4
-2
1
5
8
12
13
15
12
8
6
0
-5
-9
-12
-14
-17
-19
-22
-24
-28
-30
-32
-33
-34
-34
-35
-35
-35
-35
-35
-35
-34
-33
-25
-10
12
41
71
96
108
105
86
56
18
-18
-50
-78
-95
-107
-113
-113
-108
-99
-89
-78
-67
-57
-49
-43
-39
-35
-33
-30
-27
-25
-23
-20
-18
-18
-17
-15
-14
-13
-12
-10
-9
-8
-5
-3
0
5
7
12
17
25
32
38
43
50
55
58
61
65
67
70
70
71
73
73
76
77
78
80
80
81
81
80
78
75
71
66
60
53
46
37
30
22
15
8
3
0
-4
-7
-9
-12
-14
-17
-18
-19
-20
-22
-22
-23
-24
-25
-27
-28
-29
-29
-27
-24
-20
-15
-10
-7
-2
1
5
8
11
12
11
7
2
-3
-8
-10
-13
-15
-17
-18
-20
-23
-27
-29
-33
-35
-37
-38
-38
-39
-40
-40
-40
-40
-35
-25
-7
17
50
83
110
125
122
103
72
32
-8
-45
-75
-98
-112
-119
-119
-113
-104
-93
-82
-72
-63
-55
-49
-44
-42
-38
-34
-33
-30
-27
-24
-22
-20
-19
-17
-14
-13
-10
-9
-7
-5
-3
0
2
6
10
16
22
28
33
40
45
48
52
53
56
57
57
60
61
63
65
66
67
67
67
66
65
61
58
56
51
50
47
43
37
30
22
13
6
1
-2
-3
-3
-2
-2
-3
-4
-7
-9
-12
-17
-20
-24
-28
-30
-32
-33
-34
-34
-34
-34
-34
-35
-35
-35
-37
-37
-37
-35
-32
-19
1
28
58
88
108
113
101
72
33
-9
-52
-87
-113
-129
-137
-138
-132
-120
-107
-92
-79
-65
-55
-48
-43
-39
-37
-33
-30
-27
-24
-20
-17
-14
-13
-9
-7
-4
0
5
10
15
21
27
35
42
50
58
65
71
76
80
85
86
87
88
88
87
87
86
86
85
83
83
81
78
76
71
66
60
55
47
38
32
25
17
12
6
1
-2
-5
-7
-8
-10
-12
-13
-14
-15
-17
-17
-17
-18
-18
-19
-20
-20
-22
-22
-24
-25
-25
-27
-28
-29
-30
-30
-32
-33
-33
-32
-32
-32
-30
-30
-29
-28
-28
-27
-27
-27
-25
-25
-24
-23
-23
-22
-22
-22
-22
-20
-20
-20
-19
-18
-17
-14
-12
-10
-7
-3
0
2
6
11
16
21
23
25
23
18
12
7
3
0
-3
-5
-8
-10
-13
-17
-19
-20
-22
-24
-24
-24
-24
-24
-24
-24
-23
-23
-22
-17
-7
10
35
62
87
103
107
93
65
26
-17
-57
-90
-115
-129
-134
-133
-127
-115
-102
-87
-72
-58
-47
-38
-30
-25
-23
-19
-17
-13
-10
-8
-7
-4
-4
-3
-2
0
2
3
5
6
8
11
13
17
22
27
33
40
47
55
61
67
72
77
80
82
83
85
86
86
86
86
87
88
88
90
91
92
92
91
90
87
83
78
72
67
60
51
42
35
27
21
16
10
5
1
-2
-4
-7
-9
-12
-13
-15
-17
-19
-20
-23
-25
-27
-29
-30
-32
-32
-32
-32
-27
-24
-20
-18
-14
-10
-7
-3
0
1
0
0
-5
-12
-17
-20
-23
-25
-28
-30
-33
-37
-40
-42
-45
-47
-49
-50
-52
-52
-53
-53
-54
-53
-50
-40
-24
-2
25
52
73
82
76
56
23
-14
-53
-87
-114
-132
-140
-142
-137
-124
-110
-95
-82
-69
-59
-52
-47
-42
-38
-35
-32
-29
-25
-24
-20
-18
-15
-13
-12
-10
-8
-7
-5
-4
-2
0
1
5
10
16
21
27
33
40
47
52
57
61
63
66
66
67
68
70
71
71
72
73
75
75
75
72
70
67
65
62
58
55
51
43
36
26
17
8
1
-2
-3
-3
-3
-2
-3
-5
-8
-12
-14
-18
-22
-25
-28
-30
-32
-32
-32
-32
-32
-33
-32
-32
-30
-30
-29
-29
-29
-29
-27
-17
-2
26
58
90
115
127
122
103
73
38
2
-29
-55
-77
-92
-100
-103
-102
-95
-87
-77
-68
-60
-54
-48
-45
-43
-40
-38
-34
-32
-29
-27
-23
-20
-18
-15
-13
-10
-7
-3
0
5
10
15
21
27
35
43
51
57
62
66
70
72
73
75
76
75
76
76
76
76
76
75
73
71
67
63
58
52
45
37
28
21
15
7
1
-4
-8
-12
-15
-18
-20
-22
-22
-24
-25
-24
-25
-27
-27
-28
-28
-29
-30
-30
-32
-32
-34
-35
-35
-37
-37
-37
-37
-37
-37
-35
-35
-34
-33
-32
-30
-29
-28
-25
-24
-22
-20
-19
-18
-18
-17
-15
-14
-14
-12
-12
-12
-10
-10
-10
-9
-8
-8
-4
-2
0
2
5
8
12
16
20
23
25
22
18
13
7
2
0
-4
-7
-9
-12
-14
-18
-22
-24
-27
-28
-29
-30
-30
-32
-32
-32
-32
-32
-30
-25
-15
0
25
56
88
115
128
123
101
65
23
-19
-58
-85
-105
-117
-120
-119
-112
-102
-89
-75
-62
-50
-42
-37
-32
-27
-24
-22
-19
-15
-13
-10
-8
-7
-5
-4
-4
-3
-2
0
1
3
5
7
11
15
20
25
31
38
45
51
57
62
67
71
73
76
77
78
78
78
80
80
80
81
81
82
82
82
82
81
78
75
71
65
58
52
45
38
31
23
17
11
6
2
0
-4
-7
-8
-9
-10
-12
-14
-15
-17
-18
-20
-23
-24
-25
-28
-29
-30
-29
-28
-27
-23
-20
-17
-13
-9
-7
-2
2
5
5
2
-3
-8
-13
-18
-22
-25
-27
-28
-32
-34
-38
-40
-43
-43
-45
-45
-45
-45
-45
-44
-45
-44
-40
-34
-20
0
25
52
77
92
93
77
48
7
-35
-77
-112
-137
-150
-153
-148
-135
-119
-102
-82
-64
-50
-39
-30
-24
-20
-18
-14
-10
-8
-5
-4
-3
0
1
3
6
7
8
10
11
12
15
18
21
26
31
38
46
53
60
66
72
77
80
82
85
86
86
85
85
85
85
85
86
85
83
82
81
78
76
72
68
65
61
57
51
43
35
25
15
7
2
0
-2
-2
-2
0
-3
-4
-7
-9
-12
-15
-18
-22
-25
-28
-30
-32
-33
-34
-35
-37
-38
-39
-40
-42
-44
-45
-47
-47
-42
-30
-12
11
36
57
68
66
50
21
-15
-54
-92
-119
-139
-149
-152
-148
-137
-123
-107
-92
-78
-68
-58
-52
-48
-44
-40
-37
-34
-32
-28
-25
-23
-20
-17
-14
-10
-8
-4
0
2
7
12
18
26
32
40
47
53
58
63
67
71
72
73
75
76
75
76
76
75
73
73
72
71
68
66
62
58
52
46
40
32
23
17
11
5
1
-3
-7
-10
-14
-17
-19
-19
-20
-22
-23
-22
-22
-23
-23
-23
-23
-24
-25
-27
-27
-28
-28
-28
-29
-30
-30
-29
-28
-27
-27
-25
-24
-24
-23
-22
-20
-19
-18
-17
-15
-15
-14
-14
-13
-12
-12
-10
-10
-9
-9
-8
-8
-7
-5
-5
-4
-4
-2
0
2
6
10
12
16
20
25
27
30
28
25
20
13
8
5
2
0
-3
-5
-9
-14
-18
-20
-23
-25
-27
-28
-29
-29
-30
-32
-32
-33
-33
-30
-24
-8
16
50
86
118
140
145
131
102
65
23
-12
-44
-70
-90
-103
-108
-109
-104
-97
-85
-75
-67
-59
-53
-48
-44
-40
-37
-33
-30
-28
-24
-22
-22
-19
-18
-17
-15
-14
-13
-12
-10
-9
-7
-4
-3
1
5
10
16
22
28
35
41
46
52
56
58
61
63
65
67
67
68
70
71
72
72
73
73
73
72
71
68
66
62
58
52
46
38
31
25
18
12
7
2
-3
-7
-8
-9
-12
-13
-15
-17
-18
-19
-20
-22
-23
-24
-27
-28
-28
-29
-29
-28
-25
-22
-19
-15
-12
-8
-4
0
5
8
11
11
7
3
-3
-8
-12
-13
-15
-18
-20
-20
-24
-27
-29
-32
-33
-34
-35
-37
-38
-38
-38
-39
-37
-32
-20
-2
26
58
91
116
127
120
95
57
11
-33
-74
-104
-125
-138
-139
-134
-124
-109
-93
-78
-64
-53
-44
-37
-32
-29
-25
-22
-19
-15
-13
-10
-8
-7
-5
-3
-3
-2
0
2
3
6
8
11
15
18
25
31
37
43
51
58
62
67
70
71
72
73
73
73
73
75
76
75
75
75
73
72
70
66
63
60
56
53
50
46
41
32
25
16
7
2
-2
-3
-3
-2
-2
-4
-5
-7
-9
-12
-14
-17
-20
-23
-24
-27
-28
-28
-29
-30
-30
-32
-32
-33
-33
-34
-35
-37
-37
-34
-23
-8
16
41
62
76
76
60
31
-8
-50
-90
-124
-147
-160
-164
-158
-148
-132
-115
-97
-79
-65
-54
-45
-39
-34
-30
-27
-23
-20
-17
-14
-10
-8
-5
-2
3
7
12
17
22
28
33
40
47
55
62
70
76
83
88
92
93
96
97
96
95
92
91
88
86
85
81
78
77
75
71
66
62
56
50
42
35
28
21
15
8
2
0
-4
-8
-9
-10
-12
-13
-13
-14
-14
-14
-14
-14
-13
-14
-14
-15
-15
-18
-19
-19
-20
-22
-22
-23
-24
-25
-27
-28
-27
-27
-28
-28
-28
-28
-27
-27
-25
-25
-25
-25
-25
-25
-24
-24
-23
-23
-23
-22
-22
-20
-18
-17
-18
-17
-15
-14
-14
-12
-8
-5
-3
0
3
7
11
15
17
18
16
13
7
3
-3
-7
-10
-13
-14
-17
-19
-22
-25
-28
-30
-33
-33
-34
-34
-34
-34
-35
-35
-35
-35
-32
-24
-10
11
40
68
93
106
102
85
55
17
-18
-50
-77
-94
-105
-112
-110
-105
-97
-87
-75
-65
-55
-48
-42
-38
-34
-32
-28
-27
-23
-22
-20
-18
-17
-15
-15
-14
-14
-13
-12
-10
-9
-7
-4
0
3
6
11
17
23
30
36
42
47
52
56
60
62
63
66
68
71
71
73
75
76
77
80
81
82
82
82
80
77
73
68
62
55
47
38
31
22
16
10
3
0
-5
-8
-12
-14
-15
-17
-19
-20
-20
-22
-23
-25
-27
-28
-28
-29
-29
-28
-28
-25
-20
-17
-12
-7
-3
0
5
8
11
12
13
10
5
0
-5
-9
-12
-14
-15
-18
-20
-23
-27
-28
-30
-33
-34
-37
-38
-39
-39
-39
-39
-38
-35
-27
-9
16
47
81
110
125
125
107
76
38
-2
-39
-70
-94
-109
-117
-118
-114
-105
-94
-83
-70
-62
-54
-48
-44
-40
-38
-35
-32
-29
-27
-24
-22
-19
-19
-17
-15
-13
-13
-10
-9
-7
-4
-3
1
5
8
13
21
27
32
37
43
47
51
53
56
58
60
62
63
66
66
67
67
68
68
68
66
63
61
57
53
51
47
42
37
31
22
13
5
0
-4
-5
-5
-5
-4
-5
-5
-8
-10
-13
-17
-20
-24
-27
-29
-33
-34
-34
-34
-34
-34
-34
-34
-34
-34
-34
-34
-35
-34
-30
-19
-2
25
56
86
107
113
103
77
38
-4
-45
-82
-109
-127
-134
-135
-130
-120
-107
-93
-78
-65
-55
-48
-42
-38
-34
-32
-28
-25
-24
-20
-18
-14
-10
-9
-5
-2
1
6
10
16
22
28
35
42
51
58
66
72
77
82
86
88
90
91
91
91
88
88
88
87
86
85
82
80
77
72
68
62
56
50
41
33
26
18
12
6
2
-3
-5
-8
-9
-10
-13
-14
-14
-14
-15
-17
-18
-18
-19
-20
-20
-22
-23
-23
-24
-25
-25
-27
-28
-28
-29
-30
-30
-32
-32
-33
-33
-33
-32
-32
-30
-29
-29
-28
-28
-27
-25
-25
-24
-23
-23
-23
-22
-22
-22
-22
-20
-19
-18
-17
-15
-13
-12
-8
-5
-2
1
3
8
12
17
21
23
23
22
17
11
5
1
-2
-4
-5
-8
-9
-13
-15
-18
-20
-22
-23
-23
-24
-24
-27
-27
-27
-27
-27
-24
-18
-7
8
33
61
86
102
103
88
57
16
-25
-65
-98
-120
-132
-135
-133
-127
-115
-100
-85
-70
-58
-48
-39
-33
-28
-24
-20
-18
-14
-10
-8
-5
-4
-3
-2
1
2
5
6
7
10
11
15
17
21
25
30
36
41
48
56
62
67
72
76
80
81
82
83
85
86
86
87
88
90
90
91
92
93
93
92
91
88
85
80
75
67
60
51
42
35
26
21
15
8
5
1
-2
-4
-7
-8
-10
-13
-15
-18
-19
-22
-23
-25
-28
-30
-33
-34
-35
-34
-33
-30
-27
-23
-20
-15
-12
-8
-4
0
1
0
-4
-8
-14
-19
-24
-27
-28
-30
-33
-34
-37
-40
-44
-47
-48
-49
-50
-50
-53
-53
-53
-53
-52
-48
-38
-20
3
32
58
77
82
73
50
16
-22
-60
-93
-118
-134
-140
-140
-133
-122
-108
-93
-79
-67
-57
-49
-43
-40
-37
-33
-29
-28
-24
-22
-20
-18
-15
-14
-12
-10
-9
-7
-4
-3
0
2
6
8
12
17
23
31
38
46
51
57
61
63
66
67
70
71
73
75
77
78
80
81
81
81
81
78
77
75
71
66
60
52
45
36
28
20
13
7
2
-3
-7
-9
-13
-14
-17
-18
-19
-19
-20
-22
-22
-23
-23
-23
-24
-25
-25
-25
-25
-28
-28
-27
-27
-25
-22
-18
-13
-8
-4
1
3
7
11
15
17
17
15
11
5
1
-4
-7
-8
-9
-10
-13
-15
-19
-23
-27
-29
-32
-34
-35
-37
-38
-39
-40
-39
-38
-32
-19
1
31
63
95
117
126
116
91
56
15
-24
-59
-85
-105
-117
-119
-117
-109
-98
-87
-74
-65
-55
-49
-44
-40
-37
-34
-30
-27
-24
-20
-18
-15
-13
-12
-9
-8
-7
-5
-3
-2
0
1
3
6
10
15
20
27
33
40
45
48
52
56
58
60
62
65
65
66
67
67
67
68
68
68
68
66
62
60
56
52
47
43
40
33
26
17
8
1
-5
-8
-8
-7
-7
-5
-7
-7
-9
-12
-15
-19
-23
-25
-28
-30
-32
-33
-33
-33
-33
-34
-34
-34
-34
-34
-34
-34
-34
-34
-30
-19
-2
23
55
85
106
115
105
80
42
0
-43
-79
-107
-124
-135
-138
-133
-123
-109
-94
-80
-67
-55
-49
-43
-39
-38
-34
-32
-27
-23
-20
-17
-14
-12
-9
-7
-3
1
5
10
15
21
27
35
42
50
60
67
73
80
83
87
90
90
91
91
90
88
88
88
87
87
85
83
81
77
72
67
61
55
47
38
31
23
16
10
3
0
-5
-9
-12
-14
-15
-18
-17
-18
-18
-19
-18
-19
-20
-19
-20
-20
-23
-23
-24
-25
-27
-28
-29
-30
-32
-32
-32
-33
-33
-33
-33
-32
-32
-32
-30
-29
-29
-28
-27
-27
-25
-24
-24
-23
-23
-23
-23
-22
-22
-22
-20
-20
-19
-19
-18
-17
-14
-10
-7
-5
-2
1
5
8
13
18
22
23
22
18
13
8
2
0
-2
-4
-7
-10
-13
-15
-18
-22
-24
-25
-25
-27
-28
-28
-29
-29
-29
-29
-28
-25
-17
-3
18
45
72
93
103
97
73
40
-2
-45
-80
-109
-127
-135
-137
-133
-123
-110
-95
-79
-64
-52
-42
-35
-29
-24
-22
-18
-15
-13
-9
-7
-4
-3
0
0
1
2
3
5
6
7
10
12
15
20
25
30
36
45
52
58
65
70
73
77
80
81
82
83
85
85
85
85
86
87
88
90
91
91
91
90
87
85
80
75
68
61
53
45
37
28
21
16
10
3
1
-2
-4
-7
-9
-10
-12
-13
-15
-17
-19
-22
-24
-28
-30
-33
-34
-35
-35
-34
-32
-28
-24
-20
-18
-14
-9
-5
-3
0
1
0
-4
-9
-15
-20
-23
-25
-28
-28
-32
-34
-38
-40
-44
-47
-48
-49
-50
-52
-52
-52
-53
-53
-52
-44
-32
-13
12
40
63
77
78
65
38
3
-35
-73
-103
-125
-137
-142
-138
-129
-117
-102
-87
-73
-62
-53
-47
-42
-38
-35
-33
-30
-27
-24
-22
-19
-17
-14
-14
-12
-9
-8
-7
-4
-3
-2
1
5
7
12
17
23
31
37
43
50
55
57
61
63
65
67
68
68
71
72
73
73
75
76
75
73
72
70
65
61
58
53
50
45
38
30
20
11
3
0
-3
-4
-4
-4
-5
-8
-10
-12
-15
-19
-23
-25
-29
-33
-34
-34
-34
-34
-34
-34
-34
-34
-33
-33
-32
-30
-32
-30
-28
-23
-9
12
42
75
105
123
128
117
92
58
22
-12
-43
-65
-84
-95
-100
-100
-95
-89
-79
-70
-63
-55
-50
-45
-43
-39
-37
-34
-32
-29
-27
-24
-22
-19
-17
-13
-10
-7
-4
0
2
6
12
17
25
31
38
46
52
57
62
67
70
72
73
75
75
75
76
76
76
75
75
73
71
67
63
60
52
46
38
31
22
13
7
1
-5
-10
-13
-17
-19
-23
-24
-25
-27
-27
-28
-28
-28
-29
-29
-30
-30
-32
-33
-34
-35
-37
-37
-37
-37
-37
-37
-37
-35
-35
-34
-34
-33
-32
-30
-28
-27
-24
-23
-22
-19
-18
-18
-17
-15
-15
-14
-13
-13
-12
-12
-12
-12
-12
-12
-10
-9
-8
-4
-3
0
2
5
7
11
15
18
22
23
23
20
15
10
3
1
-3
-5
-8
-10
-14
-17
-20
-24
-27
-29
-32
-32
-32
-32
-32
-33
-32
-30
-29
-27
-19
-4
17
46
80
108
126
128
111
81
38
-5
-45
-78
-102
-115
-122
-122
-115
-107
-94
-79
-67
-55
-47
-39
-33
-29
-24
-22
-19
-17
-14
-12
-9
-7
-7
-5
-4
-3
0
1
2
3
6
8
10
13
18
23
30
36
42
48
55
61
65
68
72
73
76
77
77
77
77
78
78
80
80
81
82
83
82
82
80
77
73
68
62
56
48
41
33
26
20
13
7
3
0
-4
-7
-9
-10
-13
-14
-15
-17
-19
-20
-22
-24
-25
-28
-29
-29
-32
-32
-30
-28
-25
-22
-18
-14
-10
-7
-4
1
5
7
6
3
-2
-8
-12
-17
-19
-23
-25
-27
-29
-32
-35
-37
-39
-42
-44
-45
-45
-45
-45
-45
-45
-43
-37
-27
-8
16
43
70
91
97
87
62
23
-19
-63
-100
-129
-145
-152
-150
-140
-125
-107
-88
-69
-54
-43
-34
-28
-24
-19
-15
-13
-9
-7
-5
-3
-2
1
2
5
6
7
8
11
12
15
18
21
25
30
36
43
50
57
63
68
73
77
80
81
82
83
83
83
83
83
83
83
83
83
82
81
78
75
71
66
62
58
55
50
43
36
26
16
8
3
0
0
0
-2
-2
-3
-5
-7
-9
-13
-15
-19
-23
-27
-29
-32
-33
-34
-35
-37
-38
-39
-39
-40
-42
-43
-43
-44
-44
-42
-33
-17
5
30
52
68
71
58
35
1
-39
-75
-108
-129
-144
-148
-147
-138
-125
-112
-95
-82
-70
-62
-54
-50
-45
-43
-39
-37
-33
-30
-27
-24
-20
-17
-14
-12
-8
-5
-2
2
6
11
17
25
32
38
46
52
58
63
67
70
72
73
73
73
73
73
73
72
72
72
72
71
70
67
63
58
52
46
40
32
25
20
12
6
1
-2
-7
-10
-13
-15
-17
-18
-20
-22
-22
-23
-23
-24
-24
-24
-25
-27
-27
-27
-29
-29
-29
-30
-30
-30
-29
-28
-27
-27
-25
-24
-23
-23
-22
-20
-19
-18
-17
-17
-15
-15
-14
-14
-13
-13
-12
-12
-10
-9
-9
-8
-8
-7
-8
-7
-5
-5
-3
0
3
6
8
11
15
18
22
26
28
30
27
22
17
11
7
3
2
0
-4
-7
-12
-15
-19
-23
-25
-28
-29
-30
-32
-33
-33
-35
-35
-35
-34
-28
-17
5
36
73
108
135
145
136
111
76
36
-2
-37
-63
-84
-98
-107
-109
-107
-99
-90
-79
-69
-59
-53
-48
-43
-40
-38
-35
-33
-30
-29
-27
-24
-22
-19
-18
-15
-14
-14
-13
-10
-9
-7
-4
-2
1
5
10
15
20
27
33
40
45
50
53
57
60
62
63
63
66
67
68
70
70
72
72
73
72
71
70
67
63
60
55
48
42
35
28
22
16
10
5
1
-2
-5
-8
-9
-10
-13
-15
-17
-19
-20
-22
-23
-24
-27
-28
-29
-30
-33
-32
-30
-29
-25
-22
-17
-12
-8
-4
0
3
7
11
11
10
5
0
-4
-9
-12
-14
-17
-18
-20
-24
-27
-29
-33
-34
-35
-37
-38
-38
-38
-39
-39
-38
-34
-24
-8
16
47
81
108
123
121
102
68
25
-19
-62
-95
-120
-133
-138
-135
-125
-112
-95
-79
-64
-53
-43
-35
-30
-25
-23
-19
-15
-13
-9
-7
-4
-4
-3
-2
0
1
2
3
5
6
7
10
13
17
23
28
35
41
47
55
60
63
67
68
71
71
71
72
73
75
75
73
75
75
73
72
71
67
63
60
56
53
51
46
41
35
26
17
8
2
-2
-3
-4
-4
-4
-4
-5
-7
-9
-10
-13
-17
-19
-22
-24
-27
-28
-28
-29
-29
-30
-32
-32
-33
-34
-34
-35
-37
-38
-35
-28
-13
7
31
55
71
76
67
42
5
-37
-79
-115
-142
-158
-163
-160
-152
-137
-119
-102
-84
-68
-57
-47
-40
-37
-33
-29
-27
-23
-20
-17
-13
-10
-7
-4
0
3
7
12
17
23
30
36
43
52
60
68
76
83
88
92
93
96
97
97
96
93
92
90
88
86
82
80
78
76
72
68
65
60
52
47
40
32
25
17
11
5
1
-2
-5
-8
-9
-10
-12
-13
-14
-14
-15
-14
-15
-15
-17
-17
-18
-19
-19
-20
-22
-23
-24
-25
-27
-27
-28
-27
-27
-27
-27
-28
-28
-27
-27
-27
-25
-24
-24
-23
-23
-23
-22
-22
-22
-20
-20
-20
-20
-20
-19
-18
-18
-18
-18
-17
-15
-15
-13
-10
-8
-5
-3
1
3
8
12
16
17
16
13
10
5
0
-4
-8
-10
-13
-15
-19
-23
-25
-28
-30
-32
-33
-34
-34
-34
-35
-35
-35
-38
-38
-35
-29
-17
3
30
60
86
103
105
92
65
28
-7
-42
-69
-90
-104
-110
-112
-109
-102
-92
-80
-68
-59
-50
-43
-39
-35
-32
-28
-25
-23
-20
-19
-17
-15
-14
-13
-12
-12
-10
-10
-9
-8
-7
-4
0
3
6
11
16
22
28
35
41
46
51
55
60
62
65
67
70
71
72
73
75
77
78
80
82
83
83
82
81
78
73
68
62
55
47
38
31
23
16
10
5
0
-3
-7
-10
-13
-14
-17
-18
-19
-20
-22
-23
-24
-25
-25
-27
-28
-28
-29
-28
-25
-22
-17
-12
-7
-2
2
6
10
12
15
15
12
8
5
0
-4
-8
-10
-12
-14
-17
-19
-23
-27
-30
-33
-34
-35
-37
-37
-37
-38
-38
-38
-35
-28
-13
10
40
73
103
122
125
112
85
48
7
-29
-64
-89
-108
-117
-119
-117
-108
-98
-85
-74
-64
-55
-49
-47
-43
-40
-38
-35
-32
-29
-25
-23
-20
-18
-17
-17
-15
-13
-12
-9
-8
-5
-4
-2
1
6
11
17
23
30
36
41
45
48
52
55
58
60
62
63
66
66
67
68
68
70
67
66
65
61
57
52
50
46
43
37
31
23
15
7
1
-4
-5
-5
-5
-4
-4
-5
-7
-9
-12
-15
-19
-22
-25
-28
-29
-30
-30
-33
-33
-33
-33
-33
-32
-32
-32
-32
-32
-32
-29
-20
-5
17
47
78
105
116
113
93
58
16
-27
-67
-98
-119
-133
-137
-134
-127
-114
-102
-87
-73
-63
-54
-47
-43
-39
-35
-32
-29
-25
-23
-20
-17
-13
-10
-8
-4
0
2
7
12
17
23
30
37
45
53
60
67
73
80
83
87
88
90
90
90
90
88
86
86
85
83
82
81
77
73
70
63
57
52
45
36
30
22
15
10
3
0
-4
-7
-10
-13
-14
-17
-17
-18
-19
-19
-19
-20
-19
-20
-22
-24
-24
-25
-25
-27
-29
-29
-30
-32
-33
-33
-33
-33
-33
-33
-33
-33
-33
-32
-30
-30
-29
-28
-28
-27
-25
-24
-23
-23
-22
-22
-20
-20
-20
-19
-19
-19
-18
-17
-17
-15
-12
-10
-7
-4
0
2
6
10
13
18
21
21
18
15
10
3
1
-3
-5
-8
-12
-14
-17
-20
-23
-25
-27
-29
-29
-29
-29
-29
-28
-28
-27
-27
-24
-19
-9
7
31
58
83
103
107
93
66
26
-17
-58
-92
-115
-129
-134
-133
-127
-115
-102
-87
-72
-58
-47
-38
-32
-27
-23
-19
-15
-12
-9
-7
-4
-3
-2
-2
0
1
2
3
5
7
8
11
13
17
22
28
35
41
48
56
62
67
73
77
81
83
85
86
86
87
87
86
87
88
88
90
91
92
92
91
90
87
83
78
72
66
58
50
41
32
25
17
13
7
2
0
-4
-7
-9
-12
-13
-14
-15
-18
-19
-23
-25
-28
-29
-30
-32
-33
-33
-32
-30
-28
-24
-20
-18
-14
-10
-7
-2
1
2
1
0
-5
-10
-15
-19
-23
-24
-27
-29
-33
-37
-40
-43
-45
-48
-49
-49
-50
-50
-53
-53
-53
-52
-48
-38
-22
1
28
55
75
82
76
55
21
-17
-57
-90
-115
-134
-143
-143
-137
-127
-112
-97
-82
-68
-58
-50
-44
-40
-37
-33
-29
-27
-24
-20
-18
-17
-15
-13
-12
-12
-9
-8
-5
-4
-2
1
2
7
11
16
22
27
33
40
47
52
57
61
63
67
67
68
70
71
72
72
73
75
75
75
73
71
70
66
62
58
56
52
47
41
33
25
16
7
1
-2
-4
-4
-4
-3
-3
-5
-8
-10
-14
-18
-22
-25
-28
-30
-32
-33
-33
-34
-34
-34
-34
-34
-34
-34
-34
-34
-33
-33
-29
-20
-3
22
55
88
113
127
126
110
82
47
11
-19
-48
-69
-84
-94
-98
-95
-89
-82
-72
-64
-57
-50
-47
-43
-39
-37
-35
-33
-30
-28
-25
-23
-20
-18
-15
-14
-12
-8
-4
-2
2
7
13
20
26
33
40
46
53
58
63
66
68
71
72
73
75
76
76
76
75
75
73
71
70
66
61
56
51
43
36
27
20
12
5
1
-5
-10
-14
-17
-19
-22
-24
-24
-24
-25
-27
-27
-27
-28
-28
-29
-29
-30
-30
-32
-33
-33
-34
-34
-34
-35
-35
-34
-34
-33
-33
-32
-30
-29
-28
-27
-25
-23
-22
-20
-20
-19
-18
-18
-17
-17
-15
-15
-14
-14
-13
-13
-12
-12
-10
-10
-9
-8
-5
-3
0
2
6
10
12
17
21
23
23
22
17
12
6
1
-2
-5
-8
-10
-14
-17
-20
-23
-25
-27
-28
-29
-29
-29
-29
-29
-30
-29
-28
-25
-22
-9
8
36
67
100
122
130
120
93
55
10
-29
-65
-92
-108
-118
-120
-118
-110
-99
-85
-73
-60
-50
-42
-35
-32
-28
-24
-22
-18
-17
-14
-12
-9
-7
-5
-4
-3
-2
0
0
1
2
5
7
11
15
20
25
32
38
45
52
60
65
68
72
75
76
77
78
80
78
80
81
80
81
82
82
82
82
81
80
77
73
68
63
57
51
43
36
28
22
16
11
6
1
-3
-4
-7
-8
-10
-12
-13
-14
-15
-17
-19
-20
-22
-23
-25
-27
-27
-27
-28
-27
-24
-22
-18
-15
-10
-8
-4
0
2
5
6
3
-2
-7
-13
-18
-22
-23
-25
-28
-30
-33
-37
-39
-42
-44
-45
-45
-45
-45
-47
-45
-45
-44
-39
-30
-15
7
33
61
83
93
90
67
33
-9
-53
-94
-125
-145
-153
-153
-145
-132
-114
-94
-77
-60
-47
-37
-30
-25
-20
-17
-14
-10
-7
-4
-3
0
2
3
5
6
8
10
11
12
15
17
21
25
31
36
42
48
57
63
68
73
77
80
82
83
83
85
85
85
85
83
83
83
83
83
82
81
77
73
68
65
58
55
51
45
38
28
20
11
5
0
-3
-2
-2
-2
-2
-3
-5
-8
-12
-14
-18
-20
-24
-27
-28
-30
-33
-34
-35
-37
-37
-38
-38
-39
-40
-42
-43
-44
-43
-37
-23
-3
21
46
66
73
67
47
15
-24
-63
-99
-125
-143
-153
-152
-147
-134
-120
-104
-89
-77
-65
-57
-52
-47
-43
-39
-37
-33
-29
-27
-23
-20
-18
-15
-12
-9
-5
-2
1
6
11
16
22
30
36
43
50
56
61
65
68
72
73
76
76
76
77
77
76
75
75
75
73
72
71
67
63
60
53
46
40
31
23
16
10
3
0
-4
-8
-12
-15
-17
-19
-19
-20
-22
-22
-22
-23
-23
-23
-24
-24
-25
-27
-27
-28
-29
-29
-29
-29
-29
-28
-28
-27
-27
-27
-25
-25
-24
-23
-22
-20
-19
-18
-17
-15
-15
-14
-13
-13
-12
-12
-10
-10
-10
-9
-9
-9
-10
-9
-8
-7
-4
-3
0
2
3
7
11
15
20
23
26
27
26
22
17
11
7
3
1
0
-3
-5
-9
-13
-17
-20
-23
-25
-27
-29
-30
-30
-30
-32
-32
-33
-32
-27
-15
5
35
70
106
133
146
141
118
85
45
3
-29
-59
-80
-97
-105
-109
-105
-99
-90
-79
-70
-62
-54
-48
-45
-42
-38
-37
-33
-30
-28
-25
-23
-20
-19
-17
-15
-14
-13
-12
-9
-8
-5
-3
0
2
6
11
16
21
27
33
38
45
50
53
57
60
62
63
66
67
68
70
70
71
71
72
72
73
73
71
70
68
63
58
53
47
40
33
26
20
12
7
2
-3
-5
-8
-10
-13
-15
-18
-18
-20
-22
-23
-23
-25
-27
-28
-28
-30
-32
-32
-32
-29
-27
-23
-19
-15
-12
-8
-4
0
3
8
8
7
3
-2
-7
-10
-14
-17
-17
-19
-20
-23
-25
-28
-32
-34
-35
-37
-39
-40
-40
-40
-40
-39
-35
-28
-13
10
40
73
102
121
122
107
76
35
-10
-52
-89
-114
-130
-138
-137
-128
-115
-100
-84
-68
-55
-45
-37
-32
-28
-23
-20
-17
-14
-13
-10
-8
-7
-4
-4
-3
-2
0
2
5
7
10
12
16
18
23
28
35
43
50
56
61
65
68
70
71
72
72
73
75
73
75
75
76
76
76
73
72
70
67
63
60
55
51
47
42
35
27
18
8
1
-3
-5
-5
-5
-5
-5
-5
-7
-9
-12
-14
-18
-20
-23
-25
-28
-29
-29
-30
-30
-32
-32
-32
-32
-33
-34
-35
-37
-37
-35
-29
-17
2
27
52
71
78
71
48
15
-28
-70
-108
-137
-155
-163
-163
-154
-142
-124
-105
-87
-72
-59
-48
-42
-37
-32
-29
-25
-23
-19
-15
-12
-8
-5
-2
1
5
8
12
17
22
28
35
42
50
58
67
75
81
86
91
93
95
95
95
95
93
91
90
87
85
83
81
78
77
73
71
65
60
53
46
37
30
22
16
10
5
2
-2
-5
-7
-9
-10
-13
-12
-13
-14
-14
-15
-15
-15
-15
-15
-17
-17
-18
-20
-20
-22
-23
-23
-24
-24
-25
-25
-25
-25
-25
-25
-25
-25
-25
-27
-27
-27
-27
-25
-25
-25
-24
-24
-24
-23
-23
-22
-22
-22
-20
-20
-20
-19
-19
-18
-18
-15
-13
-12
-9
-5
-3
1
5
7
12
17
20
20
17
12
7
2
0
-4
-8
-12
-14
-17
-20
-23
-25
-28
-29
-30
-32
-33
-34
-34
-35
-35
-37
-37
-34
-29
-18
1
25
55
83
102
107
96
71
35
-2
-38
-69
-90
-105
-113
-114
-112
-104
-94
-82
-70
-60
-50
-44
-39
-35
-33
-30
-28
-25
-23
-22
-19
-18
-15
-14
-13
-13
-12
-12
-10
-8
-7
-4
0
3
6
10
16
21
27
33
40
46
51
55
60
62
66
67
70
71
72
75
75
77
77
78
80
80
80
80
78
76
72
67
61
55
47
38
31
23
16
10
3
0
-3
-7
-9
-12
-14
-15
-17
-18
-18
-20
-22
-23
-24
-25
-27
-29
-29
-29
-28
-27
-23
-19
-14
-10
-5
0
2
6
10
12
13
11
7
2
-3
-7
-10
-13
-14
-14
-17
-19
-23
-27
-29
-32
-33
-34
-35
-37
-38
-39
-40
-39
-37
-30
-17
5
33
67
98
120
126
116
90
53
12
-27
-62
-88
-105
-115
-119
-117
-110
-99
-88
-77
-65
-57
-49
-45
-42
-38
-34
-32
-29
-27
-24
-23
-20
-18
-15
-14
-12
-10
-9
-8
-7
-4
-2
0
3
7
12
17
23
28
35
40
45
48
52
55
56
57
60
61
63
65
66
68
68
68
68
67
63
61
57
55
50
47
45
41
33
26
17
10
2
-2
-4
-3
-3
-3
-3
-3
-4
-7
-10
-14
-19
-23
-25
-28
-30
-32
-33
-34
-34
-34
-37
-37
-37
-37
-37
-37
-37
-35
-32
-24
-8
13
43
75
101
115
111
91
57
15
-28
-68
-99
-122
-133
-138
-137
-128
-115
-100
-85
-73
-60
-53
-47
-42
-38
-37
-33
-30
-27
-24
-20
-17
-14
-10
-7
-4
-2
2
7
12
17
23
31
38
46
53
61
67
75
80
82
85
86
87
87
87
87
87
85
85
83
82
81
78
75
72
68
63
57
51
45
36
30
22
15
8
2
0
-4
-8
-9
-12
-13
-15
-15
-15
-17
-18
-17
-18
-19
-20
-20
-22
-23
-23
-24
-27
-27
-28
-29
-30
-32
-32
-33
-33
-33
-32
-32
-30
-30
-29
-29
-28
-28
-27
-27
-25
-27
-25
-25
-25
-24
-24
-24
-23
-22
-22
-20
-20
-20
-19
-18
-17
-14
-12
-9
-5
-2
1
5
8
13
17
20
22
20
16
11
6
2
-2
-4
-7
-9
-13
-15
-19
-22
-24
-25
-25
-27
-27
-27
-27
-25
-25
-25
-24
-23
-18
-9
7
31
58
85
103
108
97
71
32
-10
-53
-87
-113
-127
-134
-134
-128
-118
-104
-89
-74
-60
-50
-42
-34
-30
-25
-20
-17
-13
-12
-9
-7
-4
-2
-2
0
1
2
3
3
5
7
10
12
16
21
26
33
40
46
53
60
66
71
75
78
81
82
83
85
85
85
85
86
87
87
88
90
90
91
91
90
87
85
80
73
66
60
51
43
35
27
21
15
11
6
2
0
-3
-7
-9
-10
-12
-14
-15
-17
-19
-20
-23
-24
-27
-28
-29
-30
-29
-28
-27
-24
-20
-18
-14
-10
-7
-4
0
1
1
-2
-7
-12
-17
-22
-24
-27
-28
-32
-34
-37
-40
-44
-47
-49
-50
-52
-52
-53
-53
-53
-53
-53
-49
-42
-25
-3
22
50
71
81
77
58
26
-10
-50
-85
-114
-132
-140
-143
-135
-125
-112
-97
-82
-68
-59
-50
-44
-40
-37
-33
-29
-27
-23
-20
-19
-17
-14
-12
-10
-9
-8
-7
-5
-4
-2
1
2
6
10
15
21
27
35
41
48
53
57
60
62
65
67
68
70
71
72
72
73
76
76
77
76
73
71
67
63
60
57
53
48
42
35
26
15
6
0
-3
-3
-3
-3
-3
-4
-7
-9
-12
-15
-18
-22
-25
-29
-32
-33
-34
-34
-34
-34
-34
-33
-33
-33
-32
-32
-32
-32
-33
-29
-20
-3
22
53
85
111
125
123
106
77
43
8
-23
-49
-70
-85
-95
-99
-97
-90
-82
-73
-64
-55
-50
-44
-40
-38
-35
-34
-32
-29
-27
-24
-22
-19
-18
-15
-13
-10
-8
-4
-2
1
6
12
18
25
32
40
46
53
58
63
66
68
70
72
73
75
75
76
75
75
75
73
72
71
67
62
57
51
43
35
28
20
12
6
1
-5
-10
-13
-17
-20
-23
-24
-25
-25
-27
-28
-27
-28
-28
-29
-29
-30
-30
-32
-32
-33
-33
-34
-34
-34
-35
-35
-35
-35
-35
-34
-33
-32
-32
-30
-29
-28
-25
-24
-24
-23
-20
-19
-19
-18
-17
-17
-15
-15
-14
-14
-14
-14
-13
-12
-10
-10
-8
-4
-3
1
3
6
10
12
16
20
23
25
23
18
13
7
2
0
-3
-4
-7
-10
-13
-17
-20
-24
-25
-28
-30
-30
-30
-32
-32
-30
-30
-29
-28
-23
-14
2
28
60
92
118
130
125
102
65
21
-20
-58
-88
-107
-118
-123
-120
-114
-104
-90
-77
-63
-52
-43
-37
-30
-28
-24
-22
-18
-15
-13
-10
-9
-7
-5
-4
-4
-3
-2
0
1
2
5
7
10
13
18
23
30
36
42
50
55
60
66
67
71
72
75
76
77
77
78
80
80
81
80
81
82
83
82
81
78
75
71
65
58
51
43
36
28
21
15
10
6
2
-2
-4
-7
-7
-8
-10
-12
-13
-14
-17
-18
-19
-22
-23
-24
-25
-28
-28
-28
-28
-25
-23
-19
-15
-12
-8
-7
-2
2
5
5
3
0
-5
-10
-14
-18
-22
-24
-27
-29
-32
-35
-39
-42
-43
-44
-45
-45
-45
-44
-45
-44
-43
-40
-33
-19
1
27
55
78
95
95
78
50
8
-35
-78
-113
-137
-150
-153
-148
-135
-118
-99
-80
-63
-49
-38
-30
-25
-22
-18
-14
-12
-9
-5
-3
-2
0
1
3
3
5
6
8
10
12
15
20
23
27
33
38
47
53
60
66
72
76
78
81
82
83
83
83
83
83
83
83
83
83
82
81
80
77
73
70
66
62
58
53
48
41
32
22
13
6
2
0
0
-2
0
0
-3
-5
-8
-10
-13
-17
-19
-23
-25
-28
-29
-30
-32
-32
-33
-33
-34
-34
-35
-38
-39
-42
-43
-43
-37
-25
-7
16
41
60
68
63
45
15
-23
-63
-98
-127
-143
-153
-155
-148
-138
-124
-108
-92
-79
-68
-58
-53
-48
-44
-40
-39
-35
-33
-29
-25
-23
-19
-15
-10
-8
-4
-2
1
5
8
13
20
26
32
40
47
53
58
63
66
68
72
72
72
73
73
72
73
73
73
72
71
70
68
66
63
58
53
47
40
32
26
18
11
5
0
-5
-9
-13
-14
-17
-19
-22
-23
-22
-23
-23
-23
-22
-22
-23
-24
-25
-25
-27
-28
-28
-28
-29
-29
-30
-30
-29
-29
-28
-27
-25
-24
-23
-22
-22
-20
-19
-19
-18
-17
-15
-14
-14
-13
-13
-13
-12
-10
-10
-9
-9
-8
-8
-8
-7
-5
-4
-2
0
2
6
7
10
13
18
22
26
28
28
26
21
16
11
7
3
1
1
-2
-5
-8
-12
-14
-18
-20
-22
-24
-25
-27
-28
-28
-29
-30
-32
-28
-20
-4
22
56
93
126
146
148
132
101
62
21
-14
-47
-70
-89
-102
-105
-107
-102
-94
-84
-74
-64
-58
-52
-47
-44
-40
-37
-35
-32
-29
-27
-24
-23
-20
-19
-18
-17
-15
-14
-13
-12
-9
-7
-4
-2
1
6
10
15
21
26
32
37
42
47
51
53
56
58
61
62
65
66
68
68
71
71
72
72
72
71
70
67
63
60
55
48
42
35
27
21
13
7
2
-2
-5
-7
-9
-12
-14
-14
-17
-18
-20
-22
-23
-25
-27
-28
-29
-32
-32
-33
-32
-32
-28
-24
-20
-17
-13
-8
-4
0
5
7
10
8
6
1
-4
-9
-13
-15
-18
-20
-20
-24
-27
-29
-33
-34
-37
-38
-38
-38
-39
-40
-39
-39
-38
-32
-19
0
27
61
93
116
125
117
91
52
6
-37
-77
-107
-127
-137
-138
-130
-119
-107
-89
-74
-59
-48
-39
-34
-29
-25
-22
-18
-14
-13
-9
-7
-4
-4
-3
-2
1
2
3
5
6
8
11
13
18
22
28
35
41
47
55
60
65
68
71
72
73
75
73
75
75
75
75
75
75
76
75
73
71
66
62
58
56
52
48
43
38
31
22
12
5
0
-3
-4
-4
-4
-5
-5
-7
-8
-9
-12
-14
-17
-19
-23
-25
-27
-27
-28
-28
-29
-29
-29
-30
-32
-33
-34
-35
-38
-37
-33
-23
-8
16
41
63
75
73
56
26
-14
-58
-97
-129
-150
-163
-163
-158
-145
-129
-112
-92
-75
-63
-52
-45
-39
-34
-30
-27
-24
-20
-17
-13
-10
-7
-4
0
2
6
11
15
20
26
32
40
47
55
62
70
76
82
87
91
93
95
95
95
93
92
91
87
86
83
82
78
76
72
70
65
60
55
47
41
33
26
20
13
7
2
-2
-5
-8
-10
-12
-14
-14
-14
-15
-14
-15
-15
-14
-14
-14
-14
-15
-15
-17
-18
-19
-19
-20
-20
-22
-22
-23
-24
-23
-24
-25
-25
-25
-25
-24
-25
-24
-24
-24
-24
-24
-23
-23
-22
-22
-22
-22
-22
-20
-20
-19
-18
-18
-18
-17
-15
-13
-12
-9
-7
-3
-2
2
5
8
12
16
18
20
20
16
11
6
2
-2
-5
-7
-10
-14
-17
-20
-24
-27
-28
-30
-30
-32
-33
-34
-34
-34
-34
-34
-34
-32
-24
-9
12
40
68
92
105
101
81
50
12
-24
-57
-82
-100
-110
-114
-113
-108
-99
-88
-75
-64
-54
-48
-40
-37
-34
-30
-28
-25
-23
-20
-18
-17
-17
-17
-15
-14
-14
-13
-13
-12
-10
-9
-5
-3
1
3
10
16
21
27
33
38
45
48
53
57
60
62
65
67
67
70
71
73
76
77
80
81
81
81
81
78
76
71
66
60
52
45
36
27
21
15
8
2
0
-4
-8
-12
-14
-15
-17
-19
-20
-20
-22
-22
-24
-24
-25
-27
-29
-29
-29
-28
-25
-22
-18
-14
-10
-5
-2
1
5
8
10
10
7
3
0
-5
-9
-12
-13
-13
-15
-18
-20
-24
-27
-29
-32
-34
-35
-37
-37
-37
-39
-39
-38
-34
-24
-7
20
51
83
111
126
123
107
75
37
-3
-42
-73
-95
-110
-117
-118
-113
-103
-92
-80
-69
-60
-54
-48
-43
-39
-37
-33
-30
-28
-27
-23
-22
-19
-17
-15
-14
-13
-12
-10
-9
-8
-5
-3
-2
2
7
13
18
25
31
36
41
45
48
52
55
57
60
62
65
66
67
67
67
67
67
66
65
61
58
56
52
48
46
42
38
30
21
12
5
0
-4
-4
-3
-3
-3
-4
-5
-7
-10
-14
-18
-22
-24
-28
-29
-30
-32
-34
-34
-34
-34
-34
-35
-35
-35
-35
-35
-35
-35
-32
-20
-2
27
58
86
107
113
102
75
37
-5
-47
-82
-109
-125
-135
-137
-132
-122
-108
-94
-79
-68
-57
-50
-44
-39
-35
-34
-30
-28
-24
-20
-18
-14
-10
-8
-5
-2
2
6
11
16
22
28
36
43
52
60
66
72
78
82
86
88
90
91
91
91
90
88
87
87
86
83
82
78
75
71
66
58
53
46
37
31
23
16
11
5
0
-3
-7
-8
-9
-12
-13
-13
-14
-15
-15
-15
-17
-17
-18
-18
-19
-19
-19
-20
-22
-24
-25
-27
-28
-29
-29
-30
-29
-30
-30
-30
-30
-29
-29
-29
-29
-28
-28
-27
-27
-25
-25
-24
-24
-23
-23
-22
-22
-22
-22
-20
-20
-19
-18
-17
-17
-15
-13
-10
-7
-3
0
1
5
10
13
18
21
20
17
12
7
2
0
-3
-5
-8
-10
-13
-15
-19
-22
-23
-24
-25
-25
-25
-25
-25
-25
-25
-24
-24
-22
-17
-7
12
37
65
88
103
103
88
56
15
-29
-69
-100
-122
-133
-137
-134
-127
-115
-100
-85
-70
-58
-48
-39
-33
-28
-24
-19
-17
-13
-10
-8
-5
-4
-2
-2
0
1
2
5
6
7
10
12
16
20
25
30
36
42
50
56
62
67
72
76
78
80
82
83
85
86
87
88
88
88
90
91
92
92
91
92
90
87
82
77
71
63
57
48
41
33
26
18
13
8
3
0
-2
-3
-5
-7
-9
-12
-13
-14
-15
-19
-20
-23
-24
-27
-28
-29
-30
-32
-29
-27
-24
-20
-18
-15
-12
-7
-3
0
1
1
-3
-9
-14
-19
-23
-27
-29
-29
-32
-35
-39
-40
-44
-47
-49
-50
-52
-54
-54
-55
-55
-57
-54
-49
-40
-22
2
28
55
75
82
73
51
17
-22
-60
-95
-120
-137
-143
-143
-135
-123
-108
-93
-78
-64
-54
-47
-40
-38
-34
-30
-28
-24
-22
-19
-17
-14
-12
-12
-9
-8
-5
-5
-4
-2
0
2
5
7
12
16
23
28
35
41
46
51
56
60
61
63
65
67
68
70
71
72
72
73
73
72
71
70
68
66
62
58
55
51
46
37
28
20
10
2
-2
-5
-7
-7
-5
-5
-8
-9
-13
-15
-19
-22
-25
-29
-32
-34
-35
-35
-35
-37
-37
-37
-37
-35
-35
-35
-35
-35
-35
-34
-30
-19
0
26
60
91
115
126
120
100
68
32
0
-33
-59
-77
-90
-97
-98
-95
-88
-79
-70
-62
-54
-49
-44
-40
-38
-35
-33
-30
-28
-25
-23
-20
-19
-17
-14
-12
-9
-5
-3
0
3
8
13
20
26
33
41
47
53
60
63
67
68
71
72
75
73
75
75
75
75
73
72
71
68
65
60
55
48
40
33
25
16
8
3
-3
-8
-13
-15
-19
-22
-25
-27
-28
-28
-29
-29
-29
-28
-29
-29
-30
-30
-32
-33
-33
-33
-34
-35
-35
-35
-35
-35
-35
-35
-34
-34
-33
-32
-30
-30
-29
-27
-25
-24
-23
-22
-20
-19
-19
-18
-17
-17
-15
-14
-13
-13
-12
-12
-10
-9
-9
-8
-5
-4
0
2
5
7
10
13
17
21
25
26
23
20
13
7
3
1
-2
-4
-8
-10
-14
-18
-23
-25
-27
-28
-29
-29
-29
-30
-29
-29
-28
-28
-25
-20
-8
8
36
68
101
125
133
125
98
58
16
-27
-63
-89
-108
-118
-120
-118
-110
-99
-87
-73
-59
-48
-39
-33
-28
-25
-22
-19
-17
-14
-13
-10
-8
-7
-5
-4
-3
-3
-2
0
2
3
6
8
12
16
20
26
31
37
45
51
57
61
66
68
71
73
76
76
77
78
78
78
80
80
81
81
81
81
80
78
76
73
70
65
58
51
45
36
28
22
16
10
5
1
-2
-4
-7
-8
-9
-12
-13
-14
-15
-17
-19
-22
-23
-24
-27
-28
-30
-30
-29
-28
-25
-22
-19
-15
-13
-9
-8
-3
1
5
6
3
0
-5
-9
-15
-19
-23
-25
-27
-29
-33
-37
-38
-40
-42
-44
-45
-45
-45
-45
-45
-45
-44
-40
-33
-18
2
30
57
81
95
93
75
43
1
-43
-84
-119
-142
-153
-155
-148
-134
-118
-98
-80
-64
-50
-39
-32
-25
-22
-18
-15
-12
-8
-5
-3
-2
1
3
5
6
7
8
10
11
13
16
20
23
27
33
38
46
52
60
65
71
76
78
81
83
83
82
83
83
83
83
82
82
82
82
81
80
76
73
70
66
62
57
53
47
40
31
22
13
6
1
-2
0
0
-2
-2
-3
-5
-8
-12
-14
-17
-19
-22
-24
-27
-28
-29
-30
-30
-32
-33
-33
-34
-34
-35
-37
-39
-40
-40
-35
-23
-4
17
41
61
70
63
45
13
-24
-63
-99
-125
-144
-154
-154
-149
-138
-123
-108
-92
-77
-67
-58
-53
-48
-44
-40
-37
-34
-30
-27
-23
-19
-15
-12
-9
-5
-2
1
3
8
13
18
25
31
37
46
52
58
63
67
71
73
76
76
75
75
75
73
73
73
73
72
72
71
68
66
61
56
52
45
38
31
23
16
8
3
-2
-7
-10
-13
-17
-19
-20
-23
-23
-24
-24
-25
-24
-24
-24
-25
-25
-27
-28
-28
-29
-29
-29
-30
-30
-30
-30
-30
-29
-28
-28
-27
-25
-24
-23
-22
-20
-20
-20
-19
-18
-18
-17
-15
-14
-14
-14
-13
-12
-12
-10
-10
-9
-9
-10
-9
-8
-7
-4
-2
1
5
8
11
15
20
23
26
28
27
23
18
13
10
6
3
1
0
-3
-5
-9
-13
-15
-18
-20
-22
-23
-24
-24
-25
-27
-28
-28
-28
-24
-17
-2
25
58
95
126
146
148
132
102
63
23
-13
-45
-70
-88
-100
-107
-107
-102
-93
-83
-73
-64
-55
-49
-45
-42
-38
-35
-33
-32
-29
-25
-24
-22
-20
-18
-18
-17
-15
-14
-13
-12
-9
-7
-4
-3
1
6
11
16
21
27
33
40
45
50
52
56
58
61
63
65
67
68
70
70
71
72
72
72
72
72
70
67
63
60
55
48
41
35
27
20
13
8
3
0
-4
-7
-10
-13
-14
-17
-19
-20
-22
-23
-25
-27
-28
-29
-30
-30
-32
-33
-33
-30
-28
-25
-22
-18
-13
-10
-5
-2
3
6
8
8
6
1
-4
-9
-12
-14
-15
-17
-19
-20
-24
-27
-30
-32
-34
-34
-35
-35
-37
-38
-38
-38
-37
-30
-19
0
27
60
92
117
126
118
93
55
10
-34
-74
-104
-124
-134
-135
-129
-118
-104
-88
-73
-59
-47
-38
-32
-28
-24
-20
-18
-14
-12
-8
-7
-5
-3
-2
0
0
1
2
3
6
7
10
12
16
21
26
33
40
46
51
56
62
66
68
71
72
72
73
73
75
75
73
73
73
73
72
71
68
65
62
57
55
51
47
42
37
30
21
12
5
0
-3
-4
-4
-4
-4
-4
-7
-8
-10
-12
-14
-18
-20
-24
-27
-30
-30
-32
-32
-33
-33
-33
-34
-35
-35
-37
-38
-39
-39
-35
-25
-8
13
38
62
76
77
63
33
-7
-49
-90
-124
-148
-160
-164
-160
-149
-133
-114
-95
-78
-63
-53
-44
-37
-34
-30
-27
-23
-20
-17
-13
-10
-7
-4
0
3
7
11
16
22
27
33
41
47
55
62
70
76
83
87
91
93
96
95
95
93
90
88
86
85
82
81
78
76
75
70
66
61
55
48
42
35
27
21
15
8
3
0
-4
-7
-9
-10
-13
-13
-13
-14
-14
-14
-14
-14
-15
-15
-17
-17
-18
-18
-19
-20
-22
-23
-23
-24
-24
-25
-25
-24
-25
-25
-27
-27
-25
-25
-24
-24
-24
-24
-24
-24
-24
-24
-23
-23
-22
-22
-22
-22
-22
-22
-20
-20
-19
-17
-15
-14
-12
-9
-5
-4
-2
1
3
6
10
16
20
21
20
16
12
6
2
0
-4
-5
-8
-12
-14
-18
-22
-25
-28
-30
-32
-33
-33
-34
-34
-35
-35
-37
-37
-35
-29
-17
3
30
60
85
101
101
85
56
21
-17
-49
-77
-97
-108
-114
-114
-109
-102
-90
-78
-67
-55
-49
-42
-38
-34
-30
-28
-25
-23
-19
-17
-17
-14
-13
-13
-12
-12
-12
-10
-10
-9
-8
-5
-3
1
3
8
13
18
25
32
38
45
50
53
58
61
62
65
67
70
71
73
75
76
78
80
81
82
82
81
78
76
72
67
62
56
48
40
32
25
17
11
6
1
-2
-7
-9
-12
-14
-17
-18
-19
-20
-20
-22
-22
-23
-24
-25
-25
-28
-27
-27
-24
-22
-18
-14
-10
-5
-3
1
6
10
12
13
12
8
3
-2
-3
-5
-8
-9
-12
-13
-15
-18
-22
-24
-27
-29
-30
-32
-33
-33
-34
-34
-35
-33
-28
-14
6
36
70
100
120
125
113
87
51
11
-28
-60
-88
-105
-115
-118
-115
-108
-98
-87
-74
-64
-57
-49
-44
-40
-38
-35
-33
-30
-28
-25
-23
-20
-18
-17
-14
-13
-12
-9
-9
-8
-7
-4
-3
2
6
10
15
20
27
33
38
42
47
50
52
55
56
58
61
62
62
65
66
66
66
65
63
62
60
56
52
48
46
43
38
32
25
17
8
2
-3
-4
-4
-3
-3
-4
-4
-8
-9
-13
-17
-20
-24
-27
-30
-32
-33
-34
-35
-35
-35
-35
-37
-37
-37
-37
-35
-35
-35
-33
-24
-9
13
43
75
101
116
113
96
62
20
-23
-62
-94
-117
-130
-134
-133
-124
-113
-99
-84
-70
-60
-52
-44
-40
-37
-34
-30
-29
-25
-23
-19
-17
-13
-9
-7
-4
0
3
8
12
18
25
31
38
46
56
62
70
75
80
85
87
88
90
90
90
88
87
86
85
85
83
81
78
76
71
66
61
55
47
41
33
26
20
12
6
1
0
-4
-7
-9
-12
-13
-14
-17
-18
-17
-18
-19
-18
-19
-19
-19
-20
-20
-22
-24
-25
-25
-27
-27
-28
-28
-29
-30
-32
-32
-32
-30
-30
-29
-29
-28
-28
-28
-27
-25
-27
-25
-24
-24
-24
-23
-23
-23
-22
-20
-19
-19
-19
-19
-19
-18
-17
-17
-13
-10
-7
-3
0
3
7
11
15
18
21
21
17
12
7
1
-2
-4
-5
-8
-10
-15
-18
-20
-23
-24
-24
-25
-25
-25
-27
-27
-28
-28
-28
-27
-23
-15
0
18
46
73
96
107
102
81
46
2
-39
-77
-104
-123
-132
-133
-129
-120
-108
-93
-78
-64
-53
-43
-35
-29
-25
-22
-17
-14
-10
-9
-7
-4
-2
-2
1
2
3
5
6
8
10
11
13
16
21
25
31
36
43
50
56
62
67
72
76
78
81
82
83
83
85
85
86
86
87
88
88
90
90
90
91
88
86
82
76
68
61
55
46
37
30
23
17
11
7
3
0
-3
-4
-7
-9
-12
-14
-17
-18
-19
-22
-23
-24
-25
-27
-28
-29
-30
-30
-29
-27
-23
-19
-17
-13
-10
-5
-2
1
2
2
-2
-7
-13
-18
-20
-24
-27
-28
-30
-34
-38
-40
-43
-47
-49
-50
-53
-54
-54
-54
-54
-55
-53
-49
-38
-19
3
32
57
75
78
68
43
8
-30
-68
-102
-124
-139
-145
-142
-134
-122
-107
-90
-75
-63
-54
-45
-40
-37
-33
-29
-27
-24
-20
-18
-15
-14
-12
-10
-8
-7
-7
-5
-4
-3
0
2
5
7
12
17
22
28
36
42
47
52
56
58
62
63
66
67
67
68
70
71
71
72
72
73
72
71
68
65
61
57
53
48
43
38
31
22
12
5
1
-3
-4
-4
-4
-4
-7
-7
-10
-14
-17
-20
-24
-28
-30
-33
-34
-35
-35
-35
-35
-35
-35
-35
-34
-33
-33
-33
-33
-34
-29
-18
1
30
62
93
116
125
118
97
67
32
-3
-33
-58
-77
-88
-95
-97
-94
-88
-80
-72
-63
-55
-49
-45
-42
-38
-35
-33
-30
-28
-25
-23
-20
-18
-17
-14
-12
-9
-5
-3
0
5
10
16
22
28
36
42
48
55
61
65
68
70
72
73
75
73
75
75
75
73
73
72
70
67
63
60
53
47
41
32
25
17
11
3
-2
-8
-12
-15
-19
-22
-24
-24
-25
-27
-28
-28
-29
-29
-30
-30
-29
-32
-32
-33
-33
-34
-34
-35
-35
-35
-35
-35
-35
-35
-35
-34
-33
-32
-30
-29
-28
-27
-24
-23
-22
-20
-19
-18
-18
-17
-15
-14
-14
-13
-12
-12
-10
-10
-10
-10
-10
-10
-8
-5
-3
1
2
5
8
11
16
20
22
23
23
20
13
8
3
0
-4
-7
-8
-10
-14
-17
-20
-23
-25
-29
-30
-30
-32
-32
-32
-33
-32
-30
-29
-24
-14
2
28
60
92
118
131
127
106
68
25
-18
-57
-87
-105
-117
-122
-120
-113
-103
-90
-78
-65
-55
-47
-40
-35
-30
-27
-24
-20
-18
-14
-12
-9
-7
-5
-4
-2
0
1
2
3
5
7
10
13
17
22
27
32
38
45
51
56
61
66
70
72
73
75
76
77
77
77
78
78
78
80
80
80
80
80
78
77
73
70
65
58
51
43
36
30
22
17
11
6
1
-3
-5
-7
-8
-9
-12
-13
-14
-15
-17
-19
-20
-22
-24
-25
-27
-28
-29
-29
-27
-25
-22
-19
-15
-13
-10
-7
-3
2
5
6
6
2
-3
-8
-13
-18
-22
-23
-24
-27
-29
-32
-34
-37
-38
-40
-43
-44
-44
-45
-45
-45
-45
-42
-35
-25
-7
17
46
72
91
96
85
60
21
-23
-67
-105
-133
-150
-157
-154
-143
-128
-109
-89
-72
-55
-44
-35
-29
-24
-20
-17
-13
-9
-8
-5
-3
-2
1
2
5
6
7
10
12
13
16
18
22
26
31
36
43
51
57
63
68
73
77
80
81
83
83
83
83
85
85
85
85
85
83
83
80
77
75
70
66
62
58
55
50
43
35
26
17
8
3
1
0
0
0
0
-3
-4
-5
-8
-12
-14
-18
-20
-24
-25
-28
-28
-29
-29
-30
-30
-30
-32
-33
-34
-37
-38
-39
-40
-38
-30
-15
6
30
52
67
68
57
31
-4
-44
-83
-114
-137
-150
-154
-152
-143
-129
-113
-98
-82
-69
-62
-54
-49
-47
-44
-40
-38
-35
-32
-29
-25
-23
-19
-15
-12
-7
-3
1
5
8
13
20
27
33
41
48
57
63
68
72
76
78
78
78
77
77
77
76
75
75
73
72
71
70
66
62
57
51
45
37
30
22
16
10
3
-2
-5
-9
-13
-17
-19
-20
-22
-23
-24
-23
-24
-24
-25
-24
-25
-25
-27
-28
-28
-29
-30
-30
-33
-33
-33
-33
-32
-32
-29
-28
-27
-25
-24
-23
-22
-22
-20
-19
-19
-18
-17
-15
-15
-14
-13
-12
-12
-10
-10
-9
-9
-9
-8
-9
-8
-8
-8
-5
-4
0
2
5
7
11
13
17
21
23
23
23
20
16
12
7
5
3
1
-2
-4
-8
-12
-15
-19
-22
-25
-28
-29
-32
-33
-34
-34
-34
-37
-35
-32
-22
-5
21
56
93
125
142
143
126
93
55
16
-20
-49
-74
-92
-102
-107
-107
-102
-93
-82
-72
-63
-55
-49
-45
-42
-38
-37
-33
-32
-29
-27
-24
-22
-19
-18
-17
-15
-15
-14
-13
-12
-9
-7
-3
0
3
8
13
20
25
31
37
43
48
52
56
60
62
63
66
67
68
70
72
72
75
73
75
76
76
73
72
70
66
61
55
48
42
35
27
20
13
7
3
1
-3
-4
-8
-10
-10
-13
-15
-17
-18
-20
-22
-24
-25
-28
-29
-32
-33
-33
-33
-30
-28
-24
-20
-17
-12
-8
-5
-2
3
7
10
10
7
3
-3
-7
-9
-12
-14
-17
-18
-20
-23
-27
-29
-32
-33
-34
-35
-35
-37
-37
-37
-38
-35
-30
-19
0
26
58
91
116
127
121
98
60
16
-29
-69
-100
-122
-133
-135
-130
-120
-107
-92
-75
-62
-50
-42
-35
-32
-28
-24
-20
-17
-14
-12
-10
-8
-7
-4
-3
-2
0
1
2
5
7
10
13
16
21
26
32
40
46
52
58
63
67
70
72
73
75
75
76
76
77
77
76
75
75
75
73
71
68
66
61
57
53
50
46
41
33
25
16
8
2
-2
-3
-2
-2
-2
-4
-5
-7
-10
-13
-15
-18
-22
-24
-27
-29
-30
-30
-32
-32
-33
-33
-34
-34
-35
-37
-38
-38
-38
-35
-25
-9
12
38
61
76
78
65
37
-3
-44
-87
-120
-145
-159
-164
-160
-150
-134
-117
-98
-82
-67
-54
-48
-40
-37
-33
-30
-27
-24
-20
-18
-14
-10
-7
-4
0
3
7
12
16
22
27
35
42
51
58
66
73
80
86
90
92
93
95
93
92
91
90
88
87
85
83
81
78
76
72
67
61
56
48
43
36
28
22
15
8
3
0
-4
-5
-8
-10
-10
-12
-13
-14
-14
-15
-14
-15
-15
-15
-15
-17
-17
-18
-19
-19
-22
-23
-24
-24
-25
-25
-25
-27
-27
-27
-27
-25
-25
-25
-25
-24
-24
-24
-23
-23
-23
-22
-22
-22
-22
-20
-20
-19
-18
-18
-17
-17
-17
-15
-15
-14
-13
-12
-8
-5
-2
1
5
6
10
13
17
20
21
18
15
10
6
1
-2
-4
-8
-10
-14
-18
-22
-25
-29
-32
-33
-34
-35
-37
-37
-39
-39
-38
-38
-37
-32
-22
-4
20
48
77
97
106
97
73
38
2
-35
-65
-89
-105
-114
-117
-114
-107
-97
-84
-72
-62
-52
-44
-39
-35
-32
-29
-27
-24
-22
-20
-18
-15
-14
-14
-14
-13
-13
-12
-12
-9
-8
-5
-3
1
5
7
12
18
23
30
36
42
47
52
56
58
61
63
65
67
67
70
71
73
75
76
78
78
80
80
78
76
72
68
62
56
48
41
33
26
18
11
5
0
-4
-7
-9
-13
-15
-17
-19
-20
-20
-22
-22
-23
-24
-25
-27
-28
-29
-29
-29
-28
-24
-22
-18
-13
-9
-4
-2
2
7
10
13
13
11
7
2
-2
-5
-8
-10
-12
-14
-17
-20
-24
-25
-28
-30
-33
-34
-34
-35
-35
-35
-35
-35
-32
-23
-5
20
52
86
115
130
127
110
77
37
-2
-39
-70
-93
-109
-117
-118
-113
-104
-93
-82
-72
-62
-54
-49
-45
-42
-39
-35
-32
-29
-25
-23
-20
-20
-19
-17
-15
-15
-13
-12
-9
-8
-5
-3
0
3
8
13
18
26
32
38
43
47
51
53
56
58
60
62
63
66
66
67
68
68
68
67
65
63
60
56
52
50
47
42
37
31
23
15
7
2
-2
-3
-3
-3
-3
-4
-5
-8
-10
-14
-17
-20
-24
-28
-30
-34
-35
-35
-37
-37
-37
-37
-37
-37
-37
-35
-35
-35
-34
-29
-18
1
27
60
90
111
118
107
81
42
0
-43
-78
-105
-122
-132
-133
-129
-119
-107
-92
-78
-65
-55
-49
-44
-40
-38
-35
-32
-29
-25
-23
-20
-18
-14
-12
-8
-7
-3
2
6
11
17
25
31
40
47
55
62
68
75
80
83
86
88
90
90
90
90
88
87
86
85
82
80
77
73
70
66
61
53
48
41
33
27
20
13
7
3
0
-3
-7
-9
-10
-12
-13
-14
-14
-14
-14
-15
-15
-17
-18
-19
-20
-22
-23
-24
-25
-27
-27
-28
-29
-30
-30
-30
-32
-32
-32
-30
-30
-30
-29
-28
-27
-25
-24
-23
-22
-22
-22
-20
-20
-20
-19
-19
-18
-18
-17
-17
-15
-15
-14
-14
-13
-12
-9
-8
-4
-3
1
5
8
12
17
22
23
22
18
13
8
3
-2
-4
-7
-8
-10
-14
-17
-19
-22
-23
-24
-24
-24
-25
-27
-25
-27
-25
-25
-25
-23
-15
-2
20
47
73
96
106
100
78
42
1
-40
-78
-107
-125
-133
-135
-130
-122
-108
-93
-78
-64
-52
-42
-34
-29
-24
-20
-17
-14
-12
-8
-7
-5
-3
-3
-2
0
1
2
3
5
7
10
12
16
21
25
31
37
43
50
57
63
68
73
77
77
80
80
81
80
78
78
78
80
81
82
86
90
93
96
96
93
88
81
75
67
61
56
51
47
41
35
27
21
15
8
5
-2
-5
-9
-13
-15
-18
-20
-22
-24
-25
-28
-29
-32
-33
-35
-37
-40
-43
-45
-44
-38
-24
-4
18
41
57
62
55
32
0
-35
-73
-107
-132
-148
-154
-154
-148
-137
-122
-105
-89
-77
-67
-58
-52
-49
-45
-43
-39
-35
-32
-28
-24
-22
-18
-14
-12
-8
-5
-2
2
6
11
17
23
30
38
46
52
57
63
67
70
71
73
73
73
72
72
71
71
68
67
65
63
61
58
56
51
46
41
33
26
20
12
6
1
-4
-9
-14
-17
-19
-22
-24
-24
-27
-28
-28
-28
-29
-29
-30
-32
-32
-33
-33
-33
-34
-35
-35
-34
-35
-35
-35
-35
-34
-33
-32
-30
-28
-27
-24
-22
-20
-19
-17
-17
-15
-15
-14
-13
-13
-12
-10
-9
-9
-8
-8
-8
-7
-7
-7
-7
-5
-5
-4
-3
0
2
3
7
10
13
16
20
23
27
27
26
22
17
12
8
6
3
2
1
-2
-4
-8
-12
-15
-18
-20
-23
-24
-24
-25
-27
-28
-29
-30
-30
-29
-22
-7
17
52
91
126
148
155
142
113
76
35
-2
-34
-60
-80
-95
-104
-104
-102
-94
-84
-75
-65
-58
-52
-48
-44
-42
-39
-37
-34
-32
-28
-27
-24
-23
-22
-20
-19
-18
-17
-15
-14
-12
-10
-8
-5
-2
2
7
13
20
26
32
38
43
47
51
55
57
60
62
65
66
67
70
70
72
72
73
75
75
73
72
70
67
62
57
52
46
40
32
25
18
13
8
5
1
-2
-4
-7
-9
-10
-13
-14
-17
-18
-20
-22
-24
-27
-29
-30
-33
-33
-33
-32
-29
-27
-22
-18
-14
-9
-5
-3
2
6
7
7
5
1
-4
-8
-12
-14
-14
-15
-18
-20
-22
-25
-29
-30
-33
-34
-35
-35
-37
-38
-39
-39
-38
-33
-24
-5
22
55
88
115
127
123
101
65
20
-24
-67
-98
-120
-132
-137
-133
-123
-109
-94
-79
-64
-54
-45
-38
-33
-28
-24
-22
-18
-14
-12
-9
-7
-7
-4
-4
-2
0
0
1
2
3
6
8
13
17
22
27
33
40
47
53
58
62
66
68
70
71
72
73
73
73
75
75
75
72
72
71
70
67
63
61
56
52
50
45
40
32
25
16
8
2
-2
-3
-2
-2
-2
-3
-4
-5
-8
-10
-13
-15
-19
-22
-24
-27
-28
-28
-29
-30
-32
-33
-33
-34
-35
-35
-37
-38
-38
-34
-25
-8
13
40
62
77
78
65
36
-2
-44
-84
-119
-143
-157
-162
-158
-148
-134
-117
-98
-80
-67
-55
-47
-42
-37
-33
-29
-27
-23
-19
-17
-13
-9
-5
-3
1
5
8
12
17
23
30
36
43
51
61
68
75
81
86
91
93
95
96
96
95
92
91
87
86
83
81
78
76
73
70
66
61
55
50
43
36
28
21
16
10
3
1
-3
-7
-10
-10
-13
-14
-15
-14
-15
-15
-17
-17
-15
-17
-17
-17
-17
-19
-19
-19
-20
-20
-22
-22
-23
-24
-24
-25
-27
-27
-25
-27
-27
-27
-25
-25
-25
-24
-24
-24
-24
-23
-22
-22
-19
-18
-17
-17
-17
-17
-17
-15
-15
-14
-13
-13
-12
-9
-7
-4
-2
1
5
6
10
13
20
22
23
21
17
12
7
2
-2
-4
-8
-10
-14
-18
-23
-27
-29
-32
-33
-34
-34
-35
-35
-37
-37
-37
-37
-35
-33
-25
-9
13
42
71
95
105
100
81
48
11
-25
-59
-84
-102
-113
-117
-114
-108
-98
-87
-75
-64
-54
-47
-42
-37
-33
-30
-27
-25
-23
-20
-19
-17
-15
-14
-14
-13
-13
-12
-12
-10
-8
-7
-4
0
2
6
10
16
21
27
35
40
46
51
55
58
62
65
65
67
68
68
71
72
75
77
78
80
80
80
80
77
75
71
66
58
51
43
36
28
21
13
7
2
-2
-4
-8
-10
-13
-14
-17
-18
-19
-20
-23
-24
-24
-25
-25
-28
-29
-29
-28
-28
-25
-23
-18
-14
-9
-5
-2
1
5
7
10
10
7
5
1
-3
-7
-9
-10
-13
-13
-15
-19
-23
-27
-29
-32
-34
-35
-35
-37
-37
-38
-38
-38
-35
-29
-13
10
41
76
106
125
127
113
85
46
6
-32
-65
-89
-107
-117
-118
-114
-105
-95
-83
-73
-63
-57
-50
-47
-43
-40
-37
-34
-32
-29
-27
-24
-22
-20
-19
-18
-17
-15
-14
-13
-12
-9
-7
-4
0
3
8
15
21
26
32
38
42
46
50
52
55
56
58
61
62
63
65
66
66
66
66
63
62
58
56
52
50
48
45
38
32
23
15
7
1
-3
-3
-3
-3
-2
-2
-4
-7
-9
-12
-15
-19
-24
-28
-30
-33
-34
-34
-34
-34
-34
-35
-35
-35
-35
-35
-35
-37
-35
-32
-22
-3
21
52
83
107
118
111
87
51
7
-33
-72
-100
-120
-130
-133
-129
-119
-107
-93
-78
-65
-55
-47
-42
-38
-34
-32
-28
-25
-24
-22
-19
-17
-14
-10
-7
-4
0
3
8
13
18
25
32
38
46
53
62
68
75
78
82
86
87
88
88
88
87
86
86
85
82
82
80
78
75
71
66
60
55
47
40
33
26
20
13
8
2
0
-4
-7
-9
-10
-12
-12
-14
-15
-17
-17
-18
-19
-19
-19
-20
-22
-24
-25
-25
-27
-27
-29
-29
-30
-32
-32
-32
-32
-32
-32
-30
-30
-30
-30
-29
-28
-28
-27
-25
-25
-24
-24
-24
-23
-23
-23
-22
-22
-20
-20
-19
-19
-18
-18
-18
-17
-14
-13
-9
-7
-3
0
2
7
11
15
20
22
22
20
15
10
3
1
-3
-5
-8
-10
-13
-17
-19
-22
-24
-25
-27
-27
-27
-27
-27
-25
-25
-25
-25
-23
-18
-5
11
36
63
87
103
103
88
57
16
-27
-67
-98
-119
-132
-137
-134
-127
-114
-100
-85
-72
-58
-47
-39
-34
-28
-24
-19
-15
-13
-10
-7
-5
-3
-2
0
1
2
3
5
6
8
11
13
16
20
25
31
36
43
51
57
65
70
75
78
81
83
85
86
86
87
87
87
88
88
88
90
91
91
91
91
90
86
82
77
72
66
57
50
42
35
28
21
15
8
3
0
-3
-5
-8
-8
-9
-10
-12
-13
-15
-17
-19
-22
-23
-27
-28
-29
-29
-28
-27
-25
-22
-19
-15
-12
-8
-5
-2
2
3
3
2
-2
-8
-13
-18
-20
-23
-25
-27
-30
-34
-38
-42
-44
-47
-48
-50
-52
-53
-54
-54
-55
-55
-52
-44
-29
-7
18
46
67
78
75
56
26
-12
-52
-88
-117
-135
-145
-147
-142
-130
-117
-100
-84
-70
-59
-50
-44
-40
-37
-34
-32
-29
-25
-23
-19
-17
-14
-13
-12
-9
-8
-7
-4
-3
-3
0
2
5
8
15
20
26
32
38
43
50
55
57
60
62
62
63
65
66
67
68
70
71
71
72
71
70
67
65
62
57
55
51
47
40
32
23
15
6
1
-3
-4
-4
-4
-4
-4
-7
-9
-13
-17
-20
-24
-28
-32
-35
-37
-38
-40
-40
-39
-38
-38
-37
-37
-37
-37
-37
-37
-37
-35
-27
-10
15
46
80
106
121
121
106
78
45
10
-22
-49
-69
-84
-94
-98
-97
-90
-82
-73
-65
-57
-50
-45
-42
-38
-35
-33
-30
-27
-24
-22
-20
-18
-17
-14
-10
-8
-5
-2
1
5
10
16
22
28
35
41
48
55
60
65
68
71
72
75
76
77
78
80
78
78
77
76
75
72
70
65
58
52
45
36
28
21
15
7
1
-4
-8
-13
-17
-20
-23
-24
-25
-27
-28
-27
-27
-27
-28
-27
-27
-28
-29
-30
-30
-32
-33
-34
-34
-35
-35
-35
-35
-34
-34
-33
-32
-30
-29
-28
-27
-25
-24
-23
-22
-20
-19
-18
-19
-18
-17
-17
-17
-15
-15
-14
-14
-13
-12
-12
-10
-10
-8
-7
-4
-2
1
3
6
10
12
17
21
23
25
23
18
13
7
2
0
-4
-5
-8
-12
-15
-19
-22
-25
-28
-29
-29
-30
-30
-30
-30
-30
-30
-29
-28
-23
-13
5
32
65
97
122
133
126
102
63
20
-22
-59
-88
-107
-118
-122
-119
-112
-100
-87
-73
-62
-50
-43
-37
-32
-29
-25
-23
-19
-17
-14
-12
-9
-8
-5
-5
-4
-4
-3
-2
1
2
5
8
11
16
21
26
32
38
45
51
57
62
66
70
72
75
75
76
77
78
77
78
78
78
80
81
81
81
81
80
77
75
70
65
60
52
45
37
30
23
17
11
7
2
-2
-4
-7
-7
-9
-9
-10
-12
-13
-14
-18
-19
-20
-22
-23
-24
-28
-28
-28
-28
-25
-23
-19
-17
-13
-10
-8
-4
0
5
6
5
1
-4
-9
-15
-18
-22
-24
-27
-28
-30
-34
-37
-39
-42
-43
-44
-45
-45
-47
-48
-47
-45
-43
-38
-25
-7
16
45
71
90
96
85
60
21
-23
-68
-104
-133
-149
-155
-153
-143
-128
-109
-90
-72
-57
-44
-35
-30
-25
-22
-18
-14
-12
-9
-7
-4
-3
0
2
3
5
7
8
11
13
16
18
22
27
31
37
42
50
57
63
70
73
78
82
83
83
83
85
85
85
85
85
85
85
83
82
81
78
75
71
67
63
58
55
50
43
35
27
18
10
5
2
2
1
1
0
0
-2
-4
-5
-8
-12
-14
-18
-20
-23
-24
-25
-25
-27
-28
-29
-30
-32
-33
-34
-35
-38
-40
-42
-39
-30
-14
7
32
55
67
67
53
26
-9
-49
-87
-118
-140
-153
-157
-153
-143
-129
-112
-94
-80
-68
-58
-52
-47
-43
-39
-38
-35
-32
-29
-27
-24
-20
-17
-13
-10
-7
-3
1
3
8
13
20
26
33
41
47
53
60
63
68
71
73
75
75
75
73
73
73
72
72
72
71
70
68
65
61
57
51
45
38
31
23
16
10
5
0
-4
-9
-13
-17
-19
-20
-22
-23
-24
-24
-24
-25
-25
-27
-27
-28
-28
-29
-29
-30
-30
-32
-32
-32
-32
-32
-30
-30
-29
-28
-27
-25
-24
-23
-22
-20
-19
-19
-18
-17
-17
-15
-15
-14
-15
-14
-14
-13
-13
-12
-10
-10
-9
-9
-9
-9
-8
-7
-4
-3
1
2
6
7
11
15
20
23
26
26
22
17
12
7
5
2
1
0
-3
-5
-9
-13
-17
-19
-22
-23
-24
-25
-28
-29
-29
-29
-29
-29
-28
-20
-7
17
48
85
118
142
148
136
110
73
32
-5
-38
-65
-83
-97
-104
-105
-103
-95
-85
-75
-67
-58
-52
-47
-43
-39
-35
-34
-30
-29
-27
-24
-22
-20
-20
-18
-17
-14
-13
-12
-10
-8
-8
-4
-2
1
6
12
17
23
30
36
42
48
53
57
61
62
63
66
67
68
68
70
70
71
72
72
73
73
73
72
70
67
62
57
51
43
36
28
22
16
10
5
0
-4
-7
-8
-10
-12
-14
-15
-18
-19
-20
-23
-24
-25
-28
-29
-32
-32
-33
-33
-32
-29
-27
-22
-18
-14
-9
-7
-2
2
6
10
10
8
5
0
-5
-8
-12
-14
-15
-18
-18
-20
-23
-27
-29
-30
-32
-33
-34
-35
-37
-38
-37
-37
-33
-24
-10
13
45
76
106
125
127
111
81
38
-7
-49
-85
-113
-128
-135
-134
-127
-115
-100
-84
-70
-57
-48
-40
-34
-29
-25
-23
-19
-18
-15
-13
-10
-8
-7
-5
-4
-3
0
1
2
5
7
10
13
17
22
28
35
43
50
56
61
66
70
71
72
72
73
73
75
75
75
76
76
76
76
75
73
71
66
62
58
55
51
46
41
35
26
17
10
2
-2
-3
-3
-3
-2
-3
-5
-8
-8
-10
-13
-15
-18
-22
-23
-25
-27
-28
-29
-30
-32
-32
-33
-32
-33
-34
-35
-37
-38
-37
-30
-18
2
26
50
68
75
67
45
11
-30
-73
-110
-139
-158
-167
-165
-157
-143
-125
-107
-88
-72
-59
-49
-42
-37
-33
-29
-25
-22
-19
-15
-12
-9
-7
-3
0
3
7
12
16
23
30
36
43
52
60
67
75
82
87
91
93
93
96
96
95
93
91
90
87
86
83
81
78
75
71
66
61
57
51
46
38
31
25
17
11
5
0
-3
-5
-9
-12
-12
-14
-15
-17
-15
-15
-15
-15
-15
-15
-15
-15
-17
-18
-18
-19
-19
-19
-22
-23
-23
-23
-24
-25
-27
-27
-27
-27
-27
-27
-25
-25
-25
-25
-25
-25
-24
-24
-23
-23
-22
-22
-22
-20
-19
-19
-18
-18
-17
-17
-15
-15
-14
-12
-10
-8
-5
-3
1
3
6
10
13
17
21
21
18
13
8
5
1
-3
-5
-8
-10
-14
-18
-22
-24
-28
-30
-32
-33
-34
-34
-34
-35
-35
-37
-37
-35
-30
-20
-2
22
52
80
98
103
93
68
35
-3
-39
-68
-90
-105
-113
-115
-112
-104
-94
-82
-70
-59
-52
-44
-38
-34
-29
-27
-24
-22
-19
-17
-17
-15
-14
-14
-13
-13
-12
-12
-10
-9
-7
-5
-3
1
3
8
13
20
27
33
40
46
51
55
58
61
63
66
68
70
72
75
75
77
78
80
81
81
82
81
80
77
73
70
63
56
48
41
32
25
17
10
5
1
-4
-8
-12
-15
-18
-18
-19
-20
-22
-23
-23
-25
-27
-28
-29
-30
-33
-33
-33
-32
-28
-25
-20
-17
-12
-7
-3
1
5
8
10
10
7
3
0
-5
-9
-10
-12
-13
-14
-17
-19
-23
-25
-28
-30
-33
-33
-34
-34
-34
-37
-37
-35
-32
-22
-7
18
50
82
108
123
125
107
76
38
-2
-39
-70
-93
-108
-115
-117
-113
-105
-94
-82
-70
-60
-53
-49
-45
-43
-40
-38
-35
-32
-29
-27
-24
-22
-20
-18
-17
-14
-13
-13
-10
-9
-7
-4
-2
2
7
11
17
22
28
35
40
45
48
52
55
57
60
62
65
67
68
70
70
70
70
68
67
65
61
58
56
51
48
45
40
32
22
13
6
1
-2
-3
-2
-2
-2
-2
-4
-4
-7
-10
-14
-18
-22
-25
-28
-29
-30
-32
-34
-34
-35
-35
-35
-35
-35
-35
-37
-37
-35
-30
-22
-4
22
53
83
106
113
105
80
42
-2
-43
-80
-108
-127
-137
-138
-133
-123
-109
-95
-80
-67
-57
-48
-42
-39
-35
-33
-29
-28
-25
-22
-18
-14
-10
-7
-5
-2
2
6
10
15
20
26
33
41
50
57
63
71
76
81
85
87
88
90
90
90
88
88
87
87
86
83
81
78
76
71
65
60
52
45
38
31
23
17
11
5
0
-3
-5
-8
-10
-12
-13
-14
-15
-17
-17
-17
-18
-18
-18
-19
-19
-20
-22
-23
-25
-27
-27
-28
-29
-29
-30
-30
-32
-32
-32
-32
-32
-29
-29
-28
-28
-27
-27
-27
-28
-27
-27
-27
-25
-25
-25
-24
-24
-23
-20
-20
-19
-19
-20
-19
-19
-18
-17
-14
-10
-7
-4
0
2
6
10
15
20
23
23
21
16
11
5
0
-2
-4
-7
-9
-12
-14
-17
-19
-20
-22
-23
-24
-25
-25
-25
-25
-25
-24
-24
-22
-18
-7
11
36
63
88
105
106
91
62
21
-22
-62
-95
-117
-129
-134
-133
-125
-115
-102
-87
-70
-58
-48
-39
-32
-27
-23
-19
-17
-13
-10
-9
-8
-5
-4
-3
-2
0
1
2
3
6
8
11
15
18
22
27
33
40
46
53
60
66
72
76
80
82
83
83
83
85
85
86
86
87
90
90
90
91
91
90
87
85
81
76
71
65
57
50
41
33
26
20
15
10
5
2
0
-2
-4
-7
-9
-10
-13
-15
-17
-19
-22
-23
-25
-28
-29
-30
-32
-32
-30
-28
-25
-22
-18
-14
-10
-8
-4
0
1
1
0
-3
-8
-14
-19
-23
-25
-28
-29
-32
-34
-37
-40
-43
-45
-47
-48
-49
-49
-52
-52
-52
-52
-49
-42
-30
-10
15
43
67
82
82
67
38
2
-38
-74
-105
-127
-140
-143
-140
-130
-118
-102
-87
-73
-62
-53
-47
-42
-37
-34
-30
-27
-24
-22
-18
-17
-15
-13
-10
-9
-9
-8
-5
-4
-2
0
2
5
7
12
17
23
30
36
43
48
53
57
61
63
65
65
66
67
68
68
71
72
73
75
75
75
73
70
67
63
58
55
51
46
38
30
20
11
3
-2
-3
-3
-3
-3
-3
-4
-7
-10
-13
-17
-19
-22
-25
-28
-29
-30
-33
-34
-34
-34
-34
-34
-34
-34
-34
-34
-34
-34
-33
-29
-15
5
33
65
95
115
121
111
88
57
22
-10
-39
-63
-79
-92
-98
-98
-93
-85
-78
-69
-59
-53
-47
-42
-39
-35
-33
-30
-27
-24
-23
-20
-18
-17
-14
-12
-9
-7
-5
-2
1
6
11
16
23
30
38
45
52
57
62
67
70
72
73
75
76
76
77
77
77
77
76
75
72
70
66
61
56
48
41
33
26
18
12
5
0
-5
-10
-14
-17
-20
-22
-23
-24
-25
-27
-25
-27
-28
-28
-27
-28
-28
-29
-29
-29
-30
-32
-30
-30
-30
-30
-30
-30
-30
-30
-30
-29
-29
-28
-27
-27
-25
-24
-24
-23
-22
-22
-20
-19
-18
-17
-17
-15
-15
-15
-15
-14
-14
-14
-13
-13
-12
-9
-7
-4
0
2
3
7
11
15
18
23
26
26
23
17
12
6
1
-2
-5
-7
-10
-13
-15
-19
-22
-24
-27
-29
-30
-30
-30
-30
-30
-29
-30
-29
-27
-20
-8
13
43
76
107
127
131
117
87
46
3
-38
-72
-97
-112
-120
-120
-115
-107
-95
-83
-69
-57
-47
-40
-34
-29
-27
-24
-22
-18
-15
-14
-12
-9
-8
-7
-5
-5
-4
-3
-2
0
1
3
6
10
13
18
23
30
36
43
51
56
61
66
68
71
72
73
75
76
76
77
78
80
81
82
82
82
82
82
80
77
73
68
63
56
48
41
33
27
20
13
8
3
0
-3
-5
-8
-8
-10
-12
-13
-15
-17
-18
-19
-22
-23
-23
-24
-27
-28
-29
-28
-27
-25
-22
-18
-15
-12
-10
-7
-3
0
3
5
3
0
-5
-10
-15
-18
-22
-24
-28
-30
-32
-34
-35
-38
-39
-40
-40
-43
-43
-43
-43
-42
-42
-39
-32
-20
-2
25
53
80
96
98
86
57
17
-28
-70
-107
-132
-148
-152
-147
-137
-120
-102
-83
-67
-52
-40
-32
-25
-22
-19
-15
-12
-9
-7
-4
-3
0
1
3
3
5
6
7
10
11
13
18
21
26
30
36
42
51
58
65
70
76
80
81
82
83
82
82
82
83
83
82
82
83
82
82
81
78
76
72
68
63
60
55
48
41
31
21
13
6
1
-2
-2
-2
-2
-3
-3
-4
-5
-8
-12
-13
-15
-19
-22
-25
-28
-28
-29
-30
-30
-32
-33
-34
-34
-35
-38
-38
-40
-40
-38
-27
-9
13
38
60
70
67
52
22
-15
-55
-93
-122
-143
-154
-157
-152
-140
-125
-109
-92
-78
-67
-57
-50
-47
-43
-39
-37
-33
-29
-25
-22
-19
-15
-13
-10
-8
-4
-2
2
6
11
18
23
30
37
43
50
56
61
66
70
72
73
76
76
77
77
76
76
76
73
72
72
71
68
66
63
61
55
48
42
35
27
20
12
6
1
-3
-8
-12
-14
-18
-20
-22
-23
-23
-23
-24
-24
-23
-23
-23
-24
-24
-27
-27
-27
-28
-28
-28
-29
-29
-29
-29
-28
-28
-27
-25
-24
-23
-22
-20
-19
-18
-17
-17
-15
-14
-14
-14
-13
-13
-13
-10
-10
-9
-9
-8
-8
-7
-8
-8
-7
-7
-5
-3
0
2
5
7
11
15
18
23
27
31
31
28
23
18
13
10
6
3
0
-2
-5
-9
-13
-15
-19
-22
-23
-24
-25
-27
-28
-28
-29
-29
-30
-28
-23
-12
8
40
76
111
137
147
138
113
78
38
0
-34
-63
-83
-98
-107
-109
-105
-98
-88
-78
-68
-59
-53
-47
-44
-40
-37
-33
-30
-29
-25
-23
-22
-19
-18
-17
-15
-14
-13
-12
-10
-9
-7
-4
-2
1
5
10
15
22
27
33
38
45
48
52
56
58
61
63
66
67
70
70
71
71
72
73
73
72
72
71
68
65
61
56
51
43
36
28
22
15
8
3
0
-4
-8
-9
-12
-14
-17
-17
-18
-19
-22
-23
-24
-28
-29
-30
-32
-33
-34
-35
-34
-33
-30
-27
-22
-17
-13
-8
-4
0
5
7
8
8
5
0
-4
-9
-13
-15
-17
-19
-20
-22
-25
-28
-30
-33
-34
-34
-35
-37
-38
-38
-38
-38
-35
-30
-18
1
28
61
93
117
127
118
93
55
10
-35
-74
-104
-124
-134
-137
-130
-120
-105
-90
-74
-60
-49
-40
-35
-30
-27
-23
-19
-17
-13
-12
-9
-7
-5
-3
-4
-2
0
1
2
5
6
8
11
15
18
23
28
36
43
50
55
60
65
68
68
71
72
72
73
73
75
75
76
76
76
73
72
70
67
65
61
56
53
50
46
40
32
23
15
7
1
-3
-4
-3
-3
-3
-4
-4
-5
-8
-10
-14
-17
-19
-22
-24
-25
-25
-27
-27
-28
-30
-32
-30
-32
-32
-32
-33
-35
-35
-33
-24
-8
13
38
61
75
75
60
32
-5
-49
-89
-123
-147
-160
-164
-159
-148
-133
-115
-97
-79
-65
-54
-44
-39
-34
-30
-27
-23
-20
-17
-13
-9
-5
-3
0
3
6
10
15
20
25
31
40
47
55
63
71
77
83
88
92
93
95
96
96
95
92
90
88
86
85
81
78
75
71
68
63
57
53
46
38
32
25
18
12
6
2
-2
-7
-8
-10
-13
-13
-15
-15
-15
-17
-17
-15
-17
-17
-17
-17
-17
-19
-19
-19
-20
-20
-23
-23
-23
-24
-24
-24
-24
-25
-27
-27
-25
-25
-25
-25
-24
-24
-24
-24
-24
-24
-24
-23
-23
-22
-22
-20
-20
-19
-19
-19
-18
-17
-17
-15
-15
-13
-10
-9
-7
-4
0
2
6
10
13
17
21
23
22
17
12
7
2
0
-4
-8
-10
-14
-17
-20
-24
-28
-30
-32
-33
-34
-35
-35
-35
-35
-35
-35
-37
-34
-28
-15
5
31
61
87
103
105
91
63
28
-9
-43
-72
-93
-104
-112
-113
-109
-102
-92
-79
-68
-57
-49
-43
-38
-35
-32
-30
-28
-24
-23
-20
-19
-18
-17
-14
-13
-13
-12
-10
-9
-8
-5
-3
0
3
6
11
16
21
28
35
41
46
51
55
58
61
63
66
67
68
70
72
72
75
76
78
80
78
78
78
77
75
71
66
61
55
47
38
31
23
16
8
3
0
-4
-8
-12
-14
-17
-19
-20
-19
-22
-23
-24
-25
-27
-28
-30
-32
-33
-33
-33
-30
-27
-23
-19
-14
-9
-5
-2
2
7
11
12
12
8
5
1
-4
-7
-9
-12
-13
-14
-17
-20
-24
-28
-30
-33
-34
-35
-37
-38
-39
-39
-39
-38
-34
-23
-4
21
55
87
112
125
121
102
70
30
-9
-45
-77
-98
-112
-119
-118
-113
-104
-93
-80
-72
-62
-55
-49
-45
-42
-39
-38
-34
-32
-30
-28
-25
-23
-20
-18
-15
-14
-13
-10
-9
-7
-4
-2
1
5
10
15
22
28
35
42
47
52
56
60
62
65
66
68
68
71
72
73
75
75
75
73
71
70
67
61
57
51
45
37
30
22
16
10
3
0
-3
-7
-9
-12
-12
-13
-14
-15
-17
-18
-19
-19
-19
-20
-20
-22
-22
-23
-24
-24
-24
-24
-24
-25
-24
-24
-23
-19
-15
-12
-7
-3
0
3
7
11
13
15
15
11
6
-2
-4
-9
-13
-15
-18
-20
-23
-27
-30
-33
-37
-38
-40
-40
-43
-43
-43
-42
-43
-40
-35
-25
-8
17
50
82
107
120
115
93
56
12
-33
-73
-105
-127
-138
-140
-135
-124
-109
-92
-75
-62
-50
-40
-33
-27
-23
-19
-15
-12
-9
-5
-3
-2
1
3
6
8
10
11
12
13
15
17
20
22
26
31
37
43
50
55
61
65
68
71
73
75
76
76
76
76
77
76
76
76
76
75
73
71
68
65
61
57
52
47
43
38
32
23
16
7
0
-5
-7
-7
-7
-7
-5
-7
-7
-8
-10
-13
-14
-18
-20
-23
-24
-25
-27
-28
-29
-29
-30
-30
-30
-32
-32
-33
-33
-34
-33
-27
-15
1
23
47
66
73
68
48
15
-27
-68
-108
-137
-157
-165
-165
-158
-144
-127
-108
-89
-74
-60
-50
-44
-39
-35
-32
-29
-25
-23
-19
-14
-10
-8
-5
-3
1
6
10
15
21
27
35
42
50
57
65
71
77
85
90
92
95
95
96
95
92
91
90
87
86
82
81
78
75
73
68
65
60
53
46
40
32
23
17
11
5
0
-3
-5
-8
-10
-12
-12
-12
-13
-13
-12
-13
-12
-13
-13
-14
-14
-15
-15
-17
-17
-19
-19
-20
-20
-22
-22
-23
-24
-23
-24
-24
-24
-24
-25
-23
-23
-23
-23
-23
-23
-23
-23
-23
-22
-22
-22
-22
-22
-22
-20
-19
-18
-18
-19
-18
-18
-15
-15
-13
-10
-8
-4
-2
1
5
10
13
17
20
18
17
13
8
5
1
-3
-5
-9
-12
-15
-19
-23
-27
-29
-30
-32
-33
-34
-34
-35
-35
-35
-35
-35
-34
-30
-20
-2
23
52
80
98
103
93
70
35
-2
-37
-67
-89
-103
-112
-115
-113
-107
-97
-85
-73
-62
-52
-47
-40
-37
-33
-30
-28
-24
-23
-20
-18
-18
-17
-17
-15
-14
-14
-13
-12
-10
-9
-7
-4
0
2
7
12
18
25
33
40
46
51
55
58
61
65
67
68
71
72
73
75
76
77
80
81
82
82
82
78
76
72
68
63
57
50
42
35
26
18
12
6
0
-4
-8
-10
-13
-14
-15
-17
-18
-19
-20
-20
-22
-23
-24
-25
-27
-29
-29
-28
-28
-25
-20
-17
-12
-7
-3
0
3
7
10
12
12
10
7
2
-3
-7
-9
-12
-13
-14
-17
-19
-23
-25
-29
-30
-32
-33
-34
-37
-37
-38
-37
-38
-34
-27
-10
12
43
77
106
125
126
111
81
43
2
-34
-65
-90
-107
-114
-117
-113
-105
-94
-82
-70
-60
-53
-47
-43
-39
-37
-33
-30
-28
-25
-23
-22
-19
-18
-15
-14
-13
-12
-9
-8
-7
-5
-4
0
5
8
13
18
25
32
37
42
47
51
55
57
60
61
62
63
65
67
68
68
70
70
68
67
66
61
57
53
48
43
40
36
31
25
17
8
1
-4
-8
-8
-7
-5
-4
-5
-5
-7
-8
-12
-14
-17
-20
-24
-27
-28
-30
-32
-33
-33
-34
-34
-34
-34
-33
-33
-34
-34
-33
-30
-22
-5
21
51
81
102
112
106
83
46
3
-38
-77
-105
-125
-137
-139
-135
-127
-114
-99
-84
-72
-60
-52
-47
-42
-39
-35
-34
-30
-28
-24
-20
-17
-13
-10
-7
-4
0
5
8
13
20
27
33
41
48
57
65
71
77
82
86
88
90
91
92
92
91
91
91
90
88
87
87
85
81
77
71
66
58
51
45
37
30
22
16
8
3
-2
-4
-8
-9
-12
-13
-14
-14
-15
-17
-17
-17
-18
-18
-18
-19
-19
-20
-20
-22
-24
-24
-25
-27
-28
-29
-29
-29
-29
-30
-29
-29
-29
-28
-28
-27
-27
-25
-24
-23
-23
-23
-22
-22
-22
-22
-20
-20
-20
-20
-19
-19
-19
-19
-18
-17
-15
-14
-10
-8
-5
-3
0
3
7
11
17
21
23
22
18
13
8
3
0
-3
-5
-8
-10
-13
-17
-19
-22
-24
-27
-27
-28
-28
-28
-28
-28
-28
-28
-27
-23
-17
-3
16
42
70
91
102
98
78
43
1
-39
-78
-107
-127
-135
-137
-132
-123
-110
-95
-80
-67
-54
-43
-35
-29
-24
-20
-18
-14
-10
-9
-7
-5
-3
-3
-2
0
1
2
3
6
7
10
13
17
22
27
32
38
45
51
58
66
71
76
80
83
86
87
88
87
87
88
88
90
90
91
92
93
95
92
92
91
87
83
78
71
63
57
48
40
32
25
17
12
7
3
0
-3
-5
-8
-10
-12
-14
-17
-19
-22
-23
-25
-27
-29
-30
-33
-34
-34
-34
-33
-32
-28
-24
-22
-18
-14
-10
-5
-2
0
0
-2
-5
-10
-17
-22
-23
-25
-28
-28
-32
-34
-38
-42
-45
-47
-48
-49
-50
-50
-52
-53
-53
-53
-50
-43
-29
-9
16
43
66
80
78
63
35
0
-40
-75
-105
-125
-137
-140
-137
-127
-114
-99
-84
-73
-63
-54
-48
-43
-39
-37
-33
-30
-28
-25
-23
-20
-18
-14
-13
-12
-10
-9
-8
-5
-3
0
2
5
8
13
20
26
33
41
48
53
57
60
62
65
67
67
68
71
72
71
72
73
75
75
75
73
71
68
65
62
57
52
48
43
36
28
20
11
5
0
-3
-4
-4
-4
-4
-7
-8
-10
-14
-18
-22
-25
-28
-30
-33
-33
-34
-34
-34
-33
-33
-33
-32
-32
-30
-30
-30
-29
-27
-20
-8
13
42
75
102
121
125
112
86
52
16
-18
-48
-72
-89
-100
-105
-104
-99
-92
-82
-72
-63
-54
-48
-44
-40
-38
-35
-34
-30
-28
-25
-23
-20
-18
-17
-14
-12
-9
-5
-2
2
7
13
20
26
33
42
48
55
61
65
68
71
72
75
76
76
77
77
77
76
76
75
73
71
67
65
60
53
47
40
31
23
16
8
1
-4
-9
-13
-17
-20
-23
-23
-24
-25
-25
-25
-25
-27
-28
-28
-29
-29
-30
-30
-33
-33
-33
-34
-35
-35
-35
-35
-35
-35
-35
-34
-34
-33
-33
-32
-30
-28
-27
-25
-23
-22
-20
-19
-18
-18
-17
-15
-14
-14
-13
-13
-13
-12
-12
-10
-12
-10
-9
-9
-7
-4
-3
0
3
6
10
13
18
22
25
25
23
18
13
7
2
0
-3
-5
-8
-10
-14
-18
-20
-24
-25
-27
-28
-28
-28
-28
-28
-27
-28
-27
-24
-19
-8
10
37
70
100
122
130
118
91
52
8
-33
-69
-94
-110
-119
-122
-118
-109
-98
-84
-70
-58
-47
-40
-34
-29
-27
-23
-20
-18
-14
-13
-12
-9
-8
-5
-5
-4
-3
-2
0
1
2
5
7
11
15
20
26
32
38
46
53
58
65
68
72
75
76
76
77
78
78
77
78
80
80
81
82
82
81
81
80
77
73
71
66
58
52
45
37
28
21
15
8
3
1
-3
-5
-7
-8
-8
-10
-12
-13
-15
-18
-19
-23
-24
-25
-27
-28
-30
-30
-30
-29
-28
-25
-22
-18
-14
-10
-8
-3
1
5
6
6
2
-2
-7
-12
-17
-20
-22
-24
-27
-29
-32
-34
-38
-40
-42
-43
-45
-45
-45
-45
-45
-45
-43
-37
-28
-9
13
41
67
86
92
83
58
22
-20
-64
-102
-129
-148
-153
-150
-140
-125
-107
-88
-70
-54
-43
-34
-28
-23
-19
-15
-12
-9
-7
-5
-3
-2
0
2
3
5
7
8
11
13
16
18
23
28
32
38
45
53
60
66
72
77
80
82
83
85
86
86
86
86
87
87
87
87
86
85
83
81
77
73
71
67
63
58
53
46
37
27
17
10
5
1
0
-2
-3
-4
-5
-7
-9
-13
-15
-19
-22
-25
-29
-32
-34
-35
-37
-38
-39
-40
-42
-43
-43
-43
-43
-44
-45
-47
-43
-34
-18
2
27
51
66
71
61
36
2
-35
-73
-104
-128
-142
-148
-148
-140
-128
-113
-97
-83
-70
-60
-55
-50
-47
-44
-42
-38
-35
-32
-28
-25
-23
-20
-18
-14
-12
-8
-4
0
3
7
13
20
27
33
41
47
55
60
65
67
68
72
72
72
72
73
75
73
75
75
75
72
71
70
66
62
56
51
43
37
30
22
16
10
6
0
-4
-9
-12
-14
-17
-18
-19
-19
-20
-22
-23
-22
-23
-23
-24
-24
-27
-27
-27
-29
-29
-29
-29
-29
-29
-29
-29
-29
-28
-28
-27
-25
-24
-23
-22
-20
-19
-18
-17
-17
-15
-15
-14
-14
-13
-12
-12
-10
-9
-9
-9
-8
-9
-8
-7
-7
-4
-4
0
2
3
7
11
15
18
22
25
28
28
27
23
18
12
7
3
2
0
-3
-7
-10
-14
-19
-23
-25
-28
-29
-30
-32
-33
-33
-34
-35
-35
-35
-32
-22
-4
22
57
93
125
145
146
128
97
57
17
-19
-52
-75
-93
-104
-109
-108
-103
-94
-84
-73
-64
-57
-50
-45
-43
-39
-38
-34
-30
-28
-25
-24
-22
-20
-19
-18
-15
-14
-13
-12
-10
-9
-7
-4
-2
3
7
12
18
26
33
40
45
50
53
57
60
62
65
65
67
68
70
71
72
72
73
75
73
73
72
71
68
65
60
55
48
42
35
28
22
16
10
5
0
-4
-5
-8
-10
-12
-14
-14
-15
-18
-19
-20
-22
-23
-23
-24
-27
-27
-28
-29
-28
-25
-23
-19
-15
-12
-8
-5
0
3
7
11
11
10
6
0
-5
-10
-13
-15
-17
-19
-20
-23
-25
-28
-30
-33
-34
-35
-37
-38
-38
-38
-39
-39
-37
-29
-14
8
37
71
100
118
122
108
77
37
-9
-52
-89
-114
-132
-139
-137
-129
-117
-100
-85
-69
-57
-45
-38
-32
-29
-25
-22
-19
-15
-13
-10
-8
-7
-5
-3
-2
0
1
2
5
6
8
11
15
18
25
31
37
45
51
57
63
67
70
72
75
76
76
76
76
76
76
76
75
75
75
73
72
71
67
63
60
56
52
48
43
37
30
21
12
5
0
-3
-4
-3
-3
-4
-7
-7
-8
-10
-13
-15
-18
-20
-24
-25
-28
-29
-29
-30
-30
-32
-32
-33
-34
-34
-35
-37
-37
-37
-30
-19
-3
22
46
66
75
68
50
16
-25
-67
-105
-134
-155
-163
-164
-157
-143
-125
-107
-89
-73
-60
-52
-44
-39
-35
-32
-28
-25
-22
-18
-14
-12
-8
-5
-2
2
7
11
16
22
27
33
41
48
56
63
72
78
83
88
92
93
93
93
93
93
92
91
87
86
83
81
78
76
72
68
65
60
53
47
40
33
26
20
12
7
2
0
-4
-8
-9
-10
-12
-12
-13
-14
-13
-14
-14
-14
-14
-15
-15
-15
-17
-17
-17
-19
-19
-20
-22
-23
-24
-25
-27
-27
-25
-27
-25
-25
-25
-25
-24
-24
-24
-23
-23
-22
-22
-22
-22
-22
-22
-20
-20
-20
-19
-18
-18
-17
-17
-18
-17
-17
-17
-14
-13
-9
-8
-5
-3
0
3
7
11
15
16
15
11
7
2
-2
-7
-9
-10
-13
-15
-18
-20
-23
-25
-28
-29
-30
-32
-33
-33
-34
-34
-34
-35
-37
-34
-28
-15
6
32
62
88
105
106
91
63
28
-8
-43
-70
-90
-104
-110
-113
-109
-103
-93
-82
-70
-62
-52
-45
-42
-37
-34
-32
-29
-25
-23
-22
-19
-18
-17
-15
-17
-15
-13
-12
-10
-9
-7
-5
-3
1
3
8
15
20
26
32
40
46
51
56
61
63
67
68
68
71
72
73
75
75
77
78
81
81
82
82
81
78
75
70
65
57
51
42
35
26
18
11
5
0
-4
-8
-10
-13
-14
-14
-15
-15
-17
-18
-19
-20
-22
-23
-24
-24
-25
-25
-24
-23
-20
-15
-12
-8
-4
-2
3
7
11
13
16
15
11
6
0
-4
-8
-12
-13
-14
-17
-19
-23
-25
-29
-32
-34
-35
-38
-38
-39
-39
-40
-40
-38
-35
-24
-5
21
55
87
113
127
123
103
71
30
-9
-47
-77
-99
-113
-119
-119
-113
-104
-92
-80
-69
-59
-53
-47
-43
-39
-37
-33
-29
-25
-23
-20
-18
-17
-15
-13
-10
-10
-9
-8
-5
-4
-3
0
2
6
10
17
22
27
33
38
43
48
51
55
57
60
61
62
65
66
67
66
67
67
67
67
66
63
60
56
53
51
46
42
37
30
21
12
3
-2
-5
-5
-5
-5
-4
-4
-7
-8
-12
-13
-17
-19
-22
-24
-27
-29
-30
-30
-32
-33
-33
-33
-33
-34
-34
-34
-35
-35
-34
-30
-20
-2
25
56
83
103
110
100
73
35
-8
-49
-85
-112
-129
-138
-138
-133
-123
-108
-94
-79
-67
-57
-49
-44
-40
-37
-34
-30
-28
-27
-23
-20
-18
-14
-10
-8
-5
-2
3
8
15
21
27
35
43
51
60
67
73
78
85
87
90
91
91
91
91
91
91
88
87
86
85
82
80
76
72
67
62
55
47
40
32
25
17
11
5
1
-3
-7
-9
-12
-14
-15
-17
-17
-17
-18
-18
-18
-19
-19
-20
-22
-23
-24
-24
-25
-27
-28
-28
-29
-30
-32
-32
-33
-33
-32
-32
-32
-30
-30
-29
-28
-27
-27
-27
-25
-25
-25
-24
-24
-23
-23
-22
-22
-20
-19
-19
-19
-18
-18
-19
-18
-18
-17
-14
-12
-8
-4
0
2
6
10
15
18
22
23
22
18
12
7
2
0
-3
-5
-8
-10
-13
-17
-19
-22
-23
-24
-25
-25
-27
-27
-25
-25
-25
-25
-24
-20
-13
1
23
50
77
97
106
97
73
36
-7
-48
-84
-110
-125
-134
-134
-130
-120
-107
-92
-77
-62
-50
-42
-34
-28
-24
-20
-17
-13
-10
-9
-7
-4
-2
-2
0
1
2
2
3
5
7
8
12
16
21
26
31
37
45
52
58
65
70
75
78
81
83
86
86
87
88
88
90
90
91
92
93
93
93
93
92
90
88
83
77
71
63
55
47
40
31
23
17
11
6
1
-2
-5
-7
-9
-12
-14
-17
-19
-22
-24
-27
-28
-30
-33
-34
-38
-39
-39
-38
-37
-33
-29
-25
-20
-15
-12
-8
-3
0
2
1
-3
-7
-12
-17
-22
-24
-25
-27
-29
-30
-34
-38
-42
-45
-48
-50
-52
-54
-54
-54
-54
-54
-54
-49
-39
-23
1
26
53
73
82
78
57
26
-10
-49
-84
-110
-129
-138
-139
-134
-124
-110
-95
-80
-68
-58
-52
-45
-40
-37
-33
-29
-27
-24
-22
-19
-18
-15
-14
-12
-10
-9
-7
-5
-2
0
2
5
7
12
16
22
28
36
43
50
56
61
65
67
70
72
75
76
77
78
80
81
82
82
83
83
81
80
77
73
67
61
55
47
40
32
25
17
11
5
1
-4
-8
-12
-14
-15
-18
-18
-19
-19
-20
-20
-20
-22
-22
-22
-22
-22
-22
-22
-23
-23
-24
-23
-22
-20
-18
-14
-10
-5
-2
1
3
7
10
12
13
13
13
10
5
0
-5
-9
-12
-13
-15
-18
-22
-25
-29
-33
-37
-38
-39
-40
-42
-43
-43
-44
-43
-42
-34
-20
2
32
66
97
118
126
115
87
51
10
-29
-62
-89
-108
-117
-120
-118
-110
-99
-87
-74
-63
-54
-48
-43
-38
-34
-30
-28
-24
-22
-18
-17
-14
-12
-9
-8
-7
-5
-3
-2
0
0
2
5
8
12
17
22
27
35
40
45
48
52
56
58
60
61
62
63
65
66
67
67
68
68
68
67
65
61
57
53
48
45
41
37
31
25
17
8
1
-4
-5
-7
-5
-5
-5
-4
-5
-8
-10
-14
-17
-20
-24
-27
-29
-32
-33
-33
-33
-34
-34
-34
-34
-34
-33
-33
-34
-34
-33
-28
-17
1
26
56
85
103
110
97
70
31
-12
-54
-90
-117
-134
-143
-143
-137
-125
-110
-95
-79
-67
-57
-49
-44
-39
-35
-33
-30
-27
-24
-20
-18
-14
-12
-8
-5
-3
1
5
10
15
21
27
35
42
51
58
67
73
78
83
86
90
91
92
92
92
91
90
90
88
86
85
82
80
77
72
67
62
55
47
40
31
22
15
8
2
-2
-5
-9
-12
-14
-14
-15
-17
-18
-18
-19
-19
-19
-19
-20
-22
-23
-23
-24
-24
-25
-27
-27
-27
-28
-29
-29
-29
-29
-29
-29
-29
-29
-29
-28
-27
-27
-25
-25
-25
-25
-25
-25
-24
-23
-23
-23
-22
-22
-20
-20
-19
-19
-19
-19
-19
-18
-17
-15
-13
-10
-8
-5
-2
1
3
8
13
17
20
22
20
15
10
5
1
-2
-4
-5
-9
-12
-14
-18
-20
-23
-24
-24
-24
-25
-25
-25
-27
-25
-25
-25
-24
-19
-9
7
32
58
83
100
101
87
57
17
-24
-65
-98
-119
-132
-137
-134
-127
-115
-102
-87
-72
-58
-47
-38
-32
-27
-23
-19
-15
-13
-10
-8
-5
-3
0
0
1
2
3
5
6
7
10
11
15
18
22
27
33
40
46
55
61
66
72
76
78
81
82
83
85
85
85
86
86
87
88
90
91
92
92
91
91
88
85
80
73
66
58
51
42
35
27
20
13
7
3
1
-3
-7
-8
-12
-14
-18
-20
-23
-25
-27
-29
-30
-32
-34
-37
-38
-39
-39
-37
-34
-30
-27
-23
-19
-15
-10
-7
-3
0
1
0
-4
-9
-14
-18
-23
-25
-27
-28
-30
-33
-35
-39
-43
-45
-47
-48
-49
-50
-50
-53
-53
-53
-52
-45
-33
-14
11
38
63
80
83
71
46
12
-27
-62
-94
-117
-132
-137
-135
-129
-118
-104
-89
-75
-64
-55
-48
-43
-40
-37
-34
-30
-28
-24
-20
-18
-15
-14
-13
-10
-9
-9
-7
-4
-3
0
2
5
8
13
20
26
32
38
45
51
55
58
62
65
66
68
68
70
71
72
72
73
75
75
75
73
71
68
66
63
58
55
51
47
41
32
23
15
7
2
0
-2
-2
-2
-3
-4
-7
-9
-13
-15
-19
-22
-25
-28
-29
-30
-30
-30
-30
-30
-30
-30
-30
-30
-30
-30
-30
-30
-30
-25
-14
3
32
65
95
116
123
115
91
58
21
-14
-45
-70
-89
-103
-109
-110
-105
-98
-89
-79
-69
-60
-54
-49
-45
-42
-39
-37
-34
-32
-29
-27
-24
-20
-18
-15
-12
-8
-4
0
3
8
13
18
25
32
40
47
53
61
66
70
72
75
77
78
80
81
81
80
80
78
78
76
75
71
67
63
57
50
42
33
25
18
11
3
-2
-7
-10
-14
-18
-22
-22
-24
-25
-27
-27
-27
-28
-28
-28
-29
-29
-30
-30
-32
-34
-34
-34
-34
-37
-37
-37
-37
-35
-35
-34
-33
-33
-30
-30
-29
-28
-27
-25
-24
-22
-20
-19
-18
-15
-14
-14
-13
-13
-13
-13
-13
-12
-12
-10
-10
-10
-9
-7
-5
-3
1
1
3
7
10
13
17
21
25
25
23
20
15
8
3
1
-2
-4
-8
-12
-15
-18
-22
-24
-25
-27
-28
-29
-29
-30
-30
-29
-29
-28
-27
-22
-12
5
28
60
91
115
125
118
93
57
15
-28
-63
-90
-109
-119
-123
-119
-113
-102
-89
-75
-63
-52
-43
-37
-33
-28
-24
-22
-18
-15
-13
-10
-8
-7
-5
-4
-3
0
1
1
3
5
7
10
13
17
21
26
32
38
45
51
57
63
67
71
73
76
77
78
78
77
78
78
78
80
81
81
81
81
81
80
77
73
70
65
60
53
46
38
31
23
16
11
6
1
-2
-4
-5
-8
-10
-12
-14
-15
-17
-18
-19
-20
-22
-23
-24
-27
-28
-29
-29
-29
-27
-25
-20
-18
-14
-10
-7
-3
0
5
6
5
1
-4
-9
-14
-18
-22
-24
-28
-29
-32
-34
-38
-40
-42
-43
-44
-44
-45
-45
-44
-45
-44
-42
-37
-27
-9
15
41
67
87
93
85
61
22
-19
-64
-102
-130
-148
-154
-152
-143
-128
-109
-90
-72
-57
-44
-34
-28
-23
-19
-15
-12
-8
-5
-3
-2
0
2
5
6
7
10
11
12
13
16
18
22
26
31
38
45
52
58
65
71
76
80
82
85
85
86
85
85
85
85
85
85
85
85
83
82
80
77
73
70
66
62
58
52
46
37
27
17
8
2
0
-2
-3
-3
-4
-7
-7
-9
-13
-15
-18
-22
-25
-30
-33
-37
-38
-39
-40
-42
-43
-44
-45
-45
-44
-44
-45
-47
-47
-44
-35
-19
3
30
53
70
75
65
41
6
-30
-69
-102
-125
-140
-145
-145
-138
-125
-110
-97
-82
-69
-60
-54
-49
-47
-43
-40
-38
-35
-32
-29
-27
-24
-22
-19
-17
-13
-10
-7
-3
2
6
12
18
25
32
40
46
52
57
63
67
70
71
72
73
73
73
73
75
73
75
75
73
72
71
68
66
61
55
48
41
32
25
18
12
6
2
-2
-7
-10
-13
-14
-17
-18
-19
-20
-20
-20
-22
-22
-23
-23
-23
-24
-25
-27
-28
-28
-29
-29
-29
-29
-28
-27
-27
-25
-24
-24
-23
-22
-22
-20
-19
-19
-18
-17
-15
-14
-14
-13
-12
-10
-9
-8
-7
-7
-5
-4
-3
-4
-4
-3
-4
-3
-2
1
3
5
7
10
13
16
20
22
25
25
22
17
12
6
2
-2
-4
-7
-9
-12
-15
-19
-23
-27
-29
-30
-33
-34
-34
-35
-35
-35
-35
-35
-37
-32
-20
-2
26
61
97
127
142
140
120
86
46
5
-30
-60
-84
-99
-109
-113
-112
-105
-95
-84
-73
-63
-55
-50
-45
-40
-38
-34
-30
-27
-24
-20
-18
-17
-14
-13
-13
-12
-10
-9
-7
-5
-3
-2
0
2
6
11
16
22
27
33
40
45
51
55
58
61
63
65
66
67
68
68
70
71
71
72
72
72
72
72
71
68
65
61
55
48
42
35
28
21
15
10
5
2
-2
-3
-5
-8
-9
-12
-13
-14
-15
-17
-17
-18
-20
-22
-23
-24
-27
-27
-27
-27
-25
-23
-19
-15
-12
-8
-5
-2
2
7
10
10
7
2
-3
-8
-13
-15
-17
-19
-20
-23
-25
-28
-30
-33
-34
-35
-37
-38
-39
-39
-38
-39
-38
-33
-24
-5
18
50
82
108
122
118
97
62
17
-28
-69
-102
-125
-137
-140
-135
-125
-110
-94
-78
-63
-52
-43
-35
-30
-27
-23
-19
-17
-14
-10
-8
-7
-4
-4
-4
-2
-2
0
2
3
5
7
11
15
18
23
28
36
42
50
55
62
66
70
71
73
73
75
75
76
76
75
75
75
75
75
73
71
67
63
60
56
53
50
45
38
32
23
16
7
2
-2
-3
-3
-2
-2
-3
-4
-4
-8
-10
-14
-17
-19
-23
-24
-25
-27
-27
-29
-29
-29
-29
-30
-32
-32
-33
-35
-38
-39
-37
-28
-12
10
35
57
71
73
61
33
-4
-47
-87
-123
-147
-162
-167
-164
-154
-138
-119
-99
-82
-68
-55
-45
-40
-35
-32
-27
-23
-20
-17
-13
-9
-7
-3
0
2
6
11
15
21
26
32
40
47
55
62
70
77
82
87
90
92
93
95
95
93
93
91
90
87
86
83
81
78
76
71
67
61
56
48
42
35
28
21
13
8
3
0
-3
-5
-9
-9
-12
-13
-14
-14
-14
-14
-14
-14
-14
-14
-14
-14
-14
-15
-17
-18
-19
-20
-20
-22
-23
-24
-25
-27
-28
-29
-28
-29
-29
-30
-30
-30
-30
-29
-29
-29
-28
-28
-27
-25
-25
-25
-23
-23
-23
-23
-22
-22
-22
-20
-20
-20
-18
-17
-15
-13
-9
-7
-4
0
3
7
10
13
16
15
13
10
6
2
-2
-5
-8
-10
-13
-17
-20
-23
-27
-29
-30
-32
-33
-33
-34
-35
-35
-37
-37
-38
-37
-32
-22
-2
23
55
81
102
110
100
76
42
7
-28
-58
-80
-97
-107
-110
-109
-103
-94
-84
-73
-63
-54
-48
-43
-39
-35
-33
-29
-27
-23
-20
-19
-18
-17
-15
-14
-13
-12
-9
-8
-7
-4
-2
1
5
7
12
17
22
28
35
41
47
52
56
60
63
66
68
71
71
73
73
76
77
78
80
80
81
81
81
80
76
72
68
62
56
48
40
32
25
17
11
6
1
-3
-5
-8
-10
-10
-13
-14
-15
-17
-18
-18
-20
-22
-23
-24
-25
-27
-27
-28
-27
-23
-20
-17
-12
-8
-4
-2
2
6
8
8
7
3
-2
-4
-9
-12
-14
-17
-18
-20
-23
-27
-29
-33
-35
-38
-39
-39
-40
-40
-40
-39
-40
-38
-34
-22
-4
25
58
92
118
131
125
103
71
30
-10
-48
-78
-99
-113
-119
-119
-113
-103
-92
-79
-68
-59
-52
-45
-42
-38
-34
-32
-28
-25
-23
-20
-18
-15
-14
-13
-10
-8
-9
-8
-7
-4
-4
-2
2
6
12
17
22
27
33
40
43
48
51
55
57
60
61
62
63
66
67
67
68
70
70
68
66
62
60
56
51
48
46
42
36
28
20
12
5
0
-2
-2
-2
0
0
-2
-3
-4
-7
-9
-14
-18
-22
-24
-27
-28
-29
-29
-30
-30
-30
-32
-32
-32
-33
-33
-34
-34
-33
-28
-17
2
30
61
88
106
108
93
63
22
-19
-60
-94
-120
-137
-143
-142
-134
-122
-107
-92
-77
-63
-54
-47
-40
-38
-34
-30
-28
-24
-22
-19
-17
-13
-10
-8
-3
1
5
10
15
20
26
32
40
47
53
61
68
73
80
85
87
90
91
91
91
91
90
90
87
87
85
83
80
77
72
67
62
56
48
42
33
27
20
12
7
2
-3
-7
-9
-12
-14
-17
-18
-18
-18
-18
-19
-19
-20
-20
-20
-20
-20
-22
-23
-24
-24
-25
-25
-25
-27
-28
-29
-30
-30
-30
-32
-32
-30
-30
-30
-29
-29
-28
-28
-28
-27
-27
-25
-24
-24
-23
-22
-22
-22
-20
-20
-19
-19
-18
-17
-17
-15
-14
-13
-12
-9
-5
-2
1
5
10
15
20
23
26
26
23
18
12
7
3
0
-2
-4
-7
-10
-13
-17
-18
-20
-22
-23
-23
-23
-24
-24
-25
-25
-25
-25
-23
-18
-7
11
36
63
88
103
105
87
55
15
-28
-67
-99
-120
-130
-134
-132
-125
-113
-99
-83
-68
-57
-45
-38
-32
-27
-23
-19
-15
-13
-10
-8
-5
-4
-3
-2
1
2
3
5
6
7
10
12
15
18
23
28
35
42
48
55
61
67
73
77
81
82
82
83
85
85
86
86
87
88
90
90
91
92
92
91
90
86
82
76
70
63
56
47
38
31
23
16
11
6
1
-3
-7
-8
-10
-13
-15
-18
-22
-24
-28
-30
-33
-34
-35
-37
-37
-39
-39
-38
-35
-32
-28
-24
-19
-15
-10
-7
-3
0
1
1
0
-4
-10
-15
-19
-22
-24
-27
-29
-30
-34
-38
-40
-43
-45
-47
-48
-48
-49
-52
-52
-52
-53
-49
-42
-27
-4
21
50
73
87
86
70
40
3
-34
-69
-98
-118
-129
-133
-130
-120
-109
-95
-82
-70
-59
-52
-45
-40
-37
-34
-30
-28
-27
-23
-20
-17
-14
-12
-10
-9
-8
-7
-4
-3
0
1
3
7
11
16
21
27
33
40
46
51
56
58
61
63
65
66
67
68
71
72
73
73
75
75
75
73
72
68
65
62
58
55
51
46
38
30
20
11
3
0
0
0
0
0
0
-3
-5
-7
-9
-12
-15
-18
-20
-23
-27
-28
-28
-28
-28
-29
-29
-29
-30
-30
-30
-30
-32
-32
-32
-24
-8
16
47
78
106
121
120
102
72
37
-2
-34
-63
-84
-98
-107
-110
-108
-102
-93
-83
-74
-64
-57
-50
-45
-42
-39
-35
-34
-32
-28
-25
-23
-20
-18
-15
-12
-8
-5
-3
1
6
10
16
22
30
37
45
53
61
66
70
75
77
80
81
82
82
82
82
82
81
80
78
76
72
68
63
60
53
46
38
30
22
15
7
1
-4
-8
-13
-15
-18
-19
-22
-23
-25
-25
-27
-27
-27
-28
-28
-29
-29
-30
-30
-32
-33
-34
-35
-35
-37
-35
-35
-35
-35
-34
-33
-32
-30
-29
-28
-27
-25
-24
-23
-22
-20
-19
-17
-17
-15
-14
-13
-13
-13
-13
-12
-13
-13
-13
-13
-12
-10
-10
-8
-7
-4
0
1
5
7
11
15
20
22
23
22
18
13
7
2
1
-3
-5
-9
-12
-17
-20
-23
-25
-28
-29
-29
-29
-29
-29
-29
-29
-29
-28
-27
-23
-15
0
25
55
86
110
123
118
97
61
20
-23
-62
-90
-110
-122
-123
-122
-114
-103
-90
-77
-64
-53
-43
-35
-30
-27
-24
-20
-17
-15
-12
-9
-8
-7
-4
-4
-3
0
1
2
3
5
6
8
12
16
20
25
31
36
42
47
55
60
65
68
72
73
75
76
77
77
77
77
80
80
81
82
82
82
82
81
78
75
71
66
60
53
46
38
32
25
18
12
7
3
0
-4
-5
-7
-9
-12
-13
-14
-15
-18
-19
-20
-22
-24
-25
-27
-28
-29
-30
-29
-28
-25
-22
-18
-14
-9
-5
-3
0
3
6
5
2
-3
-8
-14
-18
-20
-24
-27
-28
-30
-34
-37
-39
-40
-42
-43
-44
-44
-44
-44
-45
-44
-42
-38
-27
-8
16
43
70
90
96
87
63
26
-17
-62
-102
-129
-148
-154
-152
-143
-128
-109
-90
-73
-57
-44
-35
-29
-24
-19
-17
-13
-10
-8
-5
-3
0
1
3
5
5
7
8
10
12
15
20
22
26
30
35
41
50
56
62
68
73
77
80
82
83
83
83
82
82
83
83
83
83
83
82
81
77
73
70
66
62
58
55
50
42
33
23
13
5
-2
-4
-7
-7
-8
-8
-9
-12
-14
-17
-19
-23
-25
-29
-33
-35
-38
-40
-42
-43
-44
-44
-45
-47
-45
-47
-47
-47
-48
-48
-45
-38
-22
1
26
50
66
70
60
37
5
-33
-69
-102
-124
-139
-147
-147
-139
-127
-112
-97
-83
-70
-62
-55
-49
-47
-44
-40
-38
-34
-32
-28
-25
-22
-19
-17
-14
-12
-8
-5
0
3
8
13
20
27
35
42
50
56
61
66
68
71
73
75
75
76
76
76
76
77
76
76
76
75
72
70
66
61
55
47
41
33
25
20
12
6
2
0
-4
-8
-10
-14
-15
-17
-18
-18
-19
-20
-19
-20
-20
-22
-22
-23
-24
-24
-25
-27
-28
-28
-28
-28
-27
-27
-27
-25
-24
-23
-22
-22
-20
-19
-19
-18
-17
-15
-14
-13
-13
-12
-13
-12
-10
-9
-8
-7
-5
-4
-3
-3
-2
-3
-2
-2
1
2
3
6
8
10
12
15
18
22
23
23
21
17
11
5
1
-3
-7
-8
-10
-14
-18
-23
-27
-30
-33
-34
-35
-37
-37
-37
-37
-38
-37
-37
-35
-29
-15
6
37
75
110
136
146
136
112
75
33
-7
-43
-69
-90
-104
-110
-112
-108
-100
-90
-79
-70
-60
-53
-47
-43
-39
-34
-30
-28
-24
-22
-20
-18
-15
-14
-13
-12
-10
-10
-9
-8
-7
-4
-3
0
2
6
11
17
23
31
37
42
47
52
55
58
61
63
63
66
67
68
68
71
71
72
72
73
75
73
72
71
67
63
58
53
47
41
35
27
21
15
10
3
0
-4
-5
-8
-9
-12
-13
-14
-15
-17
-18
-19
-20
-22
-23
-25
-27
-28
-29
-28
-25
-23
-20
-17
-13
-9
-7
-3
2
6
8
10
8
6
1
-5
-9
-14
-15
-18
-20
-22
-24
-25
-29
-32
-33
-35
-35
-38
-38
-38
-38
-39
-38
-35
-30
-17
2
31
63
95
115
121
111
82
42
-3
-45
-84
-113
-132
-140
-139
-132
-119
-103
-87
-70
-57
-45
-37
-32
-28
-24
-20
-17
-14
-10
-8
-7
-5
-3
-2
-2
-2
0
1
2
3
6
8
12
16
21
27
33
40
46
52
58
63
67
71
72
75
75
75
76
76
76
76
75
75
75
75
73
71
68
63
61
57
55
51
46
41
32
23
13
6
1
-2
-3
-2
-2
-3
-4
-5
-7
-8
-10
-14
-17
-19
-22
-24
-25
-27
-28
-28
-29
-29
-30
-32
-33
-34
-35
-37
-37
-37
-32
-20
-3
20
43
62
75
71
51
18
-20
-64
-104
-134
-155
-165
-167
-160
-148
-129
-110
-90
-74
-60
-50
-44
-38
-34
-30
-28
-24
-22
-18
-14
-10
-7
-3
1
5
8
12
17
23
30
37
43
51
58
66
73
80
86
90
92
93
96
95
95
93
91
88
87
86
83
81
78
75
71
67
62
57
51
46
40
32
26
20
12
6
1
-2
-5
-8
-9
-10
-12
-13
-13
-14
-14
-14
-14
-15
-15
-15
-15
-15
-15
-17
-18
-18
-19
-20
-20
-22
-24
-25
-27
-28
-29
-28
-29
-29
-30
-30
-29
-29
-29
-27
-27
-25
-25
-24
-24
-23
-23
-23
-23
-23
-23
-23
-22
-22
-20
-20
-19
-19
-17
-15
-13
-10
-7
-4
0
3
6
10
12
16
16
13
10
6
2
-3
-5
-7
-9
-12
-15
-18
-22
-24
-27
-29
-32
-33
-35
-37
-37
-37
-38
-38
-37
-35
-32
-23
-8
16
46
76
100
110
105
86
53
17
-17
-49
-74
-92
-103
-109
-109
-105
-97
-87
-75
-64
-55
-49
-43
-37
-34
-30
-28
-24
-23
-20
-18
-17
-15
-14
-13
-13
-12
-10
-9
-9
-7
-5
-3
0
2
7
12
17
23
31
37
45
51
56
60
63
67
68
71
72
75
76
77
78
80
81
82
82
82
81
78
76
73
68
65
58
51
43
35
27
20
13
8
3
0
-3
-7
-9
-10
-13
-13
-14
-15
-17
-18
-18
-19
-22
-23
-24
-27
-27
-27
-25
-25
-23
-19
-14
-10
-7
-3
0
3
6
7
6
3
-2
-5
-10
-13
-14
-17
-18
-20
-23
-27
-29
-33
-35
-38
-39
-39
-39
-39
-39
-39
-39
-38
-34
-25
-7
18
50
85
112
127
126
108
77
36
-5
-43
-74
-97
-112
-119
-119
-113
-104
-92
-79
-68
-59
-52
-45
-40
-39
-35
-32
-29
-28
-24
-22
-19
-18
-15
-13
-10
-8
-8
-7
-5
-4
-2
1
3
7
11
17
22
28
33
40
45
50
55
58
61
63
65
66
67
68
70
71
73
75
76
76
75
71
68
65
60
53
47
40
33
27
20
13
7
2
-2
-4
-8
-9
-10
-13
-13
-13
-14
-14
-15
-15
-15
-17
-17
-18
-19
-19
-19
-20
-20
-23
-23
-23
-23
-22
-19
-17
-14
-9
-7
-4
0
3
6
10
12
13
12
7
3
-3
-8
-13
-17
-19
-19
-22
-24
-27
-30
-33
-37
-39
-39
-40
-40
-42
-43
-43
-42
-40
-35
-23
-7
21
52
83
107
117
111
87
48
5
-39
-78
-109
-129
-139
-140
-135
-124
-108
-90
-74
-58
-47
-38
-30
-25
-22
-19
-15
-12
-8
-5
-3
0
2
5
6
8
10
10
11
12
13
17
20
22
27
31
37
43
51
56
62
66
70
72
75
77
78
77
78
78
77
77
77
77
77
75
73
71
68
65
61
57
52
48
43
38
31
22
13
5
-2
-4
-7
-7
-7
-5
-7
-7
-8
-8
-10
-13
-17
-19
-23
-25
-27
-29
-30
-30
-30
-30
-32
-32
-33
-33
-34
-33
-34
-35
-33
-27
-13
5
28
51
67
72
63
38
5
-37
-78
-115
-142
-159
-165
-164
-155
-140
-123
-104
-85
-69
-58
-48
-42
-37
-33
-29
-25
-22
-18
-15
-12
-8
-5
-2
2
6
11
15
20
25
31
37
43
51
60
67
73
80
85
90
93
95
95
95
95
93
92
91
90
86
83
81
78
75
72
68
63
60
52
46
38
30
23
16
10
6
2
-3
-4
-8
-10
-10
-12
-13
-14
-13
-14
-13
-14
-14
-14
-15
-17
-17
-18
-18
-19
-20
-23
-23
-25
-27
-28
-29
-29
-30
-32
-33
-33
-33
-32
-32
-30
-30
-29
-29
-28
-27
-27
-27
-25
-25
-24
-23
-23
-22
-22
-20
-20
-19
-20
-19
-18
-18
-15
-13
-10
-7
-4
0
2
6
10
13
17
18
16
12
7
3
0
-3
-7
-9
-12
-15
-19
-22
-25
-28
-29
-32
-33
-35
-37
-37
-38
-38
-38
-38
-38
-35
-28
-14
8
37
68
95
108
107
90
61
25
-12
-43
-69
-88
-100
-108
-109
-105
-98
-88
-77
-65
-55
-49
-43
-38
-35
-32
-29
-25
-24
-20
-19
-18
-17
-15
-14
-14
-13
-10
-9
-8
-5
-4
-2
2
5
8
13
18
25
31
37
45
51
56
60
63
66
68
71
72
73
75
77
78
80
80
82
82
82
82
81
78
76
71
66
60
52
45
37
30
22
16
10
6
1
-2
-4
-7
-9
-10
-12
-12
-13
-14
-18
-19
-22
-23
-24
-27
-28
-28
-28
-29
-27
-23
-19
-15
-12
-8
-5
-2
1
3
5
5
2
0
-5
-10
-14
-17
-19
-20
-23
-25
-28
-30
-34
-35
-38
-39
-39
-39
-39
-39
-39
-39
-39
-35
-28
-10
12
45
78
108
126
127
112
81
42
1
-37
-70
-95
-113
-122
-123
-117
-108
-97
-85
-73
-63
-54
-48
-43
-39
-35
-33
-29
-25
-23
-20
-19
-17
-14
-12
-12
-9
-8
-7
-5
-3
-3
0
2
6
10
13
18
25
31
36
42
47
51
53
56
58
61
62
63
65
67
68
68
70
70
68
67
65
61
57
55
52
48
45
41
35
26
17
10
2
-2
-3
-3
-2
-2
-3
-3
-5
-7
-9
-13
-17
-20
-23
-25
-28
-29
-29
-29
-30
-32
-32
-32
-33
-33
-33
-33
-33
-33
-29
-20
-5
20
48
78
101
110
102
78
42
-2
-43
-82
-110
-130
-140
-143
-138
-128
-113
-98
-82
-68
-58
-48
-42
-39
-35
-33
-29
-25
-23
-20
-17
-14
-12
-9
-5
0
3
7
11
16
22
28
35
43
51
58
66
72
80
83
87
90
91
91
91
91
91
90
87
86
85
83
81
77
73
68
65
58
52
45
37
31
22
15
10
3
-2
-4
-7
-9
-12
-14
-14
-15
-17
-17
-18
-18
-19
-18
-19
-19
-20
-20
-20
-23
-23
-24
-25
-27
-28
-29
-29
-30
-30
-30
-32
-32
-30
-30
-29
-28
-27
-27
-25
-24
-24
-23
-23
-24
-24
-24
-24
-23
-22
-20
-20
-19
-19
-18
-17
-17
-15
-14
-13
-10
-8
-5
-3
0
3
8
12
17
21
23
22
18
13
7
2
0
-4
-7
-9
-10
-13
-17
-19
-22
-24
-25
-27
