1.0073163e+00 8.4684752e+01 -3.7934198e+01 3.0599924e+02 1.1064555e+02 -3.6180665e+01 4.0873670e+01 -3.7513199e+01 1.6295365e+01 2.4509260e+01 7.0049411e+01 8.6443189e+00 4.9950153e+00 -4.0271175e+01 -6.2627734e-01 9.2336326e+00 6.6945718e+01 -4.0712963e+01 1.8341659e+02 1.0274927e+02 -1.2537586e+02 7.0075286e+01 -2.8484266e+01 3.9460727e+01 -5.2323878e+01 3.8294181e+00 -1.4742809e+00 5.8347863e+01 -2.2372164e+01 1.6568124e+01 -4.8970694e+01 -1.2504335e+01 -4.6362318e+01 8.0243086e+01 -5.4671671e+01 1.9754288e+02 9.0301822e+01 -1.4198896e+02 1.8314738e+01 -1.3567582e+01 2.4295923e+00 -3.7074419e+01 -1.9039448e+01 -1.1534751e+01 1.6642989e+01 1.6751906e+01 -9.7156119e+00 -1.3630509e+01 -5.1647640e+01 -3.2865669e+01 -4.4148534e+00 2.7675327e+02 -3.7230151e+01 -4.5439471e+01 -5.7717105e+01 -3.4960106e+01 1.7731728e+01 4.5393012e+00 1.5130842e+01 -9.6954344e+00 -5.5927771e+01 -2.4011656e+01 1.1266125e+01 6.0396615e+00 -1.2951549e+01 -2.8115647e+01 1.9501947e+02 -5.3750385e+01 -5.9646857e-01 -3.9330354e+00 -2.4742433e+01 -3.3697123e+01 -4.5294269e+01 5.7000304e+01 1.1019148e+01 2.0832621e+00 -4.2932782e+01 -3.2438852e+01 -7.1988245e+01 4.7612268e+01 -4.9819776e+01 2.0022703e+02 8.8107653e+01 -1.3699676e+02 2.6132409e+00 -1.4585503e+01 2.0304162e+01 -3.0748249e+01 4.5815576e+00 -3.1731148e+01 7.2103700e+00 8.9355106e+00 6.8295812e+00 -2.0947103e+01 -2.8316421e+01 -6.1702119e+01 3.1981704e+01 2.5213891e+02 -8.4401662e+01 -6.8472584e+00 -7.6372166e+01 -1.8053939e+01 8.8400789e+00 3.6332088e+01 1.2761291e+01 2.2640332e+00 -7.1323337e+01 -2.3871488e+01 -2.2497455e+01 4.4461817e+01 -7.0998387e+01 1.4757902e+02 1.0591980e+02 -1.2140314e+02 4.6916345e+01 -2.7587055e+01 9.0318442e+00 -5.4554570e+01 -1.9194222e+01 6.7883805e+00 1.0916676e+01 -6.5254918e+00 -2.1766898e+01 -2.9263959e+01 -7.6101010e+01 1.0339542e+01 -3.7308410e+01 1.9637783e+02 1.6898509e+02 -1.5865258e+02 -4.1373999e+00 -5.3119623e+01 4.4014858e+01 -5.6218175e+01 2.3691225e+01 -5.2366648e+01 -7.6269850e+00 -2.1268826e+01 4.1840970e+01 -4.5351954e+01 2.9429515e+01 -1.1581020e+02 1.4853315e+02 1.7091496e+02 -8.4942074e+01 1.3473257e+01 -6.4649110e+01 -3.4102105e+01 -4.0319606e+01 4.8777259e+01 1.2380655e+01 -6.8245198e+00 -4.3766384e+01 -4.4442300e+01 -2.9211513e+01 4.2455260e+01 -4.1366965e+01 2.6273729e+02 2.0692030e-01 -1.0675621e+02 1.9330198e+01 -1.5010161e+01 7.2568383e+00 -4.0784485e+01 5.3019715e+00 -3.6179499e+01 3.1835742e+01 -1.6600527e+01 6.0045057e+00 -6.1139399e+01 -2.0154887e+01 -9.4739381e+01 1.9039557e+02 1.7029401e+02 -1.0953255e+02 -9.8449055e-01 -9.2357824e+01 1.4465195e+01 -1.1241430e+01 3.6967746e+01 -4.4664856e+00 -1.8206161e+01 -8.3660835e+01 -5.8562138e+00 6.0284121e-01 2.4454658e+01 -4.4094467e+01 -4.3656062e-01 -1.1079914e+02 2.2669167e+02 1.5661682e+02 -1.0286915e+02 1.5649769e+01 -9.1880582e+01 -1.7816851e+01 -2.7566022e+01 4.2831093e+01 -1.2853300e+00 3.9852588e-01 -6.6930655e+01 -2.7048904e+01 -8.1884003e+00 4.1633400e+01 -4.1533059e+01 2.7157963e+02 -5.6908246e+01 -6.3381349e+01 1.5552181e+01 -5.2521222e+00 -1.2094206e+01 -3.8140842e+01 -2.1087862e+01 -6.3440298e-01 9.8602159e+00 -3.3571746e+00 -1.3404279e+01 -3.2047961e+01 -5.6380762e+01 -5.5563246e+00 1.5078157e+01 1.8116963e+01 2.7558357e+02 -8.5693048e+01 -5.8973228e+01 -3.2272890e+00 -1.0361955e+00 -1.6565653e+01 -3.1861520e+01 -1.8099978e+01 -1.3687394e+01 2.2928438e+01 -3.6963297e+00 -1.8181086e+00 -3.5736850e+01 -2.8481289e+01 -4.7066804e+01 2.7710576e+02 7.8348210e+00 -5.7055998e+01 -2.5095347e+01 -6.7396132e+01 1.1889789e+01 -1.1027377e+00 2.8529634e+01 -2.5520790e+01 -4.9467423e+01 -7.3790248e+01 6.8414982e+00 -4.7978469e+00 1.7496588e+01 -5.8980547e+01 2.1581113e+02 -3.4772079e+01 -2.9416646e+01 2.1757309e+01 -2.0500978e+01 -1.6553882e+01 -5.8607289e+01 1.9657990e+01 2.2547799e+01 4.2045350e+00 -2.2008069e+01 -2.3787795e+01 -6.6490153e+01 -1.6684070e+01 -1.7556684e+00 4.8806914e+01 2.8065382e+02 -1.1057934e+02 -4.9648309e+01 -3.9373413e+01 2.5562062e+01 -2.2248016e+01 -4.0631402e+00 -2.6451476e+01 -3.1169982e+01 -2.5021526e+01 3.7261997e+01 -2.3054327e+01 2.1481571e+01 -8.3155569e+01 8.7182952e+01 1.9802387e+02 -8.3414167e+01 2.4457143e+01 -5.4560021e+01 -2.0870867e+01 -6.3605115e+01 4.7971769e+01 2.4908886e+01 2.1798773e+00 -3.4264195e+01 -3.4236933e+01 -4.2925537e+01 2.7876284e+01 -2.7589426e+00 6.0679962e+00 -3.9113298e+01 2.1303999e+02 -5.3070640e+01 1.7125805e+00 -5.5390481e+00 -2.1672599e+01 -3.6813780e+01 -5.6970695e+01 3.4384109e+01 3.3428593e+01 -4.8688243e+00 -3.1609945e+01 -3.8370225e+01 -7.0687564e+01 2.4468366e+01 -3.0653895e+01 1.5069821e+02 1.6924997e+02 -1.5675474e+02 8.3116184e+00 -3.5427244e+01 4.3055819e+01 -5.1473096e+01 1.8572774e+01 -6.1665991e+01 -4.6095727e+00 -2.1233045e+01 2.9546804e+01 -4.9223506e+01 1.7951325e+01 -1.2296896e+02 2.1987250e+02 7.8884258e+01 -6.0263565e+01 4.4040766e+00 -4.8646463e+01 -4.3997250e+01 -1.7936498e+01 4.9372027e+01 1.4964661e+01 -2.5307579e+01 -3.5403110e+01 -6.0392052e+01 -1.6337965e+01 6.1359808e+00 5.6751011e+00 -2.1249435e+01 2.5308478e+02 -9.5567503e+01 -1.8145992e+01 4.4912867e+00 2.8082898e+00 -2.3371968e+01 -3.8599362e+01 -1.8479973e+01 2.4856700e+01 -4.3241098e-01 1.1878799e+00 -2.5895846e+01 -2.6416721e+01 -6.5998032e+01 2.9017212e+01 -2.0356991e+01 8.7134567e+01 2.2725165e+02 -1.3540832e+02 -2.0173817e+01 -9.1255875e+00 1.9274922e+01 -2.2198952e+01 -1.3323121e+01 -1.0942822e+01 -1.1294690e+01 2.0315788e+01 -2.7552885e-01 -2.3207363e-01 -3.4325562e+01 -4.3178830e+01 -2.7957499e+01 3.8675854e+01 -2.0238396e+01 2.7993159e+01 -8.4022740e+01 1.4669794e+02 1.2819067e+02 -6.8128911e+01 2.4087752e+01 -5.0471155e+01 -3.0255994e+01 -7.4842320e+01 2.0959033e+01 3.7269475e+01 7.0447288e+00 -2.2005583e+01 -5.0290257e+01 -3.0724481e+01 8.1111413e+00 3.6714542e+01 -4.5013441e+01 1.9794157e+02 2.7497010e+01 -9.6840280e+01 5.4416742e+01 -3.4843923e+01 1.9876679e+01 -6.5250405e+01 -3.3693084e+00 -6.8243243e+00 3.8760999e+01 -2.9336523e+01 2.4017669e+00 -6.5262968e+01 -2.5915656e+01 -3.5786209e+01 5.3505854e+01 -5.6177841e+01 1.3300189e+02 1.1593426e+02 -1.2824139e+02 4.0024632e+01 -1.7291706e+01 1.2636692e+01 -4.5360045e+01 -2.7119822e+01 -6.0541780e+00 3.3260119e+01 -9.7229167e+00 -7.4913904e+00 -4.0141308e+01 -3.6220835e+01 -5.9513631e+01 4.4629625e+01 -4.8785458e+01 1.8503096e+02 1.2865008e+02 -1.5726383e+02 2.6524143e+01 -3.1458560e+01 3.1879241e+01 -4.8664865e+01 8.2179591e+00 -4.7821803e+01 1.7519899e+01 -1.3482829e+01 2.4991703e+01 -4.8134647e+01 1.0629268e+01 -1.1866522e+02 2.1248005e+02 1.1546059e+02 -8.2121048e+01 9.1155750e+00 -7.0442432e+01 -1.7881521e+01 -6.3939049e+00 4.8941397e+01 5.6774607e+00 -9.5524423e+00 -5.6572592e+01 -3.3931410e+01 6.5515688e+00 2.5975013e+01 -1.9179385e+01 -4.6709327e+00 -7.6038606e+01 5.6904202e+01 2.5614450e+02 -8.9230354e+01 2.1799670e+01 -6.9918442e+01 -2.4404151e+01 -3.4719871e+01 4.0827567e+01 7.6907657e+00 2.3609970e+01 -5.7944036e+01 -3.6754822e+01 -4.0815598e+01 6.6224051e+01 -7.2964887e+01 1.9739577e+02 3.6908195e+01 -1.2860450e+02 2.5041668e+01 -1.3929755e+01 -8.1359580e-01 -3.5234330e+01 -2.1574858e+01 -1.1976571e+01 3.3459334e+00 1.1801108e+01 -2.2999791e+01 -1.3182791e+01 -7.3492600e+01 -3.6921795e+00 -3.4348932e+01 2.0014247e+02 1.2631004e+02 -1.3011832e+02 -2.0177029e+01 -5.5359448e+01 4.3418623e+01 -2.1912163e+01 2.9675264e+01 -3.2298754e+01 -3.7538370e+01 -3.9225608e+01 3.0471108e+01 -2.1726564e+01 1.7060451e+01 -7.5731468e+01 3.5636033e+01 2.1237119e+02 -7.4987976e+01 2.1593657e+01 -3.7949704e+01 -2.5632377e+01 -6.1251510e+01 2.9268067e+01 3.1308888e+01 -1.3225841e+00 -3.1305614e+01 -2.9976845e+01 -6.5964684e+01 2.4330261e+01 -7.7514222e+00 5.9452443e+01 2.4835998e+02 -1.2539730e+02 -2.5394516e+01 -4.5366176e+00 1.0217140e+01 -2.2476621e+01 -1.4667593e+01 -1.8696258e+01 -1.4030859e+01 2.0742769e+01 -1.0871212e+01 -7.0284141e+00 -4.8464601e+01 -3.1542401e+01 -5.4112612e+01 2.6004069e+02 3.3575135e+01 -7.0143737e+01 -1.7799071e+01 -6.4798493e+01 2.5256572e+01 3.0354306e+00 4.0112226e+01 -1.0041275e+00 -3.6809104e+01 -6.2055232e+01 8.6967919e+00 1.1977302e+01 -9.6204082e+00 -1.2412647e+01 -6.8389824e+01 4.2533143e+01 2.5905736e+02 -9.7946931e+01 2.3535442e+01 -7.4278486e+01 -2.6421634e+01 -4.6615263e+01 4.6713639e+01 6.6989356e+00 1.8958461e+01 -6.2223139e+01 -3.6873298e+01 -6.5289291e+01 6.2224283e+01 -6.0213638e+01 2.4381674e+02 3.8315959e+01 -1.2421471e+02 1.0688486e+00 6.5816370e-01 2.0558851e+00 -2.5253264e+01 -4.0100592e+00 -4.2364891e+01 7.9327732e+00 6.6689842e+00 1.1063588e+01 -3.0824480e+01 -5.2683022e+01 -4.7835510e+01 -1.7855988e+01 2.1553807e+02 -5.3320108e+01 -4.2841199e+01 -4.5384106e+01 -3.5105753e+01 2.8758449e+01 2.0863346e+01 3.4336611e+01 1.3512276e+01 -4.5329152e+01 -3.7114051e+01 1.6958259e+01 2.3113948e+01 -1.1197905e+01 -1.3289585e+01 -5.9305875e+01 2.3087328e+02 -2.4550476e+01 -1.6356973e+01 -3.1947348e+01 -3.6907999e+01 -5.4975473e+01 -1.6676999e+00 4.5585762e+01 1.8673786e+01 -2.6704824e+01 -3.5003417e+01 -7.8104172e+01 1.6079504e+01 -2.0115897e+01 9.8275534e+01 2.2110846e+02 -1.5425544e+02 -1.6131395e+01 -2.9390852e+01 3.1020038e+01 -3.2886098e+01 1.0637257e+01 -4.0365329e+01 -2.0416931e+01 -3.4845470e+00 2.1404397e+01 -3.5563414e+01 -2.1017030e-01 -8.6179851e+01 4.1941392e+01 2.5182325e+02 -8.6467710e+01 5.1548516e+00 -5.4079517e+01 -4.4643656e+01 -3.9492814e+01 3.5913222e+01 2.1565023e+01 -6.0688993e+00 -4.4751104e+01 -4.8524260e+01 -4.5330488e+01 3.7336529e+01 -2.5310909e+01 6.9298634e+01 2.3595824e+02 -1.5420182e+02 1.2581554e+01 -1.1579371e+01 2.5506188e+01 -3.9344639e+01 -7.3727154e+00 -3.7137026e+01 1.2301965e+01 -9.6488642e+00 1.2820722e+01 -2.5994597e+01 -2.6129257e+00 -7.6246818e+01 4.6159654e+01 -3.8424617e+01 2.0085493e+02 1.2548067e+02 -1.3300206e+02 -1.1550680e+01 -2.5603914e+01 1.8367513e+01 -4.1137566e+01 -6.8877527e+00 -3.3735818e+01 -2.0138530e+01 1.9922609e+01 -9.1660871e+00 7.5210737e+00 -5.2576057e+01 4.8945241e+01 2.0533487e+02 -8.9035334e+01 3.9049814e+01 -5.3703667e+01 -1.0533884e+00 -8.3663485e+01 4.1005877e+01 2.2094116e+01 1.6872151e+01 -3.8406923e+01 -2.3590935e+01 -7.4273481e+01 3.2451816e+01 -1.5294453e+01 2.9989333e+01 -6.8434541e+01 6.8365211e+01 1.5529724e+02 -7.4842550e+01 2.8726830e+01 -3.3030155e+01 -1.8512666e+01 -7.2878039e+01 -1.6959472e+01 4.6572326e+01 1.5805005e+01 -1.6924585e+01 -3.6878891e+01 -5.4842473e+01 -3.8205387e+01 2.0784836e+01 4.1504776e+00 2.8002708e+02 -7.6473160e+01 -7.6648883e+01 -2.9835839e+01 2.0975349e+01 -1.0735404e+01 -1.2453172e+01 -1.2952211e+01 -4.3574045e+01 -3.3751485e+01 3.1317816e+01 -5.7422410e+00 6.2470393e+00 -5.2227007e+01 -2.3608832e+01 -5.6032569e+01 2.7899147e+02 3.4386990e+01 -7.1828387e+01 -2.0924417e+01 -6.8639773e+01 2.1467851e+01 3.4162761e+00 3.2205947e+01 9.7013004e+00 -5.5702353e+01 -4.9166424e+01 2.7968248e+00 2.9663035e+01 -1.5704963e+01 7.1408535e+00 -8.0134498e+01 2.0621448e+02 4.8335330e+01 -4.2135575e+01 1.4412585e+00 -2.6324319e+01 -6.6727850e+01 -3.5562650e+01 4.8527273e+01 -4.1795021e+00 4.2438246e+00 -7.3803004e+01 -2.0860294e+01 -4.1593981e+01 2.2655338e+01 4.1248540e+01 2.3687878e+02 -2.4677917e+01 -9.1510789e+01 -2.2928221e+01 3.2652777e+01 -3.5348334e+01 1.6237136e+01 -4.3278391e+01 -3.0744855e+01 7.5092797e+00 -2.0052130e+01 2.1709543e+01 -4.2008339e+01 -5.5382006e+01 -4.2250825e+01 2.6023867e+02 1.4415226e+00 -4.8128471e+01 -1.2606376e+01 -7.0206272e+01 -1.9919038e+01 5.6955891e+00 5.1778349e+01 -7.8010096e+00 -1.6025422e+01 -8.1874007e+01 -1.6468276e+00 -2.6223009e+01 6.4001290e+01 -7.3392758e+01 1.3556920e+02 1.0053086e+02 -1.1522215e+02 4.6770479e+01 -2.2036945e+01 -3.2972658e+00 -4.7112065e+01 -3.3555607e+01 2.5184734e+01 1.7355637e+01 9.3909651e-01 -3.2257909e+01 -2.8352869e+01 -8.7713577e+01 2.6846062e+01 -4.5324448e+01 2.0057330e+02 1.0186550e+02 -1.3352638e+02 -1.7422887e+01 -2.3088145e+01 5.5822494e+01 -4.6161145e+01 2.4147770e+01 -3.9721790e+01 -3.7221042e+00 2.2697311e+01 9.7137719e+00 -7.0616425e+00 -1.7430974e+01 -5.2807552e+01 -1.3362138e+01 2.0969204e+01 -3.2297768e+00 5.0424423e+01 2.1372879e+02 -1.4609916e+02 1.1596624e+01 -2.0699228e+01 -6.0891356e-01 -3.9933417e+01 -3.9049123e+01 -3.0956308e+01 4.3177132e+01 1.4355553e+01 4.3638190e+00 -2.7723783e+01 -1.2550587e+01 -5.0658197e+01 2.9342358e+02 -2.6247133e+01 -2.3509626e+01 -2.3054096e+01 -4.9193953e+01 -4.8292427e+01 2.9110515e+00 2.7779953e+01 -2.2253661e+01 -2.3272359e+01 -5.3835646e+01 -4.1177235e+01 -6.0487011e+00 3.4287852e+01 -4.8789229e+01 2.2585333e+02 5.9880226e+00 -1.1152118e+02 4.8770818e+01 -2.7499500e+01 2.5355955e+01 -5.5688950e+01 4.7026069e+00 -2.8932656e+01 4.4391007e+01 -2.0189540e+01 1.6132764e+01 -4.3468604e+01 -1.9388951e+01 -6.6779463e+01 6.6595446e+01 -5.7610215e+01 2.4933813e+02 1.6879824e+01 -1.0810988e+02 -2.6608257e+00 9.9232476e+00 7.2957841e+00 -2.0258185e+01 -1.0812923e+01 -1.2766162e+01 -1.4828087e+00 2.8497830e+01 -1.0301758e+01 3.0164060e+00 -4.8134043e+01 -3.0845065e+01 -8.6530970e+00 4.4986159e+01 -3.2121317e+01 2.5590304e+01 -1.0107860e+02 1.3519912e+02 1.5949941e+02 -7.9354832e+01 1.1006603e+01 -5.9842089e+01 -3.9666394e+01 -4.8748126e+01 3.1932726e+01 4.5248572e+01 1.6229890e+01 -2.2107832e+01 -5.1230246e+01 -1.1247342e+01 1.7348602e+01 1.5769973e+01 -2.4847083e+01 1.2181443e+01 1.7770225e+02 -9.2107289e+01 2.9243317e+01 -2.1245283e+01 -8.7597125e+00 -5.7341753e+01 -4.6722399e+01 3.0887782e+01 1.6346417e+01 -1.3553608e+01 -2.9731247e+01 -3.9977532e+01 -7.0918673e+01 2.0176743e+01 -2.1534822e+01 9.4503999e+01 2.1979818e+02 -1.5402516e+02 -1.3293689e+01 -2.3033898e+01 3.3877153e+01 -2.6432986e+01 1.3907266e+00 -3.0708711e+01 -2.2618797e+01 1.1884303e+00 1.7735461e+01 -9.2642604e+00 -7.6217654e+00 -4.2512602e+01 -3.9751966e+01 2.7824272e+01 -4.8219395e+00 6.2544276e+01 2.2666007e+02 -1.5648499e+02 1.2015094e+01 -1.8055714e+01 2.8807110e+01 -4.1027478e+01 -9.0066684e+00 -4.4683156e+01 2.1990823e+01 -1.9111549e-01 2.0836187e+01 -4.0483238e+01 1.3543022e+00 -8.7910877e+01 7.2718847e+01 2.5430801e+02 -7.6894281e+01 -8.6189359e+00 -5.3624871e+01 -4.4988611e+01 6.6821084e+00 -2.5121885e+00 2.9744271e+01 -1.6985085e+01 -3.8089585e+01 -5.7747545e+01 3.0599059e+01 8.6941750e-01 1.5730470e+01 -6.9190599e+01 5.2431571e+01 1.5728527e+02 -7.9718655e+01 3.6549501e+01 -3.9888264e+01 -8.4245547e+00 -6.4349225e+01 7.1925105e+00 4.8248201e+01 1.4017672e+01 -2.4620563e+01 -3.7395957e+01 -6.9936356e+01 -3.1467499e+01 1.5158562e+01 4.2374635e+00 2.6865087e+02 -6.6733784e+01 -8.0558032e+01 -1.4403345e+01 1.3870387e+01 3.1179944e+00 -1.9011150e+01 6.2167414e-02 -4.4880657e+01 -1.1917286e+01 1.4863171e+01 2.2561049e+00 -1.2065940e+01 -3.6291248e+01 -5.2554250e+01 1.1332976e-01 2.1320343e+01 1.3269212e+00 -2.5134659e+00 -3.4925780e+01 2.2935458e+02 -3.7563059e+01 -2.4887873e+00 -1.2046300e+01 -2.1894853e+01 -5.1316207e+01 -5.6827662e+01 3.0613914e+01 4.8371737e+01 -8.2338254e+00 -1.0606064e+01 -4.9475462e+01 -1.3625053e+01 -1.1625775e+00 4.0741480e+01 -5.6254351e+01 1.4039187e+02 9.2025942e+01 -1.2451960e+02 6.0128266e+01 -3.7185602e+01 2.3061366e+01 -6.2016122e+01 -1.5169002e+01 2.7718608e+00 4.1866599e+01 -2.8978321e+01 1.7815878e+00 -5.8083307e+01 -2.7725132e+01 -3.0414707e+01 5.7697894e+01 -5.2298306e+01 2.3472384e+02 -1.1311225e+01 -9.2363827e+01 2.8918019e+01 -3.2810520e+00 7.2328885e+00 -3.1836873e+01 -1.6069754e+01 -5.5329935e+00 2.8224459e+01 -1.7079740e+00 -9.5882039e+00 -3.0140384e+01 -4.6922189e+01 -3.7625603e+01 2.9757268e+01 -1.3914885e+01 4.4225089e+01 2.1072007e+02 -1.4071106e+02 1.2333340e+01 -6.1159761e+00 1.7932919e+01 -2.6523624e+01 -3.0760379e+01 -2.5264460e+01 2.9589460e+01 4.0902563e+00 -9.7059695e-01 -3.1949058e+01 -3.0947061e+01 -7.0732388e+01 1.0872959e+01 -6.7034841e+00 4.6179631e+01 2.3483836e+02 -1.1977407e+02 -3.9937168e+01 -1.7066477e+00 1.5954470e+01 -7.0285593e+00 -1.9100190e+01 -1.5379257e+01 -2.9560346e+01 1.3672691e+01 8.4680101e+00 9.7670690e-01 -2.1610152e+01 -4.0538837e+01 -3.7885208e+01 2.4741841e+01 3.9904540e+00 7.3934596e+00 -3.2097951e+01 2.1166750e+02 -6.1383516e+01 8.1761697e+00 -1.9620431e+00 -7.8387804e+00 -3.3857915e+01 -6.2895111e+01 7.2863961e+00 5.6799025e+01 -1.0734392e+01 -7.7077628e+00 -4.7619385e+01 -3.3267927e+01 -2.7658070e+01 5.2627975e+01 -4.7989314e+01 1.2247370e+02 1.5324714e+02 -1.4431358e+02 4.3398727e+01 -2.2138561e+01 1.8443865e+01 -4.5498411e+01 -2.6874979e+01 -1.7978342e+01 3.8097602e+01 -1.0745360e+01 3.8660393e+00 -3.8744912e+01 -3.4892499e+01 -5.3717046e+01 4.9084700e+01 -4.0351452e+01 2.4429522e+02 2.2052886e+00 -1.0574440e+02 8.9231220e+00 3.3767126e+00 1.7267710e+01 -2.4229802e+01 -1.4001593e+00 -2.6272424e+01 6.4514375e+00 9.3480584e+00 -1.2995236e+00 -1.4902622e+01 -4.2632347e+01 -5.0117123e+01 1.4785075e+00 2.3924772e+01 -1.2663188e+01 9.3724950e+00 -8.3673168e+01 1.8680311e+02 8.8405741e+01 -7.0576581e+01 3.0952926e+01 -7.0027090e+01 -2.2391861e+01 -8.3381120e+01 4.3713243e+01 6.3344465e+00 2.5292625e+01 -5.5110399e+01 -1.8005243e+01 -8.0245823e+01 6.5119260e+01 -6.6509108e+01 2.1725660e+02 1.1440173e+02 -1.3965398e+02 -1.3295655e+01 -4.7176999e+00 1.6427215e+01 -2.9217370e+01 -1.4808835e+01 -3.6416605e+01 -4.5747236e+01 1.9420162e+01 -5.8099077e+00 -2.5802756e+00 -4.8005919e+01 -3.1145298e+01 -6.8188564e+01 2.9681323e+02 7.7634660e+00 -4.5368552e+01 -1.9826615e+01 -6.0318400e+01 -9.0034805e+00 1.9097843e+01 2.0724060e+01 9.8197484e+00 -3.9183492e+01 -3.7346440e+01 -2.9467800e+01 6.3781659e+01 -2.8362396e+01 9.9271366e+01 2.0183680e+02 -1.4315035e+02 2.2046512e+01 -6.8666890e+00 8.4383366e-01 -3.6027599e+01 -3.3639542e+01 -1.9824841e+01 -8.4787121e-01 1.0931323e+01 -2.7795120e+01 -1.2712317e+01 -7.3981160e+01 -1.7975303e+01 -5.2924455e+01 2.2991518e+02 1.0374219e+02 -1.1740540e+02 -2.1449302e+01 -7.2311232e+01 3.6832109e+01 -1.8080327e+01 2.2520044e+01 -1.1324525e+01 -4.3097234e+01 -5.5116706e+01 1.3933874e+01 2.1447769e+01 -1.1229310e+01 -2.7519862e+00 -7.4975487e+01 7.8738792e+01 2.5026354e+02 -1.0537252e+02 3.7717894e+01 -7.5585582e+01 -1.5727048e+01 -6.2005221e+01 4.8775597e+01 -3.1669683e+00 1.8077709e+01 -5.9522884e+01 -2.0313760e+01 -5.8376290e+01 7.4582724e+01 -6.5957339e+01 2.0496311e+02 9.8120708e+01 -1.4185753e+02 2.1612449e+01 -1.6789609e+01 6.7883150e+00 -4.4036616e+01 -1.7436929e+01 -3.8313322e+01 1.6137019e+01 2.5216856e+00 5.9533260e+00 -3.4718900e+01 -2.6443614e+01 -7.4349036e+01 9.1279720e+01 2.4712121e+02 -1.0293732e+02 7.4061728e+00 -7.6455409e+01 1.6944870e+00 -9.6675559e+00 2.9263461e+01 -8.3466788e-01 -8.1833130e+00 -8.1968673e+01 -3.5862196e+01 -2.7376404e+00 2.2997085e+01 -3.2535400e+01 -1.6864156e+00 -9.4438326e+01 2.4605617e+02 2.3172575e+01 -4.0180579e+01 -2.7713130e+00 -4.9405868e+01 -4.4321057e+01 -2.6630257e+01 5.1635639e+01 6.1729830e+00 -1.0946777e+01 -4.4630538e+01 -4.8498331e+01 -3.9469135e+01 4.1228803e+01 -4.0284064e+01 2.4882515e+02 1.8268085e+01 -1.2441154e+02 1.8803940e+01 -1.3587965e+01 2.0698856e+01 -4.4316177e+01 9.9023769e+00 -5.9117255e+01 1.4449453e+01 -3.6585471e+00 2.5380543e+01 -4.5230769e+01 2.6204484e+00 -1.0537802e+02 1.4491356e+02 2.0214876e+02 -1.0200295e+02 7.0351912e+00 -7.4760081e+01 -2.2924368e+01 -1.6196740e-01 3.2480646e+01 1.4517105e+01 -2.1459040e+01 -5.3255277e+01 -4.7648913e+01 2.8614608e+01 1.1692792e+01 1.8332060e+01 -5.5345853e+01 1.7900324e+02 1.5048944e+01 -4.0000383e+01 3.0033436e+01 -3.9440746e+01 -8.6356407e+00 -7.5526953e+01 3.6007553e+01 1.7723343e+01 6.7653400e+00 -4.4915124e+01 -2.2851724e+01 -7.6775293e+01 2.8073777e+01 -2.3176489e+01 1.1528040e+02 1.9582812e+02 -1.4377017e+02 -1.8029995e+01 -2.1537522e+01 3.1753143e+01 -2.6764944e+01 2.3677982e+00 -3.2514096e+01 -2.0371203e+01 2.4634247e+00 9.6899487e+00 -1.0595225e+01 -1.2726731e+01 -5.6920184e+01 -3.4097259e+01 1.8451890e+01 1.2629847e+00 2.5349494e+02 -4.7495622e+01 -8.8584256e+01 -7.6115467e+00 -1.5082584e+00 1.3421893e+01 -3.9021539e+01 4.2331487e+00 -5.5866244e+01 -4.5903326e+00 -5.6137948e+00 2.1413102e+01 -3.7394940e+01 5.4907672e+00 -1.1566331e+02 2.0072091e+02 1.0109110e+02 -7.6043975e+01 2.2401447e+01 -6.5815444e+01 -1.9874106e+01 -1.2050569e+01 5.3166481e+01 -2.9917032e+00 -9.7427667e+00 -5.2078403e+01 -4.3441625e+01 -8.7453030e+00 3.2819492e+01 -2.4088192e+01 2.5804927e+02 -7.0301076e+01 -7.0870720e+01 1.4572646e+01 -4.2003211e+00 -5.0758871e+00 -2.7814870e+01 -7.4661223e+00 -2.3076678e+01 2.7715480e+01 -1.2176686e+01 2.2079827e+00 -5.1167910e+01 -2.3471219e+01 -7.4808751e+01 1.9055222e+02 1.3302660e+02 -1.0794718e+02 3.0934148e+00 -8.6710312e+01 3.2271596e+01 -2.9204485e-01 4.3277478e+01 -2.3239035e+00 -2.1543587e+01 -6.9419468e+01 1.7375872e+01 9.2049478e-01 1.3692460e+01 -4.0906753e+01 -6.7302709e+00 1.7617881e+02 -5.5137290e+01 9.3117848e+00 -1.5572204e+01 -2.7523971e+01 -4.7006479e+01 -1.5705806e+01 6.2201929e+01 4.6746258e+00 -1.0052934e+01 -4.6997035e+01 -5.3249058e+01 -4.8887114e+01 3.4690757e+01 -3.0845097e+01 2.6249331e+02 -3.9009372e+01 -9.3602403e+01 -8.6402854e+00 1.1746572e+01 5.8750869e-01 -1.9835121e+01 -5.7821637e+00 -3.4657208e+01 -1.6870433e+01 2.1702121e+01 -6.9741749e+00 -1.1061154e+00 -6.1699142e+01 -2.8652352e+01 -5.4307954e+01 2.0859255e+02 1.0495850e+02 -1.0985859e+02 -3.5661550e+00 -7.8817121e+01 4.5767436e+01 -1.3524256e+01 3.8679125e+01 -1.1928306e+01 -2.0464510e+01 -6.6430514e+01 3.8365829e+01 -1.2349569e+01 2.9247112e+01 -6.5534169e+01 5.3957007e+01 1.6098648e+02 -7.3526217e+01 2.5817787e+01 -3.4469537e+01 -1.8896905e+01 -6.8008430e+01 4.3628682e+00 4.5427081e+01 6.3846342e-01 -1.8566709e+01 -3.5238765e+01 -5.8154486e+01 -6.8282105e+00 2.3277727e+01 1.3180701e+01 2.6055344e+02 -9.6808773e+01 -3.8438692e+01 -3.4090678e+00 2.6734299e+01 -2.4391134e+01 -1.4319379e+01 -2.6630394e+01 -1.8226268e+01 -4.5471295e+00 8.6756570e+00 -4.2695759e+01 -9.8045758e+00 -9.2480427e+01 4.6729819e+01 2.3709659e+02 -8.3469090e+01 1.3098973e+01 -4.8744654e+01 -3.4835606e+01 -1.5326932e+01 4.0819521e+01 3.4607846e+01 -1.3651708e+01 -4.1005489e+01 -6.9252183e+01 -8.8087272e+00 2.1807567e+00 2.4232472e+01 -5.0424410e+01 6.7587364e+01 1.6377242e+02 -1.0390179e+02 4.8878253e+01 -3.7216624e+01 2.7440486e+00 -7.4195625e+01 -2.1559162e+01 3.1813335e+01 2.4565223e+01 -1.4378333e+01 -2.1388646e+01 -4.0165085e+01 -5.9049489e+01 2.6925978e+01 -2.8763611e+01 1.8553920e+02 1.2517761e+02 -1.6757915e+02 1.8704965e+01 -4.9804926e+01 4.0586167e+01 -7.0748062e+01 5.9052743e+00 -5.4814604e+01 1.3677638e+01 -1.2336013e+01 6.6046022e+01 -4.4757510e+01 3.5352492e+01 -1.2813484e+02 1.8006932e+02 1.2260634e+02 -6.8265820e+01 -7.2315939e+00 -6.6873885e+01 -5.6485170e+01 -1.5210543e+01 3.5611704e+01 3.3917968e+01 -2.7664516e+01 -3.2513765e+01 -5.4203597e+01 3.2680899e+01 9.8332388e+00 3.0397938e+01 -5.3549138e+01 1.3380608e+02 1.0671633e+02 -9.7797378e+01 4.6682731e+01 -3.5025883e+01 -9.7346791e+00 -7.5854410e+01 8.6143299e+00 4.8553339e+01 2.7303023e+01 -2.7943670e+01 -3.4419448e+01 -8.1694669e+01 -8.5201752e+00 -8.7402017e+00 6.0309543e+01 2.3220781e+02 -1.3491275e+02 -3.6140926e+01 -3.4434665e+01 3.8870212e+01 -3.3352866e+01 1.9579172e+00 -3.1036797e+01 -2.4580451e+01 -1.9084635e+01 3.8518439e+01 -1.8209567e+01 1.2563615e+01 -7.5249952e+01 -8.4492230e+00 -6.1510487e+01 2.0622036e+02 9.9840712e+01 -1.1482564e+02 -2.4691651e+01 -6.4885014e+01 3.7659326e+01 4.1003920e+00 1.7671525e+01 1.1229585e+01 -4.3396923e+01 -3.8153972e+01 8.7978121e+00 3.5268868e+01 -2.1947105e+01 1.1975583e+01 -1.0172961e+02 1.6845132e+02 1.1136888e+02 -7.8765197e+01 3.5677862e+01 -5.6772935e+01 -1.7631801e+01 -6.3547741e+01 5.8463927e+01 -4.8819906e-02 3.0881016e+00 -4.4783597e+01 -2.5294574e+01 -6.9910411e+01 5.7285078e+01 -5.1514276e+01 2.1654349e+02 9.0395193e+01 -1.4164707e+02 1.1911304e+01 -1.9270679e+01 2.7504329e+01 -4.1878753e+01 1.3733505e+01 -5.2402826e+01 2.4466396e+00 -3.4794210e+00 2.5097436e+01 -4.3938668e+01 1.5302274e+00 -1.1631857e+02 1.2146865e+02 1.9823153e+02 -1.0216283e+02 1.0051519e+01 -6.8209266e+01 -3.0586875e+01 -1.0086313e+01 3.6322509e+01 2.1596176e+01 -1.4053107e+01 -4.2270525e+01 -5.9237682e+01 1.7705547e+01 1.5943060e-01 2.4175673e+01 -6.3569019e+01 1.4467392e+02 5.4329395e+01 -7.1556197e+01 4.5100996e+01 -4.3163008e+01 4.2992865e+00 -7.4266769e+01 2.1964807e+01 2.8623501e+01 1.7302158e+01 -3.4244153e+01 -2.3618198e+01 -7.3917075e+01 -1.3472494e+01 4.9447328e-01 4.1042194e+01 2.5588297e+02 -9.1972400e+01 -6.2127853e+01 -2.4141218e+01 1.9329343e+01 -5.3638096e+00 -7.2006301e+00 -8.5323744e+00 -4.2870945e+01 -1.2999005e+01 2.4462229e+01 -4.2060066e+00 -1.8625107e+00 -4.1721254e+01 -4.0408808e+01 -2.3048802e+01 5.0505755e+01 -5.3163221e+01 2.0235050e+02 7.0552368e+01 -1.4526759e+02 4.2203357e+01 -2.8171813e+01 2.0064703e+01 -3.3798706e+01 -2.1967714e+01 -6.4757816e+01 4.9085337e+01 3.0040775e-01 -7.5182889e+00 -3.8054921e+01 -1.1342979e+01 -7.6100537e+01 2.8214457e+02 -9.2608343e+00 -2.2079613e+01 -2.0359293e+01 -3.9652955e+01 -2.8436674e+01 2.2035854e+01 2.7893208e+01 7.5099344e+00 -3.6517099e+01 -4.1428032e+01 -3.3608667e+01 4.0472710e+01 2.1705478e-01 5.7658544e+00 -3.5413859e+01 -2.5256819e+01 2.2213486e+02 -3.0991663e+01 -1.7459351e+01 -2.3301745e+01 -4.7454664e+01 -4.5641034e+01 -3.5542947e+01 6.2533018e+01 2.7515505e+00 1.4435469e+00 -5.4751547e+01 -4.2499672e+01 -4.6169921e+01 5.2828632e+01 -5.7837309e+01 2.7137927e+02 1.6167698e+01 -1.1458804e+02 4.4646178e+00 -9.7877532e+00 1.2699254e+01 -3.2869347e+01 -1.1834487e+01 -4.8229921e+01 -5.4184230e+00 6.6703149e+00 1.1670899e+00 -1.3859901e+01 -2.2841258e+01 -5.5623399e+01 3.0697956e+00 1.8037539e+01 2.4300375e+01 2.7458132e+02 -1.0368074e+02 -5.6010123e+01 -1.3762105e+01 1.3130324e+01 -1.7587774e+01 -3.3930105e+01 -2.1954927e+01 -3.0841115e+01 -4.3247365e+00 1.2337963e+01 -5.0102896e+00 -1.7524617e+01 -4.4161501e+01 -4.6188793e+01 5.3066471e+01 3.0074671e+02 -6.7896379e+01 -8.0942454e+00 -8.5106254e+01 -2.9655036e+01 4.4207701e-01 1.2420993e+01 4.2642010e+00 -3.3250815e+00 -7.2047147e+01 -2.9343665e+01 3.1169672e+00 2.2880634e+01 -1.5142025e+01 2.7951717e+01 1.9993730e+02 -7.7675213e+01 1.9877400e+01 -4.5386681e+00 -2.4277892e+01 -4.0534541e+01 -4.8172739e+01 4.6981579e+01 -6.1314388e-01 -2.0923553e+01 -4.5044524e+01 -5.2665411e+01 -1.0267889e+02 4.4808401e+01 -3.5643596e+01 3.2304686e+02 1.0666361e+02 -1.3717274e+02 1.0337178e+01 -1.4481975e+01 5.3526184e+01 -3.5220833e+01 1.9686627e+01 -5.2579824e+01 -9.4702623e+00 3.1543859e+00 4.1153075e+01 -1.0295751e+01 3.6744994e+01 -7.1651965e+01 1.2907564e+02 2.3228882e+02 -6.9316355e+01 5.3478836e+01 -6.6903674e+01 -4.7207141e+01 -7.5239696e+01 -4.3791030e+01 -5.8822453e+01 -9.3150758e+01 -1.7005785e+02 -1.7150246e+02 -1.3497055e+02 -4.9520373e+01 -9.2001757e+01 2.1501625e+02 -7.4669936e+01 -7.3448215e+01 3.7822987e+01 4.9742202e+01 3.5529619e+01 1.5250442e+01 2.9857541e+01 -2.0215936e+01 2.5441660e+01 5.1012037e+01 7.7765063e+01 3.3944177e+01 7.0225905e+00 -3.2896462e+01 5.4048636e+01 2.8798654e+02 -9.2206264e+01 -5.4934645e+01 -1.1683646e+02 -4.5050129e+01 4.0730924e+00 -2.8626609e+00 5.9735498e+00 -2.3681804e+01 -6.4847195e+01 -3.9576680e+01 3.3156141e+01 2.0226015e+01 1.6840682e+01 -1.9185213e+01 -1.4690810e+01 2.3261762e+02 -4.7503975e+01 2.7119617e+01 -1.9909535e+01 -1.4968473e+01 -5.2711021e+01 1.6938326e+01 5.5474364e+01 3.5441181e+01 -2.3087846e+01 -2.5749319e+01 -7.3343132e+01 1.1121905e+01 3.3046283e+00 4.3249214e+01 2.5039511e+02 -1.1071032e+02 -4.5977742e+01 -1.3051850e+00 1.7514888e+01 -8.5491249e+00 -1.2884973e+01 -1.0406448e+01 -4.3781676e+01 1.0638076e+01 -1.2385103e+00 2.5902153e+00 -4.0171213e+01 -2.6150285e+01 -8.4726619e+01 2.7517852e+02 1.9967625e+01 -5.8624986e+01 -1.0234514e+01 -6.5403990e+01 -1.8933314e+01 5.9294892e+00 4.3583611e+01 -1.8220154e+00 -3.3777193e+01 -5.7430327e+01 -3.5107120e+01 2.1048539e+01 4.3851555e+00 1.0574214e+01 -5.0263610e+01 2.1632279e+02 -1.3810859e+01 -3.4134770e+01 2.0424113e+01 -3.5519964e+01 -1.9990839e+01 -7.5377910e+01 2.9956676e+01 3.1235465e+01 1.2249980e+01 -2.7097410e+01 -2.0777078e+01 -6.6003793e+01 -4.1947678e+00 7.9019171e+00 3.3969691e+01 2.6463397e+02 -9.1648645e+01 -6.3157596e+01 -1.3408259e+01 1.6524349e+01 -1.0406010e+01 -2.1381761e+01 2.1794682e-01 -3.1528086e+01 1.8614093e+01 1.0363518e+01 4.9028634e+00 -2.0512785e+01 -3.6382044e+01 -4.3644948e+01 3.1778376e+01 1.0172321e+01 1.2267607e+01 -2.9025926e+01 -2.5203562e+01 -3.8113104e+01 6.3655319e+01 -3.9276034e+01 1.6688833e+02 1.1541837e+02 -1.4625490e+02 2.4951023e+01 -1.9692277e+01 2.1405113e+01 -5.6326539e+01 -4.0843408e+01 -3.8394653e+01 5.0191541e+01 8.0218747e+00 1.4063774e+01 -2.7096535e+01 -1.5559429e+01 -7.4804283e+01 3.1934184e+01 -2.6808082e+01 1.0469872e+02 1.9488042e+02 -1.4286482e+02 -1.5081775e+01 -1.5485344e+01 3.0274410e+01 -2.8920874e+01 -1.7220721e+01 -3.3787776e+01 -1.9098221e+01 -6.4856116e-01 1.4832913e+01 -1.5858931e+01 -9.9639015e+00 -6.5885082e+01 -2.0391564e+01 -7.0797392e+00 6.8278351e+01 2.4973242e+02 -1.2402803e+02 -3.5563575e+01 -5.4028330e+01 3.4772134e+01 -1.6987555e+01 -5.3291598e-01 -1.7480734e+01 -2.7325036e+01 -4.1220855e+01 3.7091505e+01 -2.0091071e+01 2.2327935e+01 -7.3632058e+01 4.6083054e+01 1.9817984e+02 -6.9320563e+01 2.0028485e+01 -2.9877406e+01 -2.3499273e+01 -6.1891788e+01 7.3000814e+00 4.6821054e+01 -9.1286198e+00 -1.2743431e+01 -4.6277622e+01 -3.6839132e+01 -1.7113993e+01 5.5344727e+01 -5.2123865e+01 1.5019452e+02 1.1566333e+02 -1.4298246e+02 4.8128925e+01 -2.7288260e+01 1.5749559e+01 -5.3714152e+01 -1.8839454e+01 -8.4471679e+00 3.9067499e+01 -6.7485891e+00 -6.2497136e+00 -3.3261549e+01 -5.2215240e+01 -2.6834831e+01 1.1973884e+01 4.4043817e+01 2.4996245e+02 -1.2726213e+02 -3.1035616e+01 -4.6649756e+01 3.9938083e+01 -3.0903023e+01 3.6649337e+00 -3.2313285e+01 -1.4873637e+01 -2.1722707e+01 3.1007258e+01 -4.3514143e+01 1.8359655e+01 -1.0950713e+02 1.7694421e+02 7.1524553e+01 -5.8268379e+01 1.6622633e+01 -4.1398409e+01 -3.0910885e+01 -4.8372852e+01 5.1293722e+01 1.6934264e+01 -9.4243351e+00 -3.0892871e+01 -4.4016237e+01 -5.0754057e+01 1.8531024e+01 -1.4350621e-01 1.9494129e+01 2.5785940e+02 -1.1941212e+02 -3.3931505e+01 2.1925637e+00 6.6576548e+00 -1.8284819e+01 -3.8657546e+01 -2.2250564e+01 -5.4892256e+00 2.0431690e+01 3.1298123e-01 -1.3394036e+00 -2.8420713e+01 -4.1662183e+01 -3.1237321e+01 4.1245288e+01 -2.9361851e+01 2.4795790e+02 -7.9962011e+00 -1.0490033e+02 1.8131380e+01 -6.1663766e+00 1.6355267e+01 -4.1257128e+01 1.9663156e+00 -2.6147899e+01 2.9752968e+01 4.4917165e+00 1.2164387e+01 -2.5722545e+01 -2.9728173e+01 -5.2656554e+01 2.7725549e+01 2.8128334e+00 1.2935575e+01 -3.0562812e+01 -2.4338349e+01 -4.5041335e+01 6.4271854e+01 -3.5764906e+01 1.3708833e+02 1.6070033e+02 -1.4519343e+02 1.4114464e+01 -9.7461153e+00 1.9462949e+01 -4.2941452e+01 -5.0924673e+01 -3.7040557e+01 4.3886026e+01 1.7918560e+01 4.2398965e+00 -2.2839059e+01 -2.5300927e+01 -6.6309012e+01 1.3536404e+01 -6.9691407e+00 5.9973944e+01 2.3821829e+02 -1.2644230e+02 -2.9299153e+01 -1.6201897e+01 2.1668367e+01 -2.0402159e+01 -2.5401071e+01 -3.0976639e+01 -1.3734757e+01 3.0060819e+00 1.8103500e+01 -9.7522818e+00 -9.7564520e+00 -5.3288991e+01 -2.2437723e+01 1.5235601e+01 1.8576410e+01 -9.8992266e+00 -9.1606880e+00 -6.7905831e+01 2.5825355e+02 6.1449305e+00 -2.5758435e+01 -1.1460300e+01 -4.9862082e+01 -4.7373451e+01 -3.8827730e+01 3.4984978e+01 3.3822797e+01 6.7288632e+00 -2.5424495e+01 -3.9079588e+01 -1.3906329e+00 3.8872803e+01 3.2264934e+00 1.9759367e+00 -3.9834573e+01 -3.6055370e+01 1.9632609e+00 3.5519923e+01 -1.9853642e+01 1.0732919e+01 -7.9125774e+01 7.6680953e+01 2.4690469e+02 -8.3281720e+01 1.8146187e+01 -5.8888021e+01 -3.3909488e+01 -5.0845998e+01 1.8071638e+00 -1.6400857e+00 3.3811669e+01 -2.5454889e+01 -3.6181316e+01 -2.6976387e+01 5.1050482e+01 6.3956389e+00 3.7356447e+00 -3.9106766e+01 -4.8453311e+01 3.6851886e+00 2.9865094e+02 -7.9910221e+01 -8.2700001e+00 -7.9838178e+01 -3.5313554e+01 -1.9899161e+01 2.1247513e+01 -1.9147214e+01 2.2437118e+01 -7.4742085e+01 -2.5575896e+01 -3.9955726e+01 6.6942522e+01 -7.1837181e+01 1.8294319e+02 9.5513109e+01 -1.3400058e+02 3.2073193e+01 -1.2402488e+01 5.5288443e+00 -4.4503100e+01 -3.9836483e+01 -1.7813661e+01 -1.0409930e+00 1.0539772e+01 -1.2995016e+01 -6.7360952e+00 -6.7361304e+01 -1.1186775e+01 -2.6348796e+01 1.2871331e+02 2.1954749e+02 -1.2422000e+02 -2.0081587e+01 -5.4470850e+01 3.9167250e+01 -1.8831886e+01 -3.4729670e+00 -1.2414148e+01 -3.5989984e+01 -2.8151404e+01 2.4603321e+01 -1.0215331e+00 -3.5435646e+00 -3.5100704e+01 -4.8395028e+01 2.4681826e+02 -2.4176185e+01 -1.5097435e+01 -1.9310838e+01 -4.4437907e+01 -4.4500956e+01 -2.8763091e+00 4.2842867e+01 8.0604892e+00 -1.7563455e+01 -4.3190027e+01 -5.3982011e+01 1.1400613e+01 4.7655114e+00 1.7184449e+01 2.4419380e+02 -1.2200270e+02 -3.6829029e+01 3.2569943e+00 9.0318322e+00 -1.8842116e+01 -2.6757661e+01 -1.5564948e+01 -2.9061260e+00 3.1070210e+01 -8.2923139e+00 -1.4501370e+00 -4.8744513e+01 -2.3778096e+01 -5.1518703e+01 2.3504810e+02 6.5505763e+01 -8.8290828e+01 -1.0533189e+01 -7.3755374e+01 4.2807226e+01 -1.2128570e+01 3.0121209e+01 -1.6607650e+01 -3.6195291e+01 -6.3108542e+01 2.0976772e+01 -4.4128534e+00 6.6380168e+00 -4.2522448e+01 -2.7969991e+01 2.0670420e+02 -3.6286165e+01 -9.5056837e+00 -7.7568274e+00 -4.2093837e+01 -3.8665074e+01 -2.1072646e+01 6.5484290e+01 -3.7414976e+00 -1.8458698e+00 -5.4501609e+01 -3.5311523e+01 -4.7426282e+01 5.1101280e+01 -6.1823223e+01 2.3648128e+02 2.0236634e+01 -1.2656848e+02 1.5780553e+01 -1.1668692e+01 5.9315328e+00 -4.3651807e+01 -1.1385058e+01 -2.7935801e+01 1.0440514e+01 1.3473152e+01 1.9336481e+00 -1.3111734e+01 -4.6952516e+01 -3.6257638e+01 -1.4044970e+00 2.6593917e+02 -2.4077938e+01 -5.4388979e+01 -3.8671022e+01 -4.2294205e+01 3.2698761e+01 -1.1763352e+01 2.7765654e+01 -2.4585646e+01 -4.1757836e+01 -4.0517177e+01 4.2230858e+01 -1.1490543e+01 2.1493628e+01 -7.2260206e+01 6.2851546e+01 1.7151527e+02 -8.0780580e+01 2.8578828e+01 -5.1270593e+01 -1.9456638e+01 -6.8268569e+01 3.6088357e+01 2.8707197e+01 1.4529908e+01 -3.8653340e+01 -3.1683042e+01 -6.9036232e+01 4.3277197e+01 -3.1750472e+01 1.0075609e+02 1.8742449e+02 -1.4863094e+02 2.7119581e+00 -1.0533031e+01 1.6705933e+01 -3.3862481e+01 -1.2660327e+01 -2.6108893e+01 8.1216965e+00 1.3428401e+01 -1.1681439e+00 -1.4639315e+01 -4.0684478e+01 -4.4960014e+01 -1.1385757e+01 2.5480368e+02 -1.9937522e+01 -5.6138928e+01 -3.6155753e+01 -5.3765032e+01 3.3429831e+01 -7.7361801e+00 3.4102483e+01 -2.6301038e+01 -4.1267599e+01 -5.7121308e+01 3.2955342e+01 -1.5092666e+01 2.3957295e+01 -6.8635054e+01 5.1106430e+01 1.7204483e+02 -7.0399048e+01 2.7862158e+01 -3.5524307e+01 -2.1966665e+01 -6.4249891e+01 1.1005647e+01 4.3763900e+01 -1.2599140e+00 -2.0919086e+01 -3.7396160e+01 -5.4947381e+01 -1.8805301e+01 2.3464027e+01 -2.6495580e+01 2.6018940e+02 -4.5174879e+01 -9.1021608e+01 1.2681503e+01 -5.1783906e+00 6.9475498e-01 -4.0810537e+01 -9.2558184e+00 -3.7862925e+01 1.4251990e+01 3.9412637e-01 5.6639604e+00 -3.4254840e+01 -2.9024716e+01 -5.8435137e+01 7.0960254e+01 2.4930791e+02 -7.8615630e+01 -1.6176988e+01 -6.1758500e+01 -8.3396104e+00 2.1455802e+01 1.0710929e+01 2.6611778e+01 -2.5173026e+01 -4.7771741e+01 -2.1769784e+01 3.3111767e+01 -1.8636302e+01 1.0419125e+01 -9.0704023e+01 1.3960844e+02 9.5763837e+01 -6.6071052e+01 3.2303275e+01 -5.6962655e+01 -1.4990660e+01 -6.6026624e+01 6.4312287e+01 9.8170686e+00 1.2688453e+01 -5.7215926e+01 -3.0326297e+01 -7.9777847e+01 5.5336491e+01 -5.9578653e+01 1.9551399e+02 1.1281133e+02 -1.4436682e+02 2.6450856e-01 -1.1597758e+01 1.7970430e+01 -3.6936856e+01 -7.7364131e+00 -3.9517014e+01 -2.0214330e+01 1.2805635e+01 1.6115181e+00 -1.1272479e+01 -4.1368043e+01 -4.5480545e+01 -4.1465543e+01 2.8179907e+02 -6.2114205e+00 -5.6095197e+01 -2.7529856e+01 -6.0717076e+01 6.8142863e+00 5.0443778e+00 2.6759221e+01 -1.0216169e+01 -4.6369985e+01 -6.0149355e+01 -2.8396057e+00 2.2678272e+01 -7.0180015e+00 3.5237796e+00 -6.8920206e+01 2.1360931e+02 3.6761445e+01 -4.6419462e+01 2.0780542e+01 -5.4335803e+01 -2.7687963e+01 -6.9575317e+01 6.6014143e+01 3.6019673e+00 1.1072085e+01 -4.5958840e+01 -2.2482324e+01 -7.2742515e+01 6.0139247e+01 -5.7601868e+01 1.8490586e+02 1.5448757e+02 -1.4381788e+02 1.7741367e+00 -9.4993596e+00 1.2940693e+01 -3.5112095e+01 3.7397030e-01 -4.1137814e+01 1.2890030e+01 7.9869384e+00 -2.8961511e+01 7.1814513e+00 -5.5646423e+01 -4.7750510e+01 -3.5870391e+01 2.2512215e+02 1.3331267e+02 -1.1117637e+02 -2.0291858e+01 -6.3024050e+01 4.2261852e+00 -4.1650629e+00 5.1206579e+00 1.3717842e+01 -6.4817966e+01 -4.2086055e+01 2.7509378e+01 -3.1435126e+00 2.4940739e+01 -3.8821825e+01 -6.2051969e+01 2.4944804e+02 -2.1153727e+01 -1.9840961e+01 -7.3056194e+00 -6.2065647e+01 -3.8134859e+01 -2.6466309e+01 5.3973990e+01 9.8878064e+00 -2.0320220e+01 -5.0611241e+01 -6.4597596e+01 -3.0313816e+01 3.7011049e+01 -1.9644845e+01 2.8635443e+02 -4.0141039e+01 -9.4566140e+01 -6.9026670e+00 6.0799636e+00 -3.2897092e+00 -4.9085298e+01 -3.8242715e+00 -6.4904352e+01 6.3433809e+00 -1.5839624e+01 -1.5674064e+01 -3.0598961e+01 -6.8080278e+01 -6.9925185e+01 2.5826847e+01 2.7666092e+02 -4.2951287e+01 4.2032636e+01 -4.9638023e+00 1.3364901e+01 -5.4999850e+00 -6.0876042e+00 -2.7911891e+01 -4.4198879e+01 -7.7005537e+01 -6.4668074e+00 1.0664264e+02 6.5255834e+01 1.0053858e+01 -2.3753773e+01 -5.5114658e+01 2.8895285e+02 -3.6859237e+01 -9.3006217e+00 1.3668296e+00 -5.9051592e+01 -1.9598996e+02 -4.1035326e+01 -5.4223421e+00 -2.3443121e+01 -5.6381568e+01 -2.4014822e+01 -4.6491843e+01 2.6573608e+01 2.9466104e+01 4.9078066e+01 3.2776033e+02 -5.7470809e+01 -5.5156082e+01 1.6155520e+01 3.0455628e+01 1.7531561e+00 -5.3563931e+01 -4.9720863e+00 -4.0771155e+01 6.7630373e+00 -1.2644197e+01 -5.4273331e+00 -5.7270353e+01 -2.4258936e+01 -8.3088813e+01 2.0633631e+02 1.9112771e+02 -8.3901292e+01 2.2110751e+01 -5.3384843e+01 6.1022611e+01 -9.1596429e+01 -6.6579104e+01 -7.8686965e+01 -4.5725759e+01 -1.0409899e+02 1.4010399e+01 2.5087608e+01 3.7287359e+01 -1.7937243e+01 -8.9904942e+00 -6.9062161e+01 2.6580856e+02 2.0311696e+01 -3.4706152e+01 -3.8040814e+01 -9.2100646e+01 -5.4255554e+00 1.7172557e+01 8.9084732e+01 1.0215171e+01 -1.1695512e+01 -9.8274339e+01 -4.6567959e+01 -2.3903229e+00 7.6161687e+00 -5.3998137e+01 2.8277870e+02 -6.4921728e+01 -5.4437364e+01 2.1205874e+01 -2.0192425e+01 3.7049252e+00 -5.4389502e+01 -6.3048034e+00 1.6537965e+01 2.4669832e+01 4.8287633e+01 -2.3706905e+00 -5.6331387e+01 -8.2116367e+01 7.9293286e+00 -2.2026607e+01 7.5865472e+00 2.6642155e+02 -1.2861126e+02 -3.3501152e+01 -5.2541404e+00 6.4843611e+01 -7.3642116e+00 -2.8230545e+01 -2.2311525e+01 -1.4555955e+01 4.3758881e+00 2.0893872e+01 -3.5720850e+01 -3.0689801e+01 -8.6144420e+01 7.2111633e+01 2.6406419e+02 -1.0927819e+02 2.9983112e+01 -5.7719550e+01 -7.1680303e+01 -1.9824140e+01 4.0855672e+01 1.1589838e+00 -4.6487249e+01 -6.4142159e+01 -4.5786942e+01 -2.5312038e+00 1.5442192e+01 2.5267679e+01 -4.5254216e+01 2.3141127e+02 2.1942217e+01 -5.4668743e+01 4.5672437e+01 -7.1485171e+01 -8.0244862e+00 -1.1540101e+02 2.1270173e+01 2.7633588e+01 1.3049631e+01 -5.9907980e+01 -8.2536572e+00 -7.0085126e+01 3.1199820e+01 -6.0951346e+01 1.6641131e+02 2.1816301e+02 -1.3461233e+02 -2.7761567e+01 -3.2243952e+01 7.5788979e+00 -2.2179251e+01 -1.4150144e+01 -2.0764000e+01 -4.2182376e+01 2.1852265e+01 -1.0502231e+01 1.0625138e+01 -3.0493552e+01 -4.0862054e+01 -5.3509729e+01 3.0652646e+02 -1.1727202e+01 -3.9729147e+01 -4.3002184e+01 -5.6480568e+01 -6.0464672e+00 5.4288545e+00 2.7333270e+01 1.3945358e+01 -6.1913995e+01 -3.2514064e+01 -8.9805599e+00 4.5429441e+01 -2.0025835e+01 7.5397094e+01 1.8957186e+02 -1.2714269e+02 3.5876387e+01 -2.3702473e+01 6.0203035e-01 -6.9017699e+01 -4.8113358e+01 1.5687418e+01 -1.6006095e+01 8.6059622e+00 -1.6454522e+01 -1.9974404e+01 -7.8158038e+01 2.0413447e+01 -3.9680203e+01 2.0821360e+02 1.7525159e+02 -1.4786516e+02 -2.2355628e+01 -4.6936151e+01 3.0275281e+01 -4.8518823e+01 -2.3266611e+00 -3.3116427e+01 -3.4462789e+01 3.1925769e+01 2.2385478e+01 -2.7520774e+01 -4.2009916e+00 -4.7850095e+01 -7.0287080e+00 2.9999185e+02 -1.7819784e+01 -4.9399115e+01 -6.0160807e+01 -7.3158382e+01 7.3200952e+00 -1.2749211e+01 4.2771891e+01 -2.0331135e+01 -2.4812021e+01 -7.6076454e+01 2.6431049e+01 -1.8356930e+01 3.1474119e+01 -6.4304073e+01 2.0034128e+02 3.4541096e+01 -5.6808656e+01 4.4426563e+01 -5.7628127e+01 1.2648463e-01 -8.5660403e+01 2.0754932e+01 3.3873276e+01 1.4418769e+01 -5.2737927e+01 -1.6564820e+01 -6.5242847e+01 -2.0327481e+00 2.6589442e-02 5.9798389e+01 2.7088755e+02 -9.4934395e+01 -5.5577090e+01 -4.9654618e+00 3.6003446e+01 2.1090123e-02 -3.2534381e+01 -2.7687371e+01 -4.3328229e+01 8.0236734e+00 -1.4303287e+01 -1.8853482e+01 -5.1972730e+01 -2.7470637e+01 -7.3780051e+01 2.7988973e+02 5.0127528e+00 -4.4401971e+01 -7.8016799e+00 -6.0300858e+01 -6.1002757e+01 2.5278748e+01 2.9387148e+01 1.5665565e+01 -4.4480171e+01 -2.7154380e+01 -2.0195543e+01 6.6449014e+01 -6.6046704e+01 1.6925406e+02 1.2976807e+02 -1.9642003e+02 2.9848812e+00 -4.7674334e+01 2.1902809e+01 -7.2845733e+01 -5.2634749e+00 -4.2076909e+01 3.1127301e+01 9.0636373e+00 3.1335372e+01 -2.3414283e+01 -1.4698778e+01 -6.0465553e+01 3.8043378e+01 -1.5596931e+01 3.2874207e+02 -2.4345954e+01 -9.5564157e+01 -4.6868982e+01 -1.2740152e+01 -1.3171893e+01 -5.8543247e+01 -7.4803848e+00 -4.3763290e+01 -4.4643199e+01 4.6816369e+00 2.5986730e+01 -1.6579895e+01 -2.2371578e+00 -8.6983361e+01 4.4427897e+01 2.8935059e+02 -1.1407502e+02 1.7404688e+01 -5.6777639e+01 -2.4093593e+01 -5.9209370e+01 2.3202893e+01 2.0242606e+00 -4.2033885e-01 -3.4127011e+01 -1.3597795e+01 -4.3309879e+01 4.7777471e+01 -2.4833956e+01 7.1076255e+01 2.6035028e+02 -1.3557692e+02 -3.4250799e+00 -6.4005488e+00 5.2179374e+00 -3.2756323e+01 -3.5435325e+01 -1.7461942e+01 4.1873964e+00 1.1786469e+01 -3.1932918e+00 -8.9378484e+00 -3.5445797e+01 -5.3972254e+01 -1.1612045e+01 3.2905383e+01 2.7745943e+02 -8.2309213e+01 -5.4288316e+01 -5.5681693e+01 1.5112687e+01 8.7094441e+00 -2.2315282e+01 7.8472522e+00 -1.9397586e+01 -4.3827303e+01 2.1229098e+01 1.5516382e+01 6.2883157e+00 -2.9886062e+01 -3.1851705e+01 -6.8369232e+01 2.7242807e+02 1.2698560e+01 -6.0838028e+01 -1.2644187e+01 -7.6006574e+01 4.3696601e-01 -3.2796866e+00 3.7273217e+01 2.9881876e+00 -1.8209206e+01 -6.1206223e+01 -2.1935967e+01 1.7826792e+01 3.9597838e+00 9.3641051e+00 2.3358881e+02 -1.3941096e+02 4.4705482e+00 -7.3633981e+00 1.6985855e+01 -3.6650399e+01 -2.3237939e+01
9.8623600e+01 9.8591308e+01 9.8559015e+01 9.8526723e+01 9.8494431e+01 9.8462139e+01 9.8429846e+01 9.8397554e+01 9.8365262e+01 9.8332970e+01 9.8300677e+01 9.8268385e+01 9.8236093e+01 9.8203800e+01 9.8171508e+01 9.8139216e+01 9.8106924e+01 9.8074631e+01 9.8042339e+01 9.8010047e+01 9.7977755e+01 9.7945462e+01 9.7913170e+01 9.7880878e+01 9.7848585e+01 9.7816293e+01 9.7784001e+01 9.7751709e+01 9.7719416e+01 9.7687124e+01 9.7654832e+01 9.7622540e+01 9.7590247e+01 9.7557955e+01 9.7525663e+01 9.7493370e+01 9.7461078e+01 9.7428786e+01 9.7396494e+01 9.7364201e+01 9.7331909e+01 9.7299617e+01 9.7267325e+01 9.7235032e+01 9.7202740e+01 9.7170448e+01 9.7138156e+01 9.7105863e+01 9.7073571e+01 9.7041279e+01 9.7008986e+01 9.6976694e+01 9.6944402e+01 9.6912110e+01 9.6879817e+01 9.6847525e+01 9.6815233e+01 9.6782941e+01 9.6750648e+01 9.6718356e+01 9.6686064e+01 9.6653771e+01 9.6621479e+01 9.6589187e+01 9.6556895e+01 9.6524602e+01 9.6492310e+01 9.6460018e+01 9.6427726e+01 9.6395433e+01 9.6363141e+01 9.6330849e+01 9.6298556e+01 9.6266264e+01 9.6233972e+01 9.6201680e+01 9.6169387e+01 9.6137095e+01 9.6104803e+01 9.6072511e+01 9.6040218e+01 9.6007926e+01 9.5975634e+01 9.5943341e+01 9.5911049e+01 9.5878757e+01 9.5846465e+01 9.5814172e+01 9.5781880e+01 9.5749588e+01 9.5717296e+01 9.5685003e+01 9.5652711e+01 9.5620419e+01 9.5588127e+01 9.5555834e+01 9.5523542e+01 9.5491250e+01 9.5458957e+01 9.5426665e+01 9.5394373e+01 9.5362081e+01 9.5329788e+01 9.5297496e+01 9.5265204e+01 9.5232912e+01 9.5200619e+01 9.5168327e+01 9.5136035e+01 9.5103742e+01 9.5071450e+01 9.5039158e+01 9.5006866e+01 9.4974573e+01 9.4942281e+01 9.4909989e+01 9.4877697e+01 9.4845404e+01 9.4813112e+01 9.4780820e+01 9.4748527e+01 9.4716235e+01 9.4683943e+01 9.4651651e+01 9.4619358e+01 9.4587066e+01 9.4554774e+01 9.4522482e+01 9.4490189e+01 9.4457897e+01 9.4425605e+01 9.4393312e+01 9.4361020e+01 9.4328728e+01 9.4296436e+01 9.4264143e+01 9.4231851e+01 9.4199559e+01 9.4167267e+01 9.4134974e+01 9.4102682e+01 9.4070390e+01 9.4038098e+01 9.4005805e+01 9.3973513e+01 9.3941221e+01 9.3908928e+01 9.3876636e+01 9.3844344e+01 9.3812052e+01 9.3779759e+01 9.3747467e+01 9.3715175e+01 9.3682883e+01 9.3650590e+01 9.3618298e+01 9.3586006e+01 9.3553713e+01 9.3521421e+01 9.3489129e+01 9.3456837e+01 9.3424544e+01 9.3392252e+01 9.3359960e+01 9.3327668e+01 9.3295375e+01 9.3263083e+01 9.3230791e+01 9.3198498e+01 9.3166206e+01 9.3133914e+01 9.3101622e+01 9.3069329e+01 9.3037037e+01 9.3004745e+01 9.2972453e+01 9.2940160e+01 9.2907868e+01 9.2875576e+01 9.2843283e+01 9.2810991e+01 9.2778699e+01 9.2746407e+01 9.2714114e+01 9.2681822e+01 9.2649530e+01 9.2617238e+01 9.2584945e+01 9.2552653e+01 9.2520361e+01 9.2488069e+01 9.2455776e+01 9.2423484e+01 9.2391192e+01 9.2358899e+01 9.2326607e+01 9.2294315e+01 9.2262023e+01 9.2229730e+01 9.2197438e+01 9.2165146e+01 9.2132854e+01 9.2100561e+01 9.2068269e+01 9.2035977e+01 9.2016621e+01 9.2004360e+01 9.1992099e+01 9.1979838e+01 9.1967577e+01 9.1955315e+01 9.1943054e+01 9.1930793e+01 9.1918532e+01 9.1906271e+01 9.1894010e+01 9.1881748e+01 9.1869487e+01 9.1857226e+01 9.1844965e+01 9.1832704e+01 9.1820443e+01 9.1808182e+01 9.1795920e+01 9.1783659e+01 9.1771398e+01 9.1759137e+01 9.1746876e+01 9.1734615e+01 9.1709767e+01 9.1676674e+01 9.1643581e+01 9.1610487e+01 9.1577394e+01 9.1544300e+01 9.1511207e+01 9.1478114e+01 9.1445020e+01 9.1411927e+01 9.1378834e+01 9.1345740e+01 9.1312647e+01 9.1279554e+01 9.1246460e+01 9.1213367e+01 9.1180274e+01 9.1147180e+01 9.1114087e+01 9.1080993e+01 9.1047900e+01 9.1014807e+01 9.0981713e+01 9.0948620e+01 9.0929879e+01 9.0922300e+01 9.0914722e+01 9.0907144e+01 9.0899565e+01 9.0891987e+01 9.0884408e+01 9.0876830e+01 9.0869252e+01 9.0861673e+01 9.0854095e+01 9.0846517e+01 9.0838938e+01 9.0831360e+01 9.0823781e+01 9.0816203e+01 9.0808625e+01 9.0801046e+01 9.0793468e+01 9.0785890e+01 9.0778311e+01 9.0770733e+01 9.0763154e+01 9.0755576e+01 9.0751018e+01 9.0749240e+01 9.0747461e+01 9.0745682e+01 9.0743903e+01 9.0742125e+01 9.0740346e+01 9.0738567e+01 9.0736788e+01 9.0735010e+01 9.0733231e+01 9.0731452e+01 9.0729673e+01 9.0727895e+01 9.0726116e+01 9.0724337e+01 9.0722558e+01 9.0720780e+01 9.0719001e+01 9.0717222e+01 9.0715444e+01 9.0713665e+01 9.0711886e+01 9.0710107e+01 9.0697613e+01 9.0673470e+01 9.0649328e+01 9.0625185e+01 9.0601043e+01 9.0576900e+01 9.0552758e+01 9.0528615e+01 9.0504473e+01 9.0480330e+01 9.0456188e+01 9.0432045e+01 9.0407903e+01 9.0383760e+01 9.0359618e+01 9.0335475e+01 9.0311333e+01 9.0287190e+01 9.0263048e+01 9.0238905e+01 9.0214763e+01 9.0190620e+01 9.0166478e+01 9.0142336e+01 9.0132990e+01 9.0142668e+01 9.0152347e+01 9.0162026e+01 9.0171704e+01 9.0181383e+01 9.0191062e+01 9.0200740e+01 9.0210419e+01 9.0220097e+01 9.0229776e+01 9.0239455e+01 9.0249133e+01 9.0258812e+01 9.0268491e+01 9.0278169e+01 9.0287848e+01 9.0297526e+01 9.0307205e+01 9.0316884e+01 9.0326562e+01 9.0336241e+01 9.0345920e+01 9.0355598e+01 9.0362727e+01 9.0365965e+01 9.0369202e+01 9.0372439e+01 9.0375677e+01 9.0378914e+01 9.0382151e+01 9.0385389e+01 9.0388626e+01 9.0391863e+01 9.0395100e+01 9.0398338e+01 9.0401575e+01 9.0404812e+01 9.0408050e+01 9.0411287e+01 9.0414524e+01 9.0417762e+01 9.0420999e+01 9.0424236e+01 9.0427474e+01 9.0430711e+01 9.0433948e+01 9.0437186e+01 9.0445829e+01 9.0464329e+01 9.0482829e+01 9.0501329e+01 9.0519830e+01 9.0538330e+01 9.0556830e+01 9.0575331e+01 9.0593831e+01 9.0612331e+01 9.0630831e+01 9.0649332e+01 9.0667832e+01 9.0686332e+01 9.0704833e+01 9.0723333e+01 9.0741833e+01 9.0760333e+01 9.0778834e+01 9.0797334e+01 9.0815834e+01 9.0834334e+01 9.0852835e+01 9.0871335e+01 9.0878948e+01 9.0862609e+01 9.0846270e+01 9.0829931e+01 9.0813592e+01 9.0797253e+01 9.0780914e+01 9.0764575e+01 9.0748236e+01 9.0731897e+01 9.0715558e+01 9.0699219e+01 9.0682881e+01 9.0666542e+01 9.0650203e+01 9.0633864e+01 9.0617525e+01 9.0601186e+01 9.0584847e+01 9.0568508e+01 9.0552169e+01 9.0535830e+01 9.0519491e+01 9.0503152e+01 9.0490360e+01 9.0487119e+01 9.0483878e+01 9.0480637e+01 9.0477396e+01 9.0474155e+01 9.0470914e+01 9.0467673e+01 9.0464432e+01 9.0461191e+01 9.0457950e+01 9.0454709e+01 9.0451468e+01 9.0448227e+01 9.0444986e+01 9.0441745e+01 9.0438504e+01 9.0435263e+01 9.0432022e+01 9.0428781e+01 9.0425539e+01 9.0422298e+01 9.0419057e+01 9.0415816e+01 9.0419239e+01 9.0445076e+01 9.0470913e+01 9.0496750e+01 9.0522587e+01 9.0548424e+01 9.0574261e+01 9.0600098e+01 9.0625935e+01 9.0651772e+01 9.0677609e+01 9.0703446e+01 9.0729283e+01 9.0755120e+01 9.0780957e+01 9.0806794e+01 9.0832631e+01 9.0858468e+01 9.0884305e+01 9.0910142e+01 9.0935979e+01 9.0961816e+01 9.0987653e+01 9.1013490e+01 9.1029638e+01 9.1003801e+01 9.0977964e+01 9.0952127e+01 9.0926290e+01 9.0900453e+01 9.0874616e+01 9.0848779e+01 9.0822942e+01 9.0797105e+01 9.0771268e+01 9.0745431e+01 9.0719594e+01 9.0693757e+01 9.0667920e+01 9.0642083e+01 9.0616246e+01 9.0590409e+01 9.0564572e+01 9.0538735e+01 9.0512898e+01 9.0487061e+01 9.0461224e+01 9.0435387e+01 9.0414056e+01 9.0419116e+01 9.0424177e+01 9.0429237e+01 9.0434298e+01 9.0439358e+01 9.0444419e+01 9.0449479e+01 9.0454540e+01 9.0459600e+01 9.0464660e+01 9.0469721e+01 9.0474781e+01 9.0479842e+01 9.0484902e+01 9.0489963e+01 9.0495023e+01 9.0500083e+01 9.0505144e+01 9.0510204e+01 9.0515265e+01 9.0520325e+01 9.0525386e+01 9.0530446e+01 9.0541084e+01 9.0599690e+01 9.0658296e+01 9.0716901e+01 9.0775507e+01 9.0834113e+01 9.0892718e+01 9.0951324e+01 9.1009930e+01 9.1068535e+01 9.1127141e+01 9.1185747e+01 9.1244353e+01 9.1302958e+01 9.1361564e+01 9.1420170e+01 9.1478775e+01 9.1537381e+01 9.1595987e+01 9.1654592e+01 9.1713198e+01 9.1771804e+01 9.1830409e+01 9.1889015e+01 9.1943569e+01 9.1937338e+01 9.1931107e+01 9.1924876e+01 9.1918645e+01 9.1912414e+01 9.1906184e+01 9.1899953e+01 9.1893722e+01 9.1887491e+01 9.1881260e+01 9.1875029e+01 9.1868799e+01 9.1862568e+01 9.1856337e+01 9.1850106e+01 9.1843875e+01 9.1837645e+01 9.1831414e+01 9.1825183e+01 9.1818952e+01 9.1812721e+01 9.1806490e+01 9.1800260e+01 9.1794716e+01 9.1821453e+01 9.1848191e+01 9.1874928e+01 9.1901666e+01 9.1928404e+01 9.1955141e+01 9.1981879e+01 9.2008616e+01 9.2035354e+01 9.2062091e+01 9.2088829e+01 9.2115567e+01 9.2142304e+01 9.2169042e+01 9.2195779e+01 9.2222517e+01 9.2249255e+01 9.2275992e+01 9.2302730e+01 9.2329467e+01 9.2356205e+01 9.2382943e+01 9.2409680e+01 9.2436418e+01 9.2450734e+01 9.2464786e+01 9.2478838e+01 9.2492890e+01 9.2506942e+01 9.2520995e+01 9.2535047e+01 9.2549099e+01 9.2563151e+01 9.2577203e+01 9.2591255e+01 9.2605307e+01 9.2619359e+01 9.2633411e+01 9.2647463e+01 9.2661515e+01 9.2675567e+01 9.2689619e+01 9.2703672e+01 9.2717724e+01 9.2731776e+01 9.2745828e+01 9.2759880e+01 9.2773932e+01 9.2790131e+01 9.2806473e+01 9.2822815e+01 9.2839157e+01 9.2855499e+01 9.2871842e+01 9.2888184e+01 9.2904526e+01 9.2920868e+01 9.2937210e+01 9.2953552e+01 9.2969894e+01 9.2986236e+01 9.3002578e+01 9.3018921e+01 9.3035263e+01 9.3051605e+01 9.3067947e+01 9.3084289e+01 9.3100631e+01 9.3116973e+01 9.3133315e+01 9.3149657e+01 9.3166000e+01 9.3148210e+01 9.3126451e+01 9.3104692e+01 9.3082933e+01 9.3061174e+01 9.3039415e+01 9.3017656e+01 9.2995897e+01 9.2974138e+01 9.2952379e+01 9.2930621e+01 9.2908862e+01 9.2887103e+01 9.2865344e+01 9.2843585e+01 9.2821826e+01 9.2800067e+01 9.2778308e+01 9.2756549e+01 9.2734790e+01 9.2713032e+01 9.2691273e+01 9.2669514e+01 9.2647755e+01 9.2646431e+01 9.2648596e+01 9.2650761e+01 9.2652926e+01 9.2655090e+01 9.2657255e+01 9.2659420e+01 9.2661585e+01 9.2663750e+01 9.2665915e+01 9.2668080e+01 9.2670245e+01 9.2672410e+01 9.2674574e+01 9.2676739e+01 9.2678904e+01 9.2681069e+01 9.2683234e+01 9.2685399e+01 9.2687564e+01 9.2689729e+01 9.2691894e+01 9.2694058e+01 9.2696223e+01 9.2635372e+01 9.2559979e+01 9.2484586e+01 9.2409193e+01 9.2333800e+01 9.2258407e+01 9.2183014e+01 9.2107621e+01 9.2032228e+01 9.1956835e+01 9.1881442e+01 9.1806048e+01 9.1730655e+01 9.1655262e+01 9.1579869e+01 9.1504476e+01 9.1429083e+01 9.1353690e+01 9.1278297e+01 9.1202904e+01 9.1127511e+01 9.1052118e+01 9.0976725e+01 9.0901332e+01 9.0873962e+01 9.0860870e+01 9.0847777e+01 9.0834685e+01 9.0821593e+01 9.0808500e+01 9.0795408e+01 9.0782316e+01 9.0769223e+01 9.0756131e+01 9.0743039e+01 9.0729946e+01 9.0716854e+01 9.0703762e+01 9.0690669e+01 9.0677577e+01 9.0664485e+01 9.0651392e+01 9.0638300e+01 9.0625208e+01 9.0612116e+01 9.0599023e+01 9.0585931e+01 9.0572839e+01 9.0568503e+01 9.0567420e+01 9.0566337e+01 9.0565255e+01 9.0564172e+01 9.0563089e+01 9.0562006e+01 9.0560923e+01 9.0559840e+01 9.0558758e+01 9.0557675e+01 9.0556592e+01 9.0555509e+01 9.0554426e+01 9.0553343e+01 9.0552261e+01 9.0551178e+01 9.0550095e+01 9.0549012e+01 9.0547929e+01 9.0546846e+01 9.0545764e+01 9.0544681e+01 9.0543598e+01 9.0524786e+01 9.0497916e+01 9.0471046e+01 9.0444176e+01 9.0417306e+01 9.0390437e+01 9.0363567e+01 9.0336697e+01 9.0309827e+01 9.0282957e+01 9.0256087e+01 9.0229217e+01 9.0202347e+01 9.0175477e+01 9.0148607e+01 9.0121737e+01 9.0094867e+01 9.0067997e+01 9.0041127e+01 9.0014257e+01 8.9987387e+01 8.9960517e+01 8.9933647e+01 8.9906777e+01 8.9897166e+01 8.9897021e+01 8.9896875e+01 8.9896730e+01 8.9896584e+01 8.9896439e+01 8.9896293e+01 8.9896148e+01 8.9896002e+01 8.9895857e+01 8.9895711e+01 8.9895566e+01 8.9895420e+01 8.9895275e+01 8.9895129e+01 8.9894984e+01 8.9894838e+01 8.9894693e+01 8.9894547e+01 8.9894402e+01 8.9894256e+01 8.9894111e+01 8.9893965e+01 8.9893820e+01 8.9864577e+01 8.9816270e+01 8.9767964e+01 8.9719657e+01 8.9671351e+01 8.9623045e+01 8.9574738e+01 8.9526432e+01 8.9478125e+01 8.9429819e+01 8.9381512e+01 8.9333206e+01 8.9284899e+01 8.9236593e+01 8.9188286e+01 8.9139980e+01 8.9091674e+01 8.9043367e+01 8.8995061e+01 8.8946754e+01 8.8898448e+01 8.8850141e+01 8.8801835e+01 8.8753528e+01 8.8718453e+01 8.8693669e+01 8.8668885e+01 8.8644101e+01 8.8619317e+01 8.8594532e+01 8.8569748e+01 8.8544964e+01 8.8520180e+01 8.8495396e+01 8.8470612e+01 8.8445827e+01 8.8421043e+01 8.8396259e+01 8.8371475e+01 8.8346691e+01 8.8321907e+01 8.8297122e+01 8.8272338e+01 8.8247554e+01 8.8222770e+01 8.8197986e+01 8.8173202e+01 8.8148417e+01 8.8125388e+01 8.8103974e+01 8.8082559e+01 8.8061144e+01 8.8039729e+01 8.8018315e+01 8.7996900e+01 8.7975485e+01 8.7954071e+01 8.7932656e+01 8.7911241e+01 8.7889827e+01 8.7868412e+01 8.7846997e+01 8.7825583e+01 8.7804168e+01 8.7782753e+01 8.7761338e+01 8.7739924e+01 8.7718509e+01 8.7697094e+01 8.7675680e+01 8.7654265e+01 8.7632850e+01 8.7617336e+01 8.7608234e+01 8.7599133e+01 8.7590032e+01 8.7580930e+01 8.7571829e+01 8.7562728e+01 8.7553626e+01 8.7544525e+01 8.7535424e+01 8.7526322e+01 8.7517221e+01 8.7508120e+01 8.7499018e+01 8.7489917e+01 8.7480816e+01 8.7471714e+01 8.7462613e+01 8.7453512e+01 8.7444410e+01 8.7435309e+01 8.7426208e+01 8.7417107e+01 8.7408005e+01 8.7379770e+01 8.7326935e+01 8.7274100e+01 8.7221265e+01 8.7168430e+01 8.7115595e+01 8.7062760e+01 8.7009925e+01 8.6957090e+01 8.6904255e+01 8.6851420e+01 8.6798585e+01 8.6745750e+01 8.6692915e+01 8.6640080e+01 8.6587245e+01 8.6534410e+01 8.6481575e+01 8.6428740e+01 8.6375905e+01 8.6323070e+01 8.6270235e+01 8.6217400e+01 8.6164565e+01 8.6121736e+01 8.6094177e+01 8.6066618e+01 8.6039059e+01 8.6011501e+01 8.5983942e+01 8.5956383e+01 8.5928824e+01 8.5901265e+01 8.5873707e+01 8.5846148e+01 8.5818589e+01 8.5791030e+01 8.5763472e+01 8.5735913e+01 8.5708354e+01 8.5680795e+01 8.5653236e+01 8.5625678e+01 8.5598119e+01 8.5570560e+01 8.5543001e+01 8.5515443e+01 8.5487884e+01 8.5454497e+01 8.5410484e+01 8.5366471e+01 8.5322457e+01 8.5278444e+01 8.5234430e+01 8.5190417e+01 8.5146404e+01 8.5102390e+01 8.5058377e+01 8.5014363e+01 8.4970350e+01 8.4926337e+01 8.4882323e+01 8.4838310e+01 8.4794297e+01 8.4750283e+01 8.4706270e+01 8.4662256e+01 8.4618243e+01 8.4574230e+01 8.4530216e+01 8.4486203e+01 8.4442189e+01 8.4426439e+01 8.4472865e+01 8.4519292e+01 8.4565718e+01 8.4612145e+01 8.4658571e+01 8.4704998e+01 8.4751424e+01 8.4797851e+01 8.4844278e+01 8.4890704e+01 8.4937131e+01 8.4983557e+01 8.5029984e+01 8.5076410e+01 8.5122837e+01 8.5169263e+01 8.5215690e+01 8.5262117e+01 8.5308543e+01 8.5354970e+01 8.5401396e+01 8.5447823e+01 8.5494249e+01 8.5522265e+01 8.5500711e+01 8.5479157e+01 8.5457604e+01 8.5436050e+01 8.5414497e+01 8.5392943e+01 8.5371390e+01 8.5349836e+01 8.5328282e+01 8.5306729e+01 8.5285175e+01 8.5263622e+01 8.5242068e+01 8.5220514e+01 8.5198961e+01 8.5177407e+01 8.5155854e+01 8.5134300e+01 8.5112746e+01 8.5091193e+01 8.5069639e+01 8.5048086e+01 8.5026532e+01 8.5022747e+01 8.5078727e+01 8.5134708e+01 8.5190689e+01 8.5246669e+01 8.5302650e+01 8.5358631e+01 8.5414611e+01 8.5470592e+01 8.5526573e+01 8.5582553e+01 8.5638534e+01 8.5694514e+01 8.5750495e+01 8.5806476e+01 8.5862456e+01 8.5918437e+01 8.5974418e+01 8.6030398e+01 8.6086379e+01 8.6142360e+01 8.6198340e+01 8.6254321e+01 8.6310302e+01 8.6358902e+01 8.6375522e+01 8.6392141e+01 8.6408761e+01 8.6425381e+01 8.6442000e+01 8.6458620e+01 8.6475240e+01 8.6491859e+01 8.6508479e+01 8.6525099e+01 8.6541718e+01 8.6558338e+01 8.6574957e+01 8.6591577e+01 8.6608197e+01 8.6624816e+01 8.6641436e+01 8.6658056e+01 8.6674675e+01 8.6691295e+01 8.6707915e+01 8.6724534e+01 8.6741154e+01 8.6756643e+01 8.6765510e+01 8.6774377e+01 8.6783244e+01 8.6792111e+01 8.6800978e+01 8.6809845e+01 8.6818712e+01 8.6827578e+01 8.6836445e+01 8.6845312e+01 8.6854179e+01 8.6863046e+01 8.6871913e+01 8.6880780e+01 8.6889647e+01 8.6898514e+01 8.6907381e+01 8.6916248e+01 8.6925115e+01 8.6933982e+01 8.6942849e+01 8.6951715e+01 8.6960582e+01 8.6970119e+01 8.6985414e+01 8.7000709e+01 8.7016004e+01 8.7031299e+01 8.7046594e+01 8.7061889e+01 8.7077184e+01 8.7092479e+01 8.7107775e+01 8.7123070e+01 8.7138365e+01 8.7153660e+01 8.7168955e+01 8.7184250e+01 8.7199545e+01 8.7214840e+01 8.7230135e+01 8.7245430e+01 8.7260725e+01 8.7276020e+01 8.7291315e+01 8.7306610e+01 8.7321905e+01 8.7337177e+01 8.7352094e+01 8.7367011e+01 8.7381928e+01 8.7396845e+01 8.7411763e+01 8.7426680e+01 8.7441597e+01 8.7456514e+01 8.7471431e+01 8.7486348e+01 8.7501265e+01 8.7516183e+01 8.7531100e+01 8.7546017e+01 8.7560934e+01 8.7575851e+01 8.7590768e+01 8.7605685e+01 8.7620603e+01 8.7635520e+01 8.7650437e+01 8.7665354e+01 8.7680271e+01 8.7695662e+01 8.7733315e+01 8.7770968e+01 8.7808621e+01 8.7846274e+01 8.7883927e+01 8.7921580e+01 8.7959233e+01 8.7996886e+01 8.8034539e+01 8.8072192e+01 8.8109845e+01 8.8147498e+01 8.8185151e+01 8.8222804e+01 8.8260457e+01 8.8298110e+01 8.8335763e+01 8.8373416e+01 8.8411069e+01 8.8448722e+01 8.8486375e+01 8.8524028e+01 8.8561681e+01 8.8599334e+01 8.8601438e+01 8.8602786e+01 8.8604134e+01 8.8605482e+01 8.8606830e+01 8.8608178e+01 8.8609526e+01 8.8610874e+01 8.8612222e+01 8.8613570e+01 8.8614918e+01 8.8616266e+01 8.8617614e+01 8.8618962e+01 8.8620310e+01 8.8621658e+01 8.8623006e+01 8.8624354e+01 8.8625702e+01 8.8627050e+01 8.8628398e+01 8.8629746e+01 8.8631094e+01 8.8632442e+01 8.8660826e+01 8.8691012e+01 8.8721198e+01 8.8751384e+01 8.8781569e+01 8.8811755e+01 8.8841941e+01 8.8872127e+01 8.8902313e+01 8.8932499e+01 8.8962685e+01 8.8992871e+01 8.9023056e+01 8.9053242e+01 8.9083428e+01 8.9113614e+01 8.9143800e+01 8.9173986e+01 8.9204172e+01 8.9234357e+01 8.9264543e+01 8.9294729e+01 8.9324915e+01 8.9355101e+01 8.9388879e+01 8.9423074e+01 8.9457270e+01 8.9491465e+01 8.9525661e+01 8.9559856e+01 8.9594051e+01 8.9628247e+01 8.9662442e+01 8.9696638e+01 8.9730833e+01 8.9765029e+01 8.9799224e+01 8.9833419e+01 8.9867615e+01 8.9901810e+01 8.9936006e+01 8.9970201e+01 9.0004397e+01 9.0038592e+01 9.0072788e+01 9.0106983e+01 9.0141178e+01 9.0175374e+01 9.0213385e+01 9.0252048e+01 9.0290711e+01 9.0329374e+01 9.0368037e+01 9.0406700e+01 9.0445363e+01 9.0484026e+01 9.0522690e+01 9.0561353e+01 9.0600016e+01 9.0638679e+01 9.0677342e+01 9.0716005e+01 9.0754668e+01 9.0793331e+01 9.0831994e+01 9.0870657e+01 9.0909320e+01 9.0947983e+01 9.0986646e+01 9.1025309e+01 9.1063972e+01 9.1102635e+01 9.1129029e+01 9.1152591e+01 9.1176154e+01 9.1199716e+01 9.1223279e+01 9.1246842e+01 9.1270404e+01 9.1293967e+01 9.1317529e+01 9.1341092e+01 9.1364654e+01 9.1388217e+01 9.1411780e+01 9.1435342e+01 9.1458905e+01 9.1482467e+01 9.1506030e+01 9.1529593e+01 9.1553155e+01 9.1576718e+01 9.1600280e+01 9.1623843e+01 9.1647406e+01 9.1670968e+01 9.1726716e+01 9.1792032e+01 9.1857348e+01 9.1922665e+01 9.1987981e+01 9.2053297e+01 9.2118613e+01 9.2183930e+01 9.2249246e+01 9.2314562e+01 9.2379879e+01 9.2445195e+01 9.2510511e+01 9.2575827e+01 9.2641144e+01 9.2706460e+01 9.2771776e+01 9.2837092e+01 9.2902409e+01 9.2967725e+01 9.3033041e+01 9.3098357e+01 9.3163674e+01 9.3228990e+01 9.3240301e+01 9.3231553e+01 9.3222806e+01 9.3214058e+01 9.3205310e+01 9.3196562e+01 9.3187815e+01 9.3179067e+01 9.3170319e+01 9.3161571e+01 9.3152824e+01 9.3144076e+01 9.3135328e+01 9.3126580e+01 9.3117832e+01 9.3109085e+01 9.3100337e+01 9.3091589e+01 9.3082841e+01 9.3074094e+01 9.3065346e+01 9.3056598e+01 9.3047850e+01 9.3039102e+01 9.3032624e+01 9.3027176e+01 9.3021729e+01 9.3016282e+01 9.3010834e+01 9.3005387e+01 9.2999940e+01 9.2994492e+01 9.2989045e+01 9.2983598e+01 9.2978150e+01 9.2972703e+01 9.2967256e+01 9.2961808e+01 9.2956361e+01 9.2950913e+01 9.2945466e+01 9.2940019e+01 9.2934571e+01 9.2929124e+01 9.2923677e+01 9.2918229e+01 9.2912782e+01 9.2907335e+01 9.2902598e+01 9.2898251e+01 9.2893904e+01 9.2889558e+01 9.2885211e+01 9.2880864e+01 9.2876517e+01 9.2872170e+01 9.2867823e+01 9.2863476e+01 9.2859130e+01 9.2854783e+01 9.2850436e+01 9.2846089e+01 9.2841742e+01 9.2837395e+01 9.2833048e+01 9.2828702e+01 9.2824355e+01 9.2820008e+01 9.2815661e+01 9.2811314e+01 9.2806967e+01 9.2802621e+01 9.2795012e+01 9.2785268e+01 9.2775523e+01 9.2765778e+01 9.2756033e+01 9.2746289e+01 9.2736544e+01 9.2726799e+01 9.2717054e+01 9.2707310e+01 9.2697565e+01 9.2687820e+01 9.2678075e+01 9.2668331e+01 9.2658586e+01 9.2648841e+01 9.2639096e+01 9.2629352e+01 9.2619607e+01 9.2609862e+01 9.2600117e+01 9.2590373e+01 9.2580628e+01 9.2570883e+01 9.2572712e+01 9.2583543e+01 9.2594373e+01 9.2605204e+01 9.2616034e+01 9.2626865e+01 9.2637695e+01 9.2648526e+01 9.2659356e+01 9.2670187e+01 9.2681018e+01 9.2691848e+01 9.2702679e+01 9.2713509e+01 9.2724340e+01 9.2735170e+01 9.2746001e+01 9.2756831e+01 9.2767662e+01 9.2778492e+01 9.2789323e+01 9.2800153e+01 9.2810984e+01 9.2821815e+01 9.2824744e+01 9.2820405e+01 9.2816065e+01 9.2811725e+01 9.2807386e+01 9.2803046e+01 9.2798707e+01 9.2794367e+01 9.2790028e+01 9.2785688e+01 9.2781349e+01 9.2777009e+01 9.2772670e+01 9.2768330e+01 9.2763991e+01 9.2759651e+01 9.2755312e+01 9.2750972e+01 9.2746633e+01 9.2742293e+01 9.2737954e+01 9.2733614e+01 9.2729275e+01 9.2724935e+01 9.2720600e+01 9.2716270e+01 9.2711941e+01 9.2707611e+01 9.2703281e+01 9.2698951e+01 9.2694622e+01 9.2690292e+01 9.2685962e+01 9.2681632e+01 9.2677302e+01 9.2672973e+01 9.2668643e+01 9.2664313e+01 9.2659983e+01 9.2655654e+01 9.2651324e+01 9.2646994e+01 9.2642664e+01 9.2638334e+01 9.2634005e+01 9.2629675e+01 9.2625345e+01 9.2621015e+01 9.2604042e+01 9.2570813e+01 9.2537584e+01 9.2504355e+01 9.2471126e+01 9.2437897e+01 9.2404668e+01 9.2371439e+01 9.2338210e+01 9.2304981e+01 9.2271752e+01 9.2238523e+01 9.2205294e+01 9.2172065e+01 9.2138836e+01 9.2105607e+01 9.2072378e+01 9.2039149e+01 9.2005920e+01 9.1972691e+01 9.1939462e+01 9.1906233e+01 9.1873004e+01 9.1839775e+01 9.1830634e+01 9.1858259e+01 9.1885885e+01 9.1913510e+01 9.1941135e+01 9.1968760e+01 9.1996385e+01 9.2024010e+01 9.2051635e+01 9.2079260e+01 9.2106885e+01 9.2134510e+01 9.2162135e+01 9.2189760e+01 9.2217385e+01 9.2245010e+01 9.2272635e+01 9.2300260e+01 9.2327886e+01 9.2355511e+01 9.2383136e+01 9.2410761e+01 9.2438386e+01 9.2466011e+01 9.2476330e+01 9.2455092e+01 9.2433853e+01 9.2412615e+01 9.2391376e+01 9.2370138e+01 9.2348899e+01 9.2327661e+01 9.2306422e+01 9.2285184e+01 9.2263946e+01 9.2242707e+01 9.2221469e+01 9.2200230e+01 9.2178992e+01 9.2157753e+01 9.2136515e+01 9.2115276e+01 9.2094038e+01 9.2072799e+01 9.2051561e+01 9.2030322e+01 9.2009084e+01 9.1987846e+01 9.1963862e+01 9.1933839e+01 9.1903817e+01 9.1873794e+01 9.1843771e+01 9.1813749e+01 9.1783726e+01 9.1753703e+01 9.1723680e+01 9.1693658e+01 9.1663635e+01 9.1633612e+01 9.1603590e+01 9.1573567e+01 9.1543544e+01 9.1513522e+01 9.1483499e+01 9.1453476e+01 9.1423453e+01 9.1393431e+01 9.1363408e+01 9.1333385e+01 9.1303363e+01 9.1273340e+01 9.1251557e+01 9.1251957e+01 9.1252356e+01 9.1252756e+01 9.1253156e+01 9.1253556e+01 9.1253956e+01 9.1254356e+01 9.1254756e+01 9.1255156e+01 9.1255555e+01 9.1255955e+01 9.1256355e+01 9.1256755e+01 9.1257155e+01 9.1257555e+01 9.1257955e+01 9.1258355e+01 9.1258754e+01 9.1259154e+01 9.1259554e+01 9.1259954e+01 9.1260354e+01 9.1260754e+01 9.1263474e+01 9.1274001e+01 9.1284528e+01 9.1295055e+01 9.1305581e+01 9.1316108e+01 9.1326635e+01 9.1337162e+01 9.1347689e+01 9.1358215e+01 9.1368742e+01 9.1379269e+01 9.1389796e+01 9.1400322e+01 9.1410849e+01 9.1421376e+01 9.1431903e+01 9.1442429e+01 9.1452956e+01 9.1463483e+01 9.1474010e+01 9.1484537e+01 9.1495063e+01 9.1505590e+01 9.1515730e+01 9.1524194e+01 9.1532657e+01 9.1541121e+01 9.1549584e+01 9.1558048e+01 9.1566511e+01 9.1574975e+01 9.1583438e+01 9.1591902e+01 9.1600365e+01 9.1608829e+01 9.1617293e+01 9.1625756e+01 9.1634220e+01 9.1642683e+01 9.1651147e+01 9.1659610e+01 9.1668074e+01 9.1676537e+01 9.1685001e+01 9.1693465e+01 9.1701928e+01 9.1710392e+01 9.1715772e+01 9.1703090e+01 9.1690409e+01 9.1677728e+01 9.1665047e+01 9.1652365e+01 9.1639684e+01 9.1627003e+01 9.1614322e+01 9.1601640e+01 9.1588959e+01 9.1576278e+01 9.1563596e+01 9.1550915e+01 9.1538234e+01 9.1525553e+01 9.1512871e+01 9.1500190e+01 9.1487509e+01 9.1474828e+01 9.1462146e+01 9.1449465e+01 9.1436784e+01 9.1424103e+01 9.1412732e+01 9.1412632e+01 9.1412531e+01 9.1412431e+01 9.1412331e+01 9.1412230e+01 9.1412130e+01 9.1412030e+01 9.1411929e+01 9.1411829e+01 9.1411729e+01 9.1411629e+01 9.1411528e+01 9.1411428e+01 9.1411328e+01 9.1411227e+01 9.1411127e+01 9.1411027e+01 9.1410926e+01 9.1410826e+01 9.1410726e+01 9.1410625e+01 9.1410525e+01 9.1410425e+01 9.1410733e+01 9.1417163e+01 9.1423593e+01 9.1430024e+01 9.1436454e+01 9.1442885e+01 9.1449315e+01 9.1455745e+01 9.1462176e+01 9.1468606e+01 9.1475037e+01 9.1481467e+01 9.1487897e+01 9.1494328e+01 9.1500758e+01 9.1507188e+01 9.1513619e+01 9.1520049e+01 9.1526480e+01 9.1532910e+01 9.1539340e+01 9.1545771e+01 9.1552201e+01 9.1558631e+01 9.1565024e+01 9.1569660e+01 9.1574295e+01 9.1578930e+01 9.1583566e+01 9.1588201e+01 9.1592836e+01 9.1597471e+01 9.1602107e+01 9.1606742e+01 9.1611377e+01 9.1616013e+01 9.1620648e+01 9.1625283e+01 9.1629918e+01 9.1634554e+01 9.1639189e+01 9.1643824e+01 9.1648460e+01 9.1653095e+01 9.1657730e+01 9.1662365e+01 9.1667001e+01 9.1671636e+01 9.1676271e+01 9.1679087e+01 9.1681863e+01 9.1684639e+01 9.1687416e+01 9.1690192e+01 9.1692969e+01 9.1695745e+01 9.1698522e+01 9.1701298e+01 9.1704075e+01 9.1706851e+01 9.1709628e+01 9.1712404e+01 9.1715181e+01 9.1717957e+01 9.1720734e+01 9.1723510e+01 9.1726287e+01 9.1729063e+01 9.1731840e+01 9.1734616e+01 9.1737393e+01 9.1740169e+01 9.1742946e+01 9.1711728e+01 9.1678243e+01 9.1644759e+01 9.1611274e+01 9.1577790e+01 9.1544306e+01 9.1510821e+01 9.1477337e+01 9.1443852e+01 9.1410368e+01 9.1376884e+01 9.1343399e+01 9.1309915e+01 9.1276430e+01 9.1242946e+01 9.1209462e+01 9.1175977e+01 9.1142493e+01 9.1109008e+01 9.1075524e+01 9.1042039e+01 9.1008555e+01 9.0975071e+01 9.0941586e+01 9.0947857e+01 9.0958751e+01 9.0969644e+01 9.0980538e+01 9.0991432e+01 9.1002325e+01 9.1013219e+01 9.1024113e+01 9.1035006e+01 9.1045900e+01 9.1056794e+01 9.1067687e+01 9.1078581e+01 9.1089475e+01 9.1100368e+01 9.1111262e+01 9.1122156e+01 9.1133049e+01 9.1143943e+01 9.1154837e+01 9.1165730e+01 9.1176624e+01 9.1187518e+01 9.1198411e+01 9.1220871e+01 9.1245305e+01 9.1269739e+01 9.1294174e+01 9.1318608e+01 9.1343042e+01 9.1367476e+01 9.1391911e+01 9.1416345e+01 9.1440779e+01 9.1465213e+01 9.1489647e+01 9.1514082e+01 9.1538516e+01 9.1562950e+01 9.1587384e+01 9.1611819e+01 9.1636253e+01 9.1660687e+01 9.1685121e+01 9.1709556e+01 9.1733990e+01 9.1758424e+01 9.1782858e+01 9.1788439e+01 9.1789669e+01 9.1790899e+01 9.1792129e+01 9.1793359e+01 9.1794589e+01 9.1795819e+01 9.1797049e+01 9.1798279e+01 9.1799509e+01 9.1800739e+01 9.1801969e+01 9.1803199e+01 9.1804429e+01 9.1805659e+01 9.1806889e+01 9.1808119e+01 9.1809349e+01 9.1810579e+01 9.1811809e+01 9.1813039e+01 9.1814268e+01 9.1815498e+01 9.1816728e+01 9.1810386e+01 9.1801793e+01 9.1793200e+01 9.1784607e+01 9.1776013e+01 9.1767420e+01 9.1758827e+01 9.1750234e+01 9.1741640e+01 9.1733047e+01 9.1724454e+01 9.1715861e+01 9.1707268e+01 9.1698674e+01 9.1690081e+01 9.1681488e+01 9.1672895e+01 9.1664301e+01 9.1655708e+01 9.1647115e+01 9.1638522e+01 9.1629928e+01 9.1621335e+01 9.1612742e+01 9.1490919e+01 9.1327039e+01 9.1163159e+01 9.0999279e+01 9.0835400e+01 9.0671520e+01 9.0507640e+01 9.0343760e+01 9.0179880e+01 9.0016000e+01 8.9852121e+01 8.9688241e+01 8.9524361e+01 8.9360481e+01 8.9196601e+01 8.9032721e+01 8.8868842e+01 8.8704962e+01 8.8541082e+01 8.8377202e+01 8.8213322e+01 8.8049442e+01 8.7885563e+01 8.7721683e+01 8.7650054e+01 8.7620358e+01 8.7590662e+01 8.7560965e+01 8.7531269e+01 8.7501573e+01 8.7471876e+01 8.7442180e+01 8.7412484e+01 8.7382787e+01 8.7353091e+01 8.7323395e+01 8.7293699e+01 8.7264002e+01 8.7234306e+01 8.7204610e+01 8.7174913e+01 8.7145217e+01 8.7115521e+01 8.7085824e+01 8.7056128e+01 8.7026432e+01 8.6996735e+01 8.6967039e+01 8.6921836e+01 8.6868130e+01 8.6814424e+01 8.6760718e+01 8.6707011e+01 8.6653305e+01 8.6599599e+01 8.6545893e+01 8.6492186e+01 8.6438480e+01 8.6384774e+01 8.6331068e+01 8.6277362e+01 8.6223655e+01 8.6169949e+01 8.6116243e+01 8.6062537e+01 8.6008830e+01 8.5955124e+01 8.5901418e+01 8.5847712e+01 8.5794005e+01 8.5740299e+01 8.5686593e+01 8.5596373e+01 8.5482230e+01 8.5368087e+01 8.5253945e+01 8.5139802e+01 8.5025659e+01 8.4911516e+01 8.4797374e+01 8.4683231e+01 8.4569088e+01 8.4454945e+01 8.4340803e+01 8.4226660e+01 8.4112517e+01 8.3998374e+01 8.3884232e+01 8.3770089e+01 8.3655946e+01 8.3541803e+01 8.3427661e+01 8.3313518e+01 8.3199375e+01 8.3085232e+01 8.2971090e+01 8.2923781e+01 8.2928453e+01 8.2933126e+01 8.2937798e+01 8.2942471e+01 8.2947144e+01 8.2951816e+01 8.2956489e+01 8.2961162e+01 8.2965834e+01 8.2970507e+01 8.2975180e+01 8.2979852e+01 8.2984525e+01 8.2989197e+01 8.2993870e+01 8.2998543e+01 8.3003215e+01 8.3007888e+01 8.3012561e+01 8.3017233e+01 8.3021906e+01 8.3026579e+01 8.3031251e+01 8.3031004e+01 8.3026231e+01 8.3021458e+01 8.3016685e+01 8.3011912e+01 8.3007139e+01 8.3002366e+01 8.2997593e+01 8.2992820e+01 8.2988047e+01 8.2983274e+01 8.2978501e+01 8.2973728e+01 8.2968955e+01 8.2964182e+01 8.2959409e+01 8.2954636e+01 8.2949863e+01 8.2945090e+01 8.2940318e+01 8.2935545e+01 8.2930772e+01 8.2925999e+01 8.2921226e+01 8.2913515e+01 8.2902612e+01 8.2891709e+01 8.2880806e+01 8.2869903e+01 8.2859000e+01 8.2848097e+01 8.2837194e+01 8.2826291e+01 8.2815388e+01 8.2804485e+01 8.2793582e+01 8.2782679e+01 8.2771776e+01 8.2760873e+01 8.2749970e+01 8.2739067e+01 8.2728164e+01 8.2717261e+01 8.2706358e+01 8.2695455e+01 8.2684552e+01 8.2673649e+01 8.2662745e+01 8.2665984e+01 8.2687405e+01 8.2708826e+01 8.2730247e+01 8.2751669e+01 8.2773090e+01 8.2794511e+01 8.2815932e+01 8.2837353e+01 8.2858774e+01 8.2880195e+01 8.2901616e+01 8.2923037e+01 8.2944458e+01 8.2965879e+01 8.2987300e+01 8.3008721e+01 8.3030142e+01 8.3051564e+01 8.3072985e+01 8.3094406e+01 8.3115827e+01 8.3137248e+01 8.3158669e+01 8.3205058e+01 8.3289555e+01 8.3374052e+01 8.3458550e+01 8.3543047e+01 8.3627544e+01 8.3712042e+01 8.3796539e+01 8.3881036e+01 8.3965534e+01 8.4050031e+01 8.4134528e+01 8.4219026e+01 8.4303523e+01 8.4388020e+01 8.4472518e+01 8.4557015e+01 8.4641512e+01 8.4726009e+01 8.4810507e+01 8.4895004e+01 8.4979501e+01 8.5063999e+01 8.5148496e+01 8.5212319e+01 8.5238440e+01 8.5264561e+01 8.5290682e+01 8.5316803e+01 8.5342924e+01 8.5369045e+01 8.5395166e+01 8.5421288e+01 8.5447409e+01 8.5473530e+01 8.5499651e+01 8.5525772e+01 8.5551893e+01 8.5578014e+01 8.5604135e+01 8.5630257e+01 8.5656378e+01 8.5682499e+01 8.5708620e+01 8.5734741e+01 8.5760862e+01 8.5786983e+01 8.5813104e+01 8.5831778e+01 8.5834065e+01 8.5836352e+01 8.5838640e+01 8.5840927e+01 8.5843215e+01 8.5845502e+01 8.5847790e+01 8.5850077e+01 8.5852365e+01 8.5854652e+01 8.5856940e+01 8.5859227e+01 8.5861515e+01 8.5863802e+01 8.5866090e+01 8.5868377e+01 8.5870665e+01 8.5872952e+01 8.5875240e+01 8.5877527e+01 8.5879815e+01 8.5882102e+01 8.5884390e+01 8.5889393e+01 8.5901708e+01 8.5914023e+01 8.5926338e+01 8.5938653e+01 8.5950968e+01 8.5963283e+01 8.5975598e+01 8.5987913e+01 8.6000228e+01 8.6012543e+01 8.6024858e+01 8.6037173e+01 8.6049488e+01 8.6061804e+01 8.6074119e+01 8.6086434e+01 8.6098749e+01 8.6111064e+01 8.6123379e+01 8.6135694e+01 8.6148009e+01 8.6160324e+01 8.6172639e+01 8.6180013e+01 8.6170769e+01 8.6161525e+01 8.6152280e+01 8.6143036e+01 8.6133792e+01 8.6124548e+01 8.6115304e+01 8.6106059e+01 8.6096815e+01 8.6087571e+01 8.6078327e+01 8.6069083e+01 8.6059838e+01 8.6050594e+01 8.6041350e+01 8.6032106e+01 8.6022862e+01 8.6013617e+01 8.6004373e+01 8.5995129e+01 8.5985885e+01 8.5976641e+01 8.5967396e+01 8.5962779e+01 8.5978213e+01 8.5993646e+01 8.6009080e+01 8.6024514e+01 8.6039947e+01 8.6055381e+01 8.6070815e+01 8.6086248e+01 8.6101682e+01 8.6117115e+01 8.6132549e+01 8.6147983e+01 8.6163416e+01 8.6178850e+01 8.6194283e+01 8.6209717e+01 8.6225151e+01 8.6240584e+01 8.6256018e+01 8.6271452e+01 8.6286885e+01 8.6302319e+01 8.6317752e+01 8.6362068e+01 8.6575551e+01 8.6789033e+01 8.7002516e+01 8.7215999e+01 8.7429482e+01 8.7642964e+01 8.7856447e+01 8.8069930e+01 8.8283412e+01 8.8496895e+01 8.8710378e+01 8.8923860e+01 8.9137343e+01 8.9350826e+01 8.9564308e+01 8.9777791e+01 8.9991274e+01 9.0204756e+01 9.0418239e+01 9.0631722e+01 9.0845204e+01 9.1058687e+01 9.1272170e+01 9.1464947e+01 9.1479654e+01 9.1494362e+01 9.1509070e+01 9.1523777e+01 9.1538485e+01 9.1553192e+01 9.1567900e+01 9.1582608e+01 9.1597315e+01 9.1612023e+01 9.1626730e+01 9.1641438e+01 9.1656146e+01 9.1670853e+01 9.1685561e+01 9.1700269e+01 9.1714976e+01 9.1729684e+01 9.1744391e+01 9.1759099e+01 9.1773807e+01 9.1788514e+01 9.1803222e+01 9.1820748e+01 9.1880543e+01 9.1940338e+01 9.2000133e+01 9.2059928e+01 9.2119723e+01 9.2179518e+01 9.2239313e+01 9.2299109e+01 9.2358904e+01 9.2418699e+01 9.2478494e+01 9.2538289e+01 9.2598084e+01 9.2657879e+01 9.2717675e+01 9.2777470e+01 9.2837265e+01 9.2897060e+01 9.2956855e+01 9.3016650e+01 9.3076445e+01 9.3136240e+01 9.3196036e+01 9.3253899e+01 9.3220968e+01 9.3188037e+01 9.3155107e+01 9.3122176e+01 9.3089245e+01 9.3056314e+01 9.3023384e+01 9.2990453e+01 9.2957522e+01 9.2924591e+01 9.2891661e+01 9.2858730e+01 9.2825799e+01 9.2792868e+01 9.2759938e+01 9.2727007e+01 9.2694076e+01 9.2661145e+01 9.2628215e+01 9.2595284e+01 9.2562353e+01 9.2529422e+01 9.2496492e+01 9.2463561e+01 9.2484097e+01 9.2505770e+01 9.2527443e+01 9.2549117e+01 9.2570790e+01 9.2592464e+01 9.2614137e+01 9.2635810e+01 9.2657484e+01 9.2679157e+01 9.2700830e+01 9.2722504e+01 9.2744177e+01 9.2765851e+01 9.2787524e+01 9.2809197e+01 9.2830871e+01 9.2852544e+01 9.2874218e+01 9.2895891e+01 9.2917564e+01 9.2939238e+01 9.2960911e+01 9.2982585e+01 9.2984961e+01 9.2986051e+01 9.2987141e+01 9.2988231e+01 9.2989321e+01 9.2990412e+01 9.2991502e+01 9.2992592e+01 9.2993682e+01 9.2994772e+01 9.2995862e+01 9.2996952e+01 9.2998042e+01 9.2999132e+01 9.3000222e+01 9.3001312e+01 9.3002402e+01 9.3003493e+01 9.3004583e+01 9.3005673e+01 9.3006763e+01 9.3007853e+01 9.3008943e+01 9.3010033e+01 9.3006244e+01 9.3001887e+01 9.2997530e+01 9.2993174e+01 9.2988817e+01 9.2984460e+01 9.2980104e+01 9.2975747e+01 9.2971391e+01 9.2967034e+01 9.2962677e+01 9.2958321e+01 9.2953964e+01 9.2949607e+01 9.2945251e+01 9.2940894e+01 9.2936537e+01 9.2932181e+01 9.2927824e+01 9.2923467e+01 9.2919111e+01 9.2914754e+01 9.2910397e+01 9.2906041e+01 9.2894292e+01 9.2881280e+01 9.2868269e+01 9.2855258e+01 9.2842246e+01 9.2829235e+01 9.2816224e+01 9.2803213e+01 9.2790201e+01 9.2777190e+01 9.2764179e+01 9.2751168e+01 9.2738156e+01 9.2725145e+01 9.2712134e+01 9.2699122e+01 9.2686111e+01 9.2673100e+01 9.2660089e+01 9.2647077e+01 9.2634066e+01 9.2621055e+01 9.2608043e+01 9.2595032e+01 9.2585584e+01 9.2576959e+01 9.2568333e+01 9.2559707e+01 9.2551082e+01 9.2542456e+01 9.2533831e+01 9.2525205e+01 9.2516579e+01 9.2507954e+01 9.2499328e+01 9.2490702e+01 9.2482077e+01 9.2473451e+01 9.2464826e+01 9.2456200e+01 9.2447574e+01 9.2438949e+01 9.2430323e+01 9.2421698e+01 9.2413072e+01 9.2404446e+01 9.2395821e+01 9.2387195e+01 9.2393534e+01 9.2404322e+01 9.2415110e+01 9.2425898e+01 9.2436686e+01 9.2447475e+01 9.2458263e+01 9.2469051e+01 9.2479839e+01 9.2490627e+01 9.2501415e+01 9.2512203e+01 9.2522991e+01 9.2533779e+01 9.2544567e+01 9.2555355e+01 9.2566143e+01 9.2576931e+01 9.2587720e+01 9.2598508e+01 9.2609296e+01 9.2620084e+01 9.2630872e+01 9.2641660e+01 9.2642217e+01 9.2638974e+01 9.2635732e+01 9.2632489e+01 9.2629246e+01 9.2626003e+01 9.2622761e+01 9.2619518e+01 9.2616275e+01 9.2613032e+01 9.2609789e+01 9.2606547e+01 9.2603304e+01 9.2600061e+01 9.2596818e+01 9.2593576e+01 9.2590333e+01 9.2587090e+01 9.2583847e+01 9.2580604e+01 9.2577362e+01 9.2574119e+01 9.2570876e+01 9.2567633e+01 9.2574066e+01 9.2584896e+01 9.2595727e+01 9.2606558e+01 9.2617388e+01 9.2628219e+01 9.2639049e+01 9.2649880e+01 9.2660710e+01 9.2671541e+01 9.2682371e+01 9.2693202e+01 9.2704032e+01 9.2714863e+01 9.2725694e+01 9.2736524e+01 9.2747355e+01 9.2758185e+01 9.2769016e+01 9.2779846e+01 9.2790677e+01 9.2801507e+01 9.2812338e+01 9.2823168e+01 9.2823502e+01 9.2818079e+01 9.2812656e+01 9.2807233e+01 9.2801810e+01 9.2796388e+01 9.2790965e+01 9.2785542e+01 9.2780119e+01 9.2774696e+01 9.2769273e+01 9.2763850e+01 9.2758427e+01 9.2753005e+01 9.2747582e+01 9.2742159e+01 9.2736736e+01 9.2731313e+01 9.2725890e+01 9.2720467e+01 9.2715044e+01 9.2709622e+01 9.2704199e+01 9.2698776e+01 9.2700562e+01 9.2707071e+01 9.2713580e+01 9.2720090e+01 9.2726599e+01 9.2733108e+01 9.2739618e+01 9.2746127e+01 9.2752636e+01 9.2759145e+01 9.2765655e+01 9.2772164e+01 9.2778673e+01 9.2785183e+01 9.2791692e+01 9.2798201e+01 9.2804710e+01 9.2811220e+01 9.2817729e+01 9.2824238e+01 9.2830748e+01 9.2837257e+01 9.2843766e+01 9.2850275e+01 9.2850071e+01 9.2844645e+01 9.2839219e+01 9.2833793e+01 9.2828367e+01 9.2822942e+01 9.2817516e+01 9.2812090e+01 9.2806664e+01 9.2801238e+01 9.2795812e+01 9.2790386e+01 9.2784960e+01 9.2779534e+01 9.2774108e+01 9.2768682e+01 9.2763256e+01 9.2757830e+01 9.2752404e+01 9.2746979e+01 9.2741553e+01 9.2736127e+01 9.2730701e+01 9.2725275e+01 9.2734598e+01 9.2757490e+01 9.2780382e+01 9.2803274e+01 9.2826166e+01 9.2849058e+01 9.2871950e+01 9.2894841e+01 9.2917733e+01 9.2940625e+01 9.2963517e+01 9.2986409e+01 9.3009301e+01 9.3032193e+01 9.3055085e+01 9.3077977e+01 9.3100869e+01 9.3123761e+01 9.3146653e+01 9.3169545e+01 9.3192437e+01 9.3215329e+01 9.3238221e+01 9.3261113e+01 9.3266230e+01 9.3252027e+01 9.3237824e+01 9.3223621e+01 9.3209417e+01 9.3195214e+01 9.3181011e+01 9.3166808e+01 9.3152605e+01 9.3138402e+01 9.3124199e+01 9.3109995e+01 9.3095792e+01 9.3081589e+01 9.3067386e+01 9.3053183e+01 9.3038980e+01 9.3024777e+01 9.3010574e+01 9.2996370e+01 9.2982167e+01 9.2967964e+01 9.2953761e+01 9.2939558e+01 9.2935387e+01 9.2944115e+01 9.2952843e+01 9.2961571e+01 9.2970299e+01 9.2979027e+01 9.2987755e+01 9.2996483e+01 9.3005212e+01 9.3013940e+01 9.3022668e+01 9.3031396e+01 9.3040124e+01 9.3048852e+01 9.3057580e+01 9.3066308e+01 9.3075036e+01 9.3083764e+01 9.3092492e+01 9.3101220e+01 9.3109948e+01 9.3118676e+01 9.3127404e+01 9.3136132e+01 9.3136659e+01 9.3124668e+01 9.3112677e+01 9.3100686e+01 9.3088695e+01 9.3076704e+01 9.3064713e+01 9.3052723e+01 9.3040732e+01 9.3028741e+01 9.3016750e+01 9.3004759e+01 9.2992768e+01 9.2980777e+01 9.2968786e+01 9.2956795e+01 9.2944804e+01 9.2932813e+01 9.2920822e+01 9.2908831e+01 9.2896840e+01 9.2884849e+01 9.2872858e+01 9.2860867e+01 9.2856983e+01 9.2867881e+01 9.2878778e+01 9.2889676e+01 9.2900574e+01 9.2911472e+01 9.2922370e+01 9.2933267e+01 9.2944165e+01 9.2955063e+01 9.2965961e+01 9.2976859e+01 9.2987756e+01 9.2998654e+01 9.3009552e+01 9.3020450e+01 9.3031347e+01 9.3042245e+01 9.3053143e+01 9.3064041e+01 9.3074939e+01 9.3085836e+01 9.3096734e+01 9.3107632e+01 9.3118530e+01 9.3129427e+01 9.3140325e+01 9.3151223e+01 9.3162121e+01 9.3173019e+01 9.3183916e+01 9.3194814e+01 9.3205712e+01 9.3216610e+01 9.3227508e+01 9.3238405e+01 9.3249303e+01 9.3260201e+01 9.3271099e+01 9.3281996e+01 9.3292894e+01 9.3303792e+01 9.3314690e+01 9.3325588e+01 9.3336485e+01 9.3347383e+01 9.3358281e+01 9.3369179e+01 9.3380077e+01 9.3390974e+01 9.3401872e+01 9.3412770e+01 9.3423668e+01 9.3434565e+01 9.3445463e+01 9.3456361e+01 9.3467259e+01 9.3478157e+01 9.3489054e+01 9.3499952e+01 9.3510850e+01 9.3521748e+01 9.3532646e+01 9.3543543e+01 9.3554441e+01 9.3565339e+01 9.3576237e+01 9.3587134e+01 9.3598032e+01 9.3608930e+01 9.3619828e+01 9.3630726e+01 9.3641623e+01 9.3652521e+01 9.3663419e+01 9.3674317e+01 9.3685215e+01 9.3696112e+01 9.3707010e+01 9.3717908e+01 9.3728806e+01 9.3739703e+01 9.3750601e+01 9.3761499e+01 9.3772397e+01 9.3783295e+01 9.3794192e+01 9.3805090e+01 9.3815988e+01 9.3826886e+01 9.3837784e+01 9.3848681e+01 9.3859579e+01 9.3870477e+01 9.3881375e+01 9.3892272e+01 9.3903170e+01 9.3914068e+01 9.3924966e+01 9.3935864e+01 9.3946761e+01 9.3957659e+01 9.3968557e+01 9.3979455e+01 9.3990353e+01 9.4001250e+01 9.4012148e+01 9.4023046e+01 9.4033944e+01 9.4044841e+01 9.4055739e+01 9.4066637e+01 9.4077535e+01 9.4088433e+01 9.4099330e+01 9.4110228e+01 9.4121126e+01 9.4132024e+01 9.4142921e+01 9.4153819e+01 9.4164717e+01 9.4175615e+01 9.4186513e+01 9.4197410e+01 9.4208308e+01 9.4219206e+01 9.4230104e+01 9.4241002e+01 9.4251899e+01 9.4262797e+01 9.4273695e+01 9.4284593e+01 9.4295490e+01 9.4306388e+01 9.4317286e+01 9.4328184e+01 9.4339082e+01 9.4349979e+01 9.4360877e+01 9.4371775e+01 9.4382673e+01 9.4393571e+01 9.4404468e+01 9.4415366e+01 9.4426264e+01 9.4437162e+01 9.4448059e+01 9.4458957e+01 9.4469855e+01 9.4480753e+01 9.4491651e+01 9.4502548e+01 9.4513446e+01 9.4524344e+01 9.4535242e+01 9.4546140e+01 9.4557037e+01 9.4567935e+01 9.4578833e+01 9.4589731e+01 9.4600628e+01 9.4611526e+01 9.4622424e+01 9.4633322e+01 9.4644220e+01 9.4655117e+01 9.4666015e+01 9.4676913e+01 9.4687811e+01 9.4698709e+01 9.4709606e+01 9.4720504e+01 9.4731402e+01 9.4742300e+01 9.4753197e+01 9.4764095e+01 9.4774993e+01 9.4785891e+01 9.4796789e+01 9.4807686e+01 9.4818584e+01 9.4829482e+01 9.4840380e+01 9.4851278e+01 9.4862175e+01 9.4873073e+01 9.4883971e+01 9.4894869e+01 9.4905766e+01 9.4916664e+01 9.4927562e+01 9.4938460e+01 9.4949358e+01 9.4960255e+01 9.4971153e+01 9.4982051e+01 9.4992949e+01 9.5003846e+01 9.5014744e+01 9.5025642e+01 9.5036540e+01 9.5047438e+01 9.5058335e+01 9.5069233e+01 9.5080131e+01
