27
23
20
16
12
7
2
-3
-5
-8
-10
-12
-13
-15
-18
-19
-23
-25
-29
-32
-35
-38
-42
-44
-48
-52
-54
-59
-62
-64
-65
-67
-65
-62
-55
-50
-44
-38
-34
-29
-25
-22
-17
-9
0
8
17
22
26
26
25
23
20
17
15
12
11
10
7
5
2
1
-2
-3
-4
-4
-7
-10
-17
-23
-20
-7
30
92
185
301
417
502
520
455
317
143
-18
-133
-188
-193
-169
-142
-117
-99
-88
-78
-72
-63
-54
-47
-40
-35
-32
-28
-24
-19
-12
-4
2
10
15
18
18
17
16
13
10
8
7
5
3
1
-2
-4
-4
-7
-7
-7
-5
-4
-4
-4
-7
-8
-10
-12
-14
-17
-18
-19
-20
-22
-22
-20
-19
-17
-15
-13
-13
-12
-12
-12
-12
-14
-13
-13
-12
-9
-8
-8
-7
-8
-8
-8
-5
-2
5
12
18
23
25
25
23
21
17
13
11
7
5
2
0
-2
-3
-5
-7
-8
-9
-10
-12
-13
-14
-14
-14
-15
-18
-19
-22
-25
-27
-29
-30
-32
-33
-34
-35
-38
-39
-43
-45
-50
-54
-58
-60
-62
-62
-59
-55
-49
-43
-38
-33
-30
-29
-28
-25
-20
-14
-5
3
11
16
16
13
12
17
37
80
146
240
352
456
518
510
423
275
103
-42
-134
-167
-155
-124
-90
-65
-48
-38
-32
-30
-30
-30
-32
-33
-34
-35
-35
-38
-40
-44
-48
-53
-57
-60
-64
-65
-64
-62
-57
-49
-42
-35
-29
-24
-22
-19
-19
-15
-10
-4
3
12
20
25
27
27
25
22
18
16
13
10
8
6
6
5
5
6
6
8
11
15
18
21
22
22
21
18
15
11
6
3
-2
-5
-10
-15
-19
-23
-27
-29
-34
-39
-45
-52
-58
-63
-67
-69
-70
-69
-67
-62
-57
-49
-43
-38
-35
-34
-33
-30
-27
-19
-10
-2
7
13
17
20
20
18
16
15
13
12
10
8
7
7
6
5
3
1
0
-2
-3
-4
-5
-8
-10
-12
-14
-15
-17
-18
-19
-20
-23
-24
-27
-29
-32
-35
-38
-43
-47
-50
-54
-58
-60
-64
-69
-69
-60
-39
2
67
162
277
393
478
503
450
327
171
21
-83
-133
-133
-108
-77
-49
-30
-19
-12
-8
-7
-7
-7
-9
-10
-10
-12
-14
-15
-17
-18
-19
-19
-19
-19
-19
-19
-23
-25
-28
-30
-33
-35
-37
-38
-39
-42
-44
-45
-47
-49
-52
-54
-54
-55
-54
-50
-47
-42
-35
-30
-27
-24
-23
-22
-20
-15
-8
3
13
26
37
45
52
56
57
56
52
47
41
33
28
22
17
13
10
6
3
1
0
-3
-7
-9
-13
-17
-20
-22
-23
-24
-27
-28
-30
-32
-32
-32
-33
-34
-35
-38
-40
-44
-47
-50
-53
-54
-58
-60
-63
-63
-62
-58
-53
-47
-39
-34
-32
-29
-27
-23
-18
-10
-2
6
12
16
18
18
17
16
13
11
10
8
8
8
7
6
5
3
1
-2
-9
-15
-19
-10
15
66
147
258
381
487
540
515
408
248
78
-58
-142
-172
-162
-138
-114
-95
-83
-77
-73
-72
-70
-68
-64
-58
-50
-43
-37
-33
-29
-27
-24
-22
-17
-9
-2
7
15
21
23
25
23
21
18
16
13
12
10
8
6
5
5
5
3
2
1
0
-3
-5
-9
-12
-15
-18
-19
-20
-22
-23
-22
-19
-17
-13
-9
-7
-5
-4
-5
-9
-13
-17
-23
-28
-32
-37
-39
-40
-39
-37
-33
-29
-25
-23
-22
-19
-18
-14
-9
-3
2
6
8
10
10
8
6
5
2
1
0
0
-2
-2
-2
-2
-2
-3
-4
-5
-8
-12
-14
-15
-19
-20
-23
-24
-25
-27
-27
-28
-28
-30
-30
-32
-34
-35
-39
-43
-47
-50
-53
-57
-59
-60
-60
-58
-54
-49
-42
-35
-30
-27
-25
-23
-19
-13
-5
2
8
12
11
13
22
46
92
166
268
386
490
546
526
423
266
95
-47
-130
-157
-140
-109
-77
-54
-38
-29
-25
-23
-23
-23
-23
-24
-27
-29
-32
-33
-35
-38
-40
-44
-48
-52
-55
-58
-60
-60
-59
-57
-52
-47
-39
-32
-25
-20
-17
-14
-10
-5
0
8
17
23
28
30
27
23
21
17
13
11
8
7
6
6
6
7
10
12
15
20
23
27
28
30
28
27
25
21
16
11
6
1
-4
-5
-9
-13
-15
-19
-23
-28
-33
-39
-45
-50
-55
-58
-60
-62
-60
-58
-53
-48
-42
-35
-30
-27
-24
-20
-15
-8
0
8
17
25
27
28
27
25
23
21
18
18
17
15
13
11
8
6
3
0
0
-3
-4
-4
-7
-7
-8
-9
-12
-13
-15
-17
-19
-22
-24
-25
-28
-30
-34
-37
-40
-44
-49
-53
-55
-57
-57
-55
-53
-48
-43
-38
-35
-35
-38
-38
-27
1
53
136
245
368
476
536
517
416
258
87
-53
-135
-159
-140
-105
-72
-48
-33
-25
-20
-19
-20
-20
-22
-23
-24
-24
-25
-25
-28
-29
-30
-34
-37
-38
-39
-43
-45
-48
-49
-52
-54
-57
-59
-62
-63
-63
-62
-59
-53
-45
-38
-30
-23
-19
-17
-14
-13
-10
-5
-2
5
11
15
17
18
18
17
16
17
18
20
23
27
30
32
33
33
33
31
27
23
18
13
10
5
1
0
-3
-5
-8
-9
-13
-17
-20
-23
-27
-30
-34
-38
-43
-47
-52
-55
-60
-64
-67
-69
-70
-69
-65
-62
-55
-48
-42
-37
-34
-30
-27
-22
-14
-5
3
12
20
25
26
26
25
22
20
17
15
12
11
10
7
6
5
5
3
2
0
-4
-10
-15
-19
-17
3
42
107
202
316
423
490
487
403
257
87
-60
-157
-194
-189
-162
-133
-109
-95
-85
-79
-73
-65
-58
-49
-43
-37
-33
-30
-27
-22
-15
-7
2
8
15
17
18
18
17
15
13
11
10
8
7
7
7
7
7
7
6
5
3
1
0
-4
-5
-8
-10
-13
-17
-19
-22
-23
-25
-25
-25
-25
-24
-23
-20
-19
-18
-17
-17
-18
-19
-22
-23
-23
-23
-22
-19
-17
-14
-14
-15
-15
-15
-12
-7
1
7
13
15
16
15
13
12
10
6
3
1
0
-2
-4
-4
-5
-7
-7
-8
-9
-9
-10
-12
-14
-15
-18
-20
-23
-23
-24
-25
-27
-28
-29
-30
-32
-33
-34
-35
-37
-40
-45
-49
-55
-60
-64
-67
-67
-64
-60
-55
-48
-40
-35
-33
-30
-29
-25
-20
-13
-4
5
12
18
22
23
23
22
20
18
16
15
13
12
11
11
10
10
8
5
0
-8
-12
-8
13
56
127
226
342
446
508
500
410
261
96
-45
-137
-173
-168
-144
-119
-100
-88
-80
-78
-77
-75
-75
-70
-65
-58
-50
-44
-39
-35
-33
-32
-29
-23
-15
-7
3
10
15
18
17
15
12
8
7
5
5
3
3
3
3
2
1
0
-3
-4
-5
-8
-10
-13
-17
-19
-23
-24
-25
-27
-28
-28
-27
-25
-23
-19
-15
-13
-10
-10
-13
-14
-19
-23
-25
-28
-32
-33
-34
-35
-34
-29
-24
-19
-14
-12
-10
-9
-9
-7
-3
3
7
12
16
18
18
18
16
12
10
8
6
5
5
3
5
3
2
2
-2
-4
-7
-10
-12
-14
-15
-14
-15
-15
-17
-18
-19
-20
-23
-24
-27
-28
-30
-33
-35
-39
-44
-49
-54
-58
-60
-63
-63
-63
-59
-55
-50
-44
-38
-34
-33
-34
-39
-39
-28
-2
48
128
236
360
473
542
540
453
303
131
-19
-120
-159
-153
-124
-89
-62
-43
-30
-24
-22
-20
-20
-22
-22
-22
-23
-23
-25
-25
-27
-27
-28
-29
-32
-33
-34
-35
-37
-38
-42
-45
-49
-54
-58
-60
-59
-58
-54
-48
-40
-33
-25
-19
-15
-13
-12
-10
-8
-4
0
6
12
15
18
21
22
25
26
28
30
33
37
41
43
45
45
41
37
31
23
17
11
6
1
-3
-7
-9
-12
-14
-15
-18
-20
-23
-25
-28
-30
-33
-35
-38
-39
-42
-43
-45
-48
-52
-53
-54
-55
-54
-53
-49
-44
-39
-32
-25
-22
-19
-18
-18
-15
-13
-5
2
11
17
23
25
26
26
25
22
20
17
15
12
11
10
8
6
5
3
0
-2
-3
-4
-5
-7
-8
-9
-10
-12
-13
-17
-23
-30
-34
-32
-13
28
96
192
306
411
475
466
377
226
55
-89
-182
-213
-198
-160
-122
-89
-65
-50
-40
-33
-27
-18
-10
-2
6
12
16
16
15
13
11
8
7
6
3
2
1
0
-2
-3
-4
-5
-7
-8
-9
-9
-10
-12
-10
-12
-12
-13
-13
-13
-15
-17
-18
-20
-24
-28
-32
-35
-38
-42
-45
-48
-48
-47
-44
-38
-30
-20
-10
0
8
16
20
21
22
23
26
30
36
41
45
46
46
42
37
32
26
22
17
12
10
6
2
0
-4
-7
-10
-10
-13
-13
-14
-14
-15
-17
-18
-19
-20
-22
-22
-23
-23
-24
-25
-28
-30
-33
-34
-38
-40
-42
-45
-49
-52
-54
-57
-59
-59
-58
-54
-49
-43
-37
-33
-29
-28
-25
-22
-17
-9
1
10
17
22
25
23
22
20
18
16
13
12
11
10
8
7
6
3
1
-4
-10
-14
-15
-8
20
75
157
267
387
486
527
490
372
206
38
-92
-163
-180
-164
-135
-112
-95
-85
-80
-78
-75
-73
-69
-63
-55
-48
-42
-37
-33
-30
-28
-24
-19
-14
-7
0
7
11
12
11
10
7
5
3
2
1
0
0
-2
-3
-3
-4
-4
-5
-7
-10
-13
-15
-18
-20
-23
-24
-25
-27
-28
-28
-27
-25
-23
-20
-18
-15
-13
-10
-9
-10
-13
-15
-19
-22
-24
-24
-24
-23
-19
-15
-12
-9
-8
-7
-5
-3
0
5
11
17
21
23
25
21
20
16
13
11
8
6
3
0
-2
-3
-4
-5
-8
-10
-12
-13
-14
-14
-15
-17
-17
-18
-19
-19
-20
-22
-22
-23
-23
-25
-27
-28
-30
-34
-38
-42
-47
-50
-54
-58
-58
-58
-55
-50
-44
-38
-33
-32
-35
-38
-35
-22
8
66
152
265
390
496
550
525
420
258
85
-53
-135
-157
-138
-103
-70
-45
-30
-22
-18
-17
-17
-19
-20
-23
-24
-24
-24
-24
-25
-25
-27
-29
-30
-33
-35
-38
-42
-44
-47
-49
-53
-55
-57
-59
-62
-62
-62
-58
-53
-47
-39
-32
-24
-18
-14
-13
-13
-12
-10
-5
0
6
12
17
21
25
27
28
31
35
37
38
41
42
41
40
37
33
27
21
16
10
3
1
-3
-5
-8
-10
-13
-15
-19
-20
-24
-27
-30
-33
-35
-38
-42
-44
-48
-50
-54
-58
-62
-64
-67
-68
-67
-65
-63
-59
-55
-50
-44
-42
-38
-35
-33
-27
-20
-13
-4
3
10
16
20
20
18
17
15
12
11
11
8
8
6
5
3
3
2
1
0
-2
-4
-8
-13
-20
-27
-29
-20
3
51
126
230
346
447
500
480
380
225
55
-85
-174
-207
-198
-172
-143
-119
-99
-84
-73
-62
-53
-47
-42
-38
-35
-33
-28
-20
-13
-3
5
11
12
13
13
12
10
10
8
8
7
6
6
5
3
3
2
2
1
0
-3
-5
-7
-10
-12
-13
-15
-17
-19
-22
-24
-27
-28
-29
-30
-30
-29
-28
-27
-24
-22
-22
-19
-18
-18
-18
-18
-18
-17
-14
-12
-9
-7
-7
-8
-9
-13
-13
-12
-7
-2
5
10
11
11
11
10
10
7
6
3
2
2
1
0
-2
-3
-5
-7
-9
-9
-10
-12
-12
-13
-15
-18
-19
-22
-23
-24
-25
-28
-29
-30
-32
-34
-35
-37
-39
-43
-45
-50
-54
-57
-60
-62
-63
-63
-62
-57
-52
-44
-39
-34
-30
-28
-27
-24
-19
-13
-3
6
15
21
23
25
23
18
11
6
2
8
33
81
157
260
377
480
533
512
412
256
87
-52
-138
-165
-153
-125
-94
-73
-57
-47
-42
-40
-38
-38
-38
-40
-42
-45
-49
-53
-57
-60
-63
-64
-64
-64
-62
-57
-50
-44
-38
-33
-29
-27
-25
-22
-17
-9
-2
7
16
21
23
23
22
20
17
15
12
10
7
6
3
1
0
-2
-3
-3
-4
-3
-2
1
5
8
11
15
17
18
17
16
13
8
5
-2
-7
-12
-17
-22
-27
-30
-34
-40
-45
-50
-54
-57
-58
-57
-55
-50
-47
-42
-37
-33
-30
-28
-24
-19
-12
-3
5
12
20
25
27
27
26
22
20
17
13
11
10
8
7
5
3
3
2
1
1
0
-2
-4
-5
-7
-8
-9
-10
-12
-14
-17
-18
-20
-23
-25
-28
-30
-33
-35
-39
-43
-47
-52
-57
-63
-69
-73
-65
-43
0
70
170
287
406
488
505
443
311
148
1
-98
-140
-133
-103
-69
-42
-23
-10
-4
-2
0
-2
-2
-3
-4
-5
-8
-9
-10
-12
-13
-15
-17
-18
-19
-19
-20
-23
-24
-28
-30
-33
-34
-35
-37
-37
-38
-39
-43
-45
-48
-50
-53
-54
-55
-57
-55
-53
-50
-45
-40
-37
-34
-32
-29
-24
-18
-8
3
16
28
40
48
55
57
56
55
51
47
42
37
32
27
23
18
15
10
6
3
1
0
-2
-4
-5
-7
-9
-12
-15
-19
-23
-25
-28
-29
-29
-30
-30
-32
-33
-37
-39
-43
-47
-50
-54
-57
-58
-59
-58
-57
-52
-45
-39
-35
-30
-27
-23
-19
-13
-5
3
12
20
25
28
28
26
20
13
10
8
8
8
8
7
5
2
1
-4
-7
-10
-15
-23
-30
-33
-27
0
51
131
238
362
468
523
500
395
233
58
-83
-167
-194
-182
-153
-127
-107
-93
-85
-82
-77
-73
-67
-60
-53
-47
-42
-38
-35
-32
-27
-22
-13
-5
2
7
10
10
8
7
5
1
0
0
0
1
1
1
0
-4
-5
-7
-7
-9
-9
-13
-15
-18
-20
-23
-24
-24
-25
-25
-25
-24
-24
-24
-24
-22
-19
-17
-13
-12
-10
-13
-17
-19
-23
-28
-29
-29
-27
-24
-22
-19
-18
-19
-18
-17
-13
-8
-2
5
11
16
17
18
18
17
15
12
10
6
3
2
0
-3
-4
-4
-4
-5
-7
-9
-10
-13
-15
-17
-18
-19
-20
-23
-25
-25
-27
-28
-29
-30
-30
-30
-33
-35
-37
-40
-43
-47
-50
-54
-57
-59
-59
-55
-52
-45
-39
-33
-28
-25
-25
-29
-32
-30
-22
2
47
117
212
330
448
536
560
503
371
201
35
-87
-148
-157
-132
-98
-67
-44
-30
-23
-20
-20
-20
-22
-20
-20
-19
-19
-18
-19
-20
-22
-24
-25
-28
-30
-33
-37
-40
-43
-47
-49
-52
-53
-54
-55
-55
-53
-48
-42
-35
-28
-22
-18
-17
-17
-15
-14
-10
-5
0
5
8
11
13
15
16
17
21
25
27
32
36
38
41
41
38
36
32
27
22
16
11
6
0
-4
-7
-12
-14
-18
-19
-22
-23
-25
-28
-30
-34
-37
-40
-43
-47
-50
-54
-58
-62
-64
-67
-69
-68
-67
-63
-57
-50
-44
-37
-32
-27
-24
-22
-20
-17
-12
-5
2
10
16
21
23
23
22
21
18
17
15
13
12
10
8
7
5
5
3
2
1
0
-2
-4
-7
-8
-10
-12
-13
-14
-15
-17
-18
-22
-24
-27
-29
-32
-37
-44
-53
-60
-62
-47
-10
53
148
268
387
472
493
431
298
130
-24
-134
-184
-184
-155
-117
-79
-48
-23
-7
2
6
6
5
3
1
0
-2
-2
-2
-3
-4
-5
-7
-8
-8
-9
-9
-9
-10
-12
-13
-14
-14
-15
-17
-17
-19
-22
-23
-24
-25
-25
-27
-30
-33
-38
-43
-47
-52
-57
-60
-63
-64
-64
-63
-59
-53
-45
-34
-24
-13
-5
3
11
18
26
32
38
45
50
51
51
48
43
38
32
27
21
16
12
8
5
2
0
-3
-5
-7
-10
-12
-14
-15
-17
-18
-18
-18
-18
-19
-19
-19
-20
-20
-22
-22
-23
-25
-27
-29
-30
-34
-35
-39
-43
-48
-54
-58
-60
-62
-60
-57
-50
-44
-38
-32
-27
-23
-22
-20
-17
-13
-7
1
8
16
20
23
23
23
22
20
17
16
13
11
10
8
7
5
1
-5
-12
-14
-4
26
81
167
281
407
510
555
518
402
235
62
-73
-152
-174
-163
-135
-109
-89
-75
-70
-67
-67
-68
-68
-69
-67
-63
-57
-50
-43
-35
-30
-27
-25
-24
-22
-18
-13
-4
5
12
18
22
23
23
22
20
18
16
15
15
15
13
12
10
7
5
1
-4
-8
-10
-13
-14
-15
-18
-19
-19
-19
-18
-17
-14
-12
-7
-2
2
5
6
5
2
-2
-7
-12
-15
-22
-27
-32
-34
-35
-35
-33
-29
-25
-22
-19
-18
-17
-15
-13
-10
-4
3
11
17
21
23
23
22
21
18
17
16
13
13
12
11
10
7
6
3
1
0
-3
-4
-7
-8
-10
-12
-13
-14
-13
-14
-14
-17
-18
-20
-22
-24
-25
-27
-29
-32
-35
-39
-43
-47
-50
-52
-53
-52
-48
-43
-37
-32
-27
-23
-20
-18
-15
-10
-4
5
13
21
27
30
30
27
25
21
18
16
15
13
12
10
8
7
6
5
3
2
1
0
-3
-4
-5
-7
-8
-9
-10
-12
-13
-14
-15
-14
-15
-18
-20
-24
-32
-40
-50
-53
-45
-17
41
128
243
365
458
492
445
320
156
-3
-118
-173
-174
-143
-102
-63
-33
-12
2
7
10
8
6
3
1
-2
-3
-4
-7
-8
-9
-10
-12
-13
-14
-14
-15
-17
-18
-20
-22
-23
-23
-24
-25
-25
-27
-27
-29
-30
-33
-35
-37
-39
-42
-44
-48
-52
-57
-60
-64
-67
-68
-67
-64
-60
-54
-48
-42
-35
-29
-22
-14
-4
8
22
37
50
58
65
66
66
63
58
55
50
45
40
36
31
27
25
21
17
13
10
7
5
1
-3
-5
-8
-10
-12
-14
-17
-19
-20
-22
-24
-25
-27
-28
-29
-32
-33
-35
-38
-42
-44
-47
-49
-50
-52
-50
-49
-45
-39
-34
-29
-24
-23
-20
-19
-14
-9
0
8
17
25
27
28
26
23
21
18
17
16
15
13
13
12
10
7
6
3
2
0
-2
-7
-10
-17
-22
-17
0
40
107
203
321
435
508
512
433
286
111
-44
-150
-194
-194
-169
-140
-115
-98
-87
-78
-69
-62
-55
-49
-43
-38
-35
-32
-28
-23
-17
-8
0
6
11
13
13
12
11
10
7
7
6
5
3
2
2
1
1
1
1
1
1
0
-3
-4
-7
-10
-13
-17
-20
-23
-27
-28
-30
-32
-33
-33
-33
-33
-30
-28
-25
-23
-20
-19
-19
-20
-20
-20
-20
-18
-15
-13
-12
-12
-10
-10
-10
-9
-7
-2
3
8
12
15
16
15
13
11
11
10
7
6
5
3
2
1
-2
-3
-4
-5
-7
-9
-10
-10
-12
-13
-15
-17
-19
-20
-22
-24
-24
-27
-27
-29
-30
-32
-32
-33
-34
-37
-39
-43
-47
-52
-54
-57
-58
-58
-57
-53
-49
-43
-35
-29
-24
-20
-18
-14
-9
-3
5
12
18
23
26
25
22
20
17
15
13
12
12
11
10
10
8
7
6
5
2
1
-2
-3
-4
-5
-7
-7
-7
-8
-9
-10
-12
-14
-15
-18
-19
-20
-23
-24
-28
-33
-43
-53
-60
-62
-47
-8
58
157
280
403
490
507
441
301
131
-23
-127
-169
-162
-127
-87
-53
-27
-10
0
5
6
6
6
6
3
2
0
-3
-5
-8
-9
-9
-10
-12
-14
-17
-19
-20
-23
-23
-24
-25
-27
-28
-28
-30
-30
-30
-33
-34
-37
-39
-42
-44
-48
-52
-54
-58
-63
-67
-69
-70
-69
-68
-64
-60
-54
-49
-43
-37
-32
-24
-17
-7
3
17
30
40
46
48
50
47
43
40
35
31
26
22
17
15
12
10
6
3
2
-2
-5
-9
-13
-17
-19
-20
-22
-23
-24
-24
-25
-25
-27
-28
-29
-30
-30
-32
-34
-35
-37
-42
-45
-48
-52
-55
-57
-58
-57
-54
-50
-45
-39
-34
-29
-25
-23
-20
-18
-15
-9
-2
5
13
21
25
27
27
25
21
17
16
13
12
11
7
1
-5
-10
-5
12
53
123
223
346
466
547
557
483
338
162
2
-107
-158
-162
-139
-112
-89
-72
-63
-59
-58
-58
-59
-62
-64
-67
-68
-68
-67
-63
-58
-52
-47
-39
-34
-30
-28
-25
-22
-18
-10
-3
5
13
20
23
23
22
20
17
16
13
13
12
11
8
5
2
-2
-5
-7
-10
-13
-15
-18
-20
-22
-22
-22
-19
-17
-12
-7
-4
0
2
3
2
1
-3
-7
-12
-19
-25
-32
-38
-44
-49
-53
-53
-54
-50
-47
-40
-35
-32
-29
-28
-27
-24
-20
-14
-7
2
11
17
21
22
21
20
18
16
15
13
12
11
11
10
7
5
2
0
-4
-5
-9
-10
-12
-12
-12
-12
-14
-14
-15
-18
-19
-22
-24
-25
-27
-29
-30
-32
-34
-37
-39
-43
-48
-50
-54
-55
-55
-54
-50
-44
-38
-32
-28
-25
-25
-29
-30
-27
-8
31
97
191
312
440
542
583
543
421
250
77
-54
-127
-144
-125
-94
-65
-44
-30
-23
-19
-18
-18
-19
-20
-22
-23
-24
-24
-25
-25
-27
-28
-30
-33
-35
-39
-40
-44
-45
-48
-50
-54
-57
-59
-59
-60
-59
-57
-50
-43
-34
-28
-22
-17
-15
-13
-13
-10
-5
0
7
13
17
18
18
18
17
16
16
18
21
25
27
30
31
31
31
30
27
23
21
16
11
6
3
-2
-4
-5
-8
-10
-12
-14
-17
-20
-23
-27
-30
-33
-37
-39
-43
-47
-50
-54
-58
-60
-63
-64
-65
-63
-60
-57
-50
-45
-39
-35
-33
-30
-27
-20
-12
-3
6
15
20
22
23
22
20
17
15
13
12
10
7
5
3
1
1
-2
-3
-4
-5
-8
-10
-14
-22
-28
-30
-23
3
55
136
246
370
472
525
496
386
218
43
-99
-183
-209
-195
-167
-138
-114
-97
-84
-73
-63
-54
-48
-42
-38
-34
-32
-27
-20
-13
-5
3
10
13
16
15
13
11
8
6
5
5
3
3
1
-3
-4
-7
-9
-10
-10
-12
-13
-14
-15
-17
-18
-19
-22
-24
-28
-30
-32
-34
-34
-35
-34
-34
-32
-30
-28
-25
-24
-23
-23
-23
-23
-22
-20
-18
-13
-9
-8
-8
-8
-10
-12
-12
-8
-3
5
10
13
17
18
17
15
12
10
8
7
7
6
5
2
0
-3
-5
-8
-9
-10
-12
-13
-14
-15
-15
-17
-17
-18
-19
-20
-23
-24
-27
-28
-30
-32
-33
-34
-37
-39
-42
-45
-49
-54
-55
-58
-58
-57
-54
-50
-45
-39
-34
-29
-25
-24
-22
-18
-13
-5
2
8
16
21
22
21
15
10
7
10
31
73
142
238
355
462
528
522
436
287
117
-30
-127
-164
-158
-130
-100
-75
-58
-45
-39
-37
-35
-38
-38
-39
-42
-43
-45
-48
-52
-54
-58
-62
-64
-65
-65
-64
-60
-55
-49
-42
-34
-29
-24
-22
-19
-17
-13
-8
0
7
15
20
23
23
22
20
18
16
12
10
8
7
5
2
1
0
0
1
2
6
8
12
16
20
23
25
26
23
21
16
11
6
1
-4
-9
-17
-22
-28
-34
-38
-43
-47
-48
-52
-54
-58
-60
-62
-62
-59
-55
-50
-44
-39
-35
-33
-33
-30
-28
-22
-14
-4
5
12
16
18
20
18
16
13
11
10
8
7
7
7
7
5
5
2
0
-2
-4
-5
-8
-9
-12
-14
-17
-18
-18
-18
-18
-19
-20
-22
-24
-27
-29
-33
-35
-40
-44
-50
-54
-57
-58
-58
-59
-62
-64
-64
-59
-42
-7
51
137
250
372
476
527
500
395
240
78
-50
-123
-142
-124
-94
-65
-42
-25
-15
-10
-8
-7
-8
-8
-9
-10
-10
-10
-12
-13
-13
-14
-15
-15
-17
-18
-19
-20
-24
-25
-29
-32
-34
-37
-38
-39
-42
-43
-47
-50
-53
-55
-57
-58
-57
-55
-53
-50
-45
-40
-35
-33
-32
-30
-29
-27
-22
-14
-3
6
18
28
37
43
48
50
51
48
43
38
33
27
21
15
10
6
2
-2
-5
-8
-10
-12
-14
-17
-19
-22
-23
-24
-27
-27
-28
-29
-29
-30
-32
-33
-33
-34
-35
-38
-39
-42
-44
-48
-52
-55
-58
-59
-60
-59
-54
-49
-43
-37
-32
-27
-23
-20
-17
-12
-5
2
8
16
21
25
25
23
21
17
15
13
12
10
8
7
6
3
2
1
-2
-5
-12
-19
-19
-9
21
78
167
283
406
506
546
505
383
215
43
-88
-163
-183
-168
-140
-114
-94
-80
-72
-69
-68
-69
-69
-68
-64
-58
-49
-42
-35
-30
-28
-27
-23
-17
-10
-3
5
12
16
18
18
16
15
13
11
10
8
11
13
16
17
17
12
5
-5
-14
-22
-27
-28
-28
-27
-28
-28
-28
-28
-28
-27
-25
-22
-19
-15
-13
-10
-8
-7
-7
-8
-10
-15
-20
-25
-30
-34
-37
-37
-33
-28
-23
-17
-10
-5
-3
0
1
1
0
-2
0
2
5
7
10
11
11
11
10
10
8
8
8
8
8
8
8
10
13
20
27
32
31
22
7
-9
-27
-39
-44
-45
-43
-40
-37
-35
-33
-33
-34
-37
-39
-42
-45
-49
-52
-54
-53
-50
-45
-40
-37
-34
-30
-23
-14
-4
1
0
-8
-20
-32
-38
-38
-29
-13
13
57
123
218
335
453
541
565
508
380
215
57
-57
-119
-135
-125
-104
-84
-67
-52
-42
-37
-35
-35
-35
-34
-33
-33
-33
-34
-35
-38
-39
-42
-42
-43
-44
-45
-49
-54
-60
-64
-65
-64
-62
-57
-50
-44
-39
-33
-28
-22
-17
-12
-7
0
6
15
23
30
33
32
25
16
7
2
1
2
5
8
13
16
18
21
25
30
32
35
33
32
30
28
27
23
18
13
7
5
1
-4
-12
-19
-27
-33
-37
-38
-39
-42
-45
-49
-50
-52
-50
-50
-53
-54
-55
-55
-53
-48
-44
-43
-43
-43
-40
-35
-27
-17
-5
5
12
16
18
18
18
17
15
13
13
13
12
11
7
5
2
1
1
1
2
2
1
-2
-7
-10
-15
-20
-25
-28
-30
-30
-29
-30
-30
-32
-34
-35
-38
-40
-44
-49
-54
-60
-64
-69
-73
-75
-73
-62
-32
18
98
207
330
441
503
493
405
258
97
-34
-114
-138
-123
-92
-63
-40
-25
-15
-8
-5
-4
-4
-4
-5
-8
-9
-10
-12
-13
-14
-15
-17
-18
-19
-20
-22
-22
-22
-23
-23
-25
-28
-32
-34
-38
-39
-42
-43
-45
-48
-50
-52
-53
-54
-57
-58
-59
-57
-53
-48
-42
-37
-33
-32
-32
-29
-25
-17
-7
7
21
33
45
52
56
56
55
50
43
37
31
26
21
17
13
12
8
6
5
1
-2
-5
-9
-13
-17
-19
-22
-25
-28
-29
-32
-33
-34
-34
-34
-34
-34
-34
-35
-38
-43
-47
-50
-55
-58
-60
-63
-65
-65
-65
-64
-60
-55
-50
-44
-38
-33
-28
-25
-22
-17
-10
-3
5
11
16
17
18
18
17
17
16
15
13
12
11
8
6
3
0
-5
-12
-18
-23
-18
2
46
120
226
351
471
547
550
468
317
141
-17
-124
-173
-177
-155
-129
-108
-93
-85
-82
-82
-82
-80
-79
-78
-73
-67
-59
-52
-45
-42
-38
-35
-34
-30
-25
-18
-9
0
7
12
13
16
15
12
8
7
3
3
3
3
5
5
5
2
1
-3
-8
-12
-15
-19
-23
-25
-28
-30
-30
-30
-29
-25
-20
-15
-12
-7
-4
-3
-3
-4
-8
-12
-17
-23
-30
-37
-43
-47
-52
-53
-53
-49
-45
-39
-34
-30
-28
-28
-29
-27
-23
-18
-9
0
7
11
16
17
17
16
15
13
13
13
13
13
12
11
8
7
5
3
1
-2
-4
-7
-8
-10
-10
-12
-12
-13
-14
-14
-17
-18
-19
-20
-22
-24
-27
-29
-32
-35
-40
-44
-48
-52
-53
-54
-55
-53
-49
-44
-38
-32
-27
-24
-24
-27
-29
-30
-19
10
63
148
260
387
506
576
570
478
323
145
-8
-107
-145
-138
-110
-80
-55
-37
-25
-20
-18
-17
-17
-18
-19
-20
-22
-22
-22
-22
-22
-22
-23
-24
-27
-29
-32
-33
-35
-38
-40
-44
-47
-50
-52
-53
-53
-50
-45
-39
-32
-25
-19
-15
-13
-13
-13
-13
-10
-5
1
7
12
15
15
15
15
15
16
18
21
25
30
33
37
40
40
38
36
33
28
25
20
16
11
7
5
1
0
-3
-7
-8
-12
-15
-20
-24
-28
-33
-35
-39
-43
-45
-49
-52
-55
-59
-60
-62
-62
-59
-54
-49
-42
-34
-28
-22
-19
-17
-14
-12
-5
2
11
20
26
30
30
30
28
26
23
20
17
13
12
8
7
5
2
2
1
-2
-3
-5
-7
-9
-9
-10
-10
-10
-12
-14
-17
-18
-20
-22
-24
-25
-27
-29
-32
-35
-38
-43
-47
-53
-60
-68
-70
-64
-39
7
83
188
313
431
506
508
428
285
118
-24
-113
-140
-125
-90
-57
-32
-17
-8
-7
-5
-5
-5
-5
-7
-7
-7
-8
-9
-10
-13
-14
-15
-17
-18
-19
-20
-22
-23
-25
-28
-30
-32
-33
-34
-35
-38
-38
-40
-42
-43
-45
-48
-52
-54
-57
-58
-58
-57
-54
-50
-45
-40
-37
-35
-33
-30
-25
-18
-8
3
16
28
38
45
50
51
48
47
43
38
35
30
26
22
18
15
12
7
5
2
0
-2
-3
-7
-9
-12
-14
-15
-19
-22
-24
-27
-29
-30
-32
-34
-37
-39
-42
-44
-47
-52
-54
-58
-60
-63
-65
-64
-63
-59
-52
-45
-40
-34
-30
-28
-25
-20
-13
-4
3
12
20
25
26
26
25
22
20
17
16
15
13
12
11
8
7
5
2
-3
-9
-14
-12
2
40
103
200
318
440
526
545
480
340
165
1
-115
-170
-175
-153
-125
-103
-88
-80
-78
-75
-75
-74
-72
-67
-62
-54
-48
-43
-39
-37
-34
-33
-28
-20
-12
-4
2
8
11
11
10
7
5
5
2
2
2
1
1
0
0
0
-3
-5
-7
-9
-13
-15
-18
-19
-22
-24
-25
-28
-29
-29
-28
-25
-23
-19
-15
-13
-9
-7
-7
-9
-13
-17
-23
-28
-32
-35
-35
-35
-33
-28
-23
-20
-18
-17
-15
-13
-10
-7
0
5
12
16
20
20
18
17
13
11
8
7
6
6
5
5
3
2
1
0
0
-3
-5
-7
-9
-10
-13
-15
-15
-17
-18
-18
-18
-19
-19
-20
-23
-25
-28
-30
-34
-37
-42
-45
-49
-53
-57
-58
-58
-55
-52
-45
-39
-35
-34
-37
-39
-35
-18
21
88
186
306
427
516
540
480
346
172
10
-104
-158
-158
-128
-92
-62
-40
-27
-19
-15
-15
-15
-17
-18
-19
-19
-22
-23
-23
-24
-25
-27
-28
-30
-32
-33
-35
-37
-38
-40
-43
-47
-49
-52
-54
-55
-58
-58
-55
-53
-47
-40
-32
-25
-20
-18
-17
-17
-17
-14
-8
-2
7
13
20
25
27
30
32
36
38
42
46
47
48
48
47
45
41
37
31
25
18
12
8
2
-2
-5
-8
-10
-13
-14
-18
-22
-24
-27
-32
-35
-39
-43
-45
-47
-50
-53
-57
-60
-63
-67
-68
-68
-68
-65
-60
-55
-49
-43
-38
-33
-30
-29
-28
-24
-18
-10
-2
7
13
18
22
23
22
20
17
15
13
13
12
10
8
6
5
2
2
1
1
0
-2
-4
-4
-7
-9
-10
-12
-13
-15
-17
-19
-23
-29
-37
-45
-48
-42
-18
27
102
202
316
413
461
433
331
177
17
-108
-177
-192
-170
-138
-104
-78
-58
-40
-27
-15
-4
5
10
12
13
13
12
10
8
6
6
5
5
3
2
0
-2
-4
-7
-8
-9
-9
-9
-9
-12
-12
-14
-15
-19
-22
-24
-25
-27
-27
-28
-29
-33
-37
-40
-45
-52
-57
-60
-64
-67
-67
-64
-58
-49
-37
-25
-13
-3
6
11
13
17
20
23
27
31
35
37
37
35
31
25
20
16
13
11
11
8
5
1
-3
-5
-8
-9
-12
-13
-14
-15
-17
-18
-19
-20
-22
-22
-23
-24
-24
-25
-27
-28
-29
-29
-32
-32
-33
-34
-39
-44
-48
-54
-58
-62
-64
-64
-64
-63
-59
-55
-49
-43
-37
-33
-30
-30
-28
-24
-18
-10
-2
7
13
17
18
20
18
17
16
15
13
11
10
8
6
3
-3
-10
-13
-5
20
70
152
262
383
487
540
513
408
248
77
-59
-144
-172
-162
-137
-110
-89
-74
-68
-65
-65
-68
-72
-74
-75
-75
-73
-69
-63
-54
-47
-39
-34
-30
-29
-27
-25
-20
-14
-5
2
8
15
18
20
20
18
17
16
16
15
13
11
8
6
3
0
-3
-7
-10
-13
-15
-18
-19
-20
-22
-20
-19
-18
-14
-10
-8
-4
0
3
5
6
3
0
-4
-8
-14
-20
-27
-33
-38
-40
-43
-42
-40
-35
-32
-28
-25
-24
-23
-22
-22
-18
-13
-7
1
8
16
20
23
22
22
22
21
20
20
18
17
16
15
13
11
10
7
5
5
3
1
0
0
0
-3
-3
-4
-7
-10
-10
-13
-17
-19
-22
-23
-25
-29
-32
-35
-39
-43
-47
-49
-52
-54
-54
-53
-50
-45
-40
-34
-28
-24
-20
-19
-17
-13
-7
1
11
20
25
26
22
15
11
15
36
82
157
263
383
490
548
531
433
275
103
-39
-127
-157
-145
-115
-87
-64
-49
-40
-37
-34
-34
-34
-35
-37
-38
-40
-42
-44
-47
-50
-53
-57
-59
-63
-65
-65
-65
-63
-58
-52
-47
-39
-35
-32
-30
-27
-25
-19
-13
-3
7
16
23
27
26
23
18
13
10
5
1
-2
-3
-4
-7
-7
-7
-7
-4
-2
2
6
11
15
17
20
21
21
17
15
11
6
1
-4
-9
-13
-17
-18
-22
-25
-29
-34
-39
-44
-49
-53
-55
-57
-55
-53
-48
-43
-37
-30
-27
-24
-23
-20
-15
-9
0
8
17
25
28
30
27
26
22
20
16
13
12
10
7
6
7
6
5
2
2
0
-2
-2
-3
-4
-7
-8
-9
-12
-12
-13
-15
-17
-19
-20
-23
-25
-29
-32
-34
-38
-42
-48
-57
-67
-72
-68
-49
-9
61
161
281
397
476
487
417
278
113
-32
-125
-158
-143
-105
-65
-37
-19
-9
-4
-3
-2
-2
-3
-4
-5
-7
-8
-8
-10
-12
-12
-12
-13
-14
-15
-17
-18
-19
-22
-24
-25
-27
-28
-29
-32
-32
-33
-34
-37
-39
-40
-43
-45
-48
-52
-53
-54
-54
-53
-49
-44
-38
-33
-29
-27
-24
-20
-14
-7
6
20
32
43
52
57
60
57
53
50
45
40
36
31
26
22
17
13
8
5
2
0
-4
-5
-8
-10
-13
-15
-18
-20
-22
-23
-24
-27
-28
-30
-32
-33
-35
-37
-38
-42
-44
-47
-52
-55
-59
-60
-63
-62
-60
-55
-50
-43
-37
-30
-25
-23
-19
-15
-9
-3
7
16
23
27
30
30
27
25
22
21
18
17
15
12
10
8
6
3
-2
-5
-9
-8
3
37
95
182
295
412
503
532
481
352
183
17
-104
-168
-178
-157
-127
-103
-88
-79
-75
-73
-74
-73
-70
-65
-60
-55
-49
-43
-39
-35
-33
-32
-29
-24
-19
-13
-7
0
5
8
10
10
8
6
3
1
-2
-2
-3
-2
0
-2
-2
-2
-3
-4
-7
-10
-13
-15
-19
-22
-23
-24
-23
-23
-22
-19
-17
-15
-12
-8
-5
-4
-4
-4
-8
-13
-17
-22
-27
-32
-37
-39
-40
-39
-35
-30
-25
-20
-18
-17
-18
-18
-15
-12
-7
0
6
10
12
15
15
13
12
11
7
6
6
5
5
2
0
-2
-4
-5
-7
-8
-9
-10
-13
-17
-18
-18
-20
-20
-19
-20
-20
-20
-23
-25
-28
-30
-33
-35
-38
-42
-44
-48
-52
-57
-59
-60
-62
-62
-63
-63
-60
-54
-34
3
62
148
260
376
468
506
463
350
192
37
-79
-139
-148
-125
-93
-64
-42
-25
-17
-13
-12
-10
-10
-10
-10
-12
-13
-14
-15
-17
-18
-18
-19
-19
-22
-24
-25
-25
-27
-28
-29
-30
-33
-37
-39
-43
-47
-50
-54
-58
-59
-59
-57
-53
-49
-44
-39
-35
-30
-28
-25
-24
-23
-22
-18
-12
-2
8
18
28
37
46
52
56
58
56
53
51
46
41
36
28
22
16
8
3
-2
-7
-8
-10
-12
-13
-14
-17
-19
-20
-22
-23
-27
-27
-28
-29
-29
-30
-32
-34
-37
-40
-43
-47
-49
-52
-55
-57
-59
-59
-59
-58
-57
-52
-48
-43
-39
-34
-32
-29
-27
-23
-17
-9
1
7
15
17
18
18
16
13
12
12
11
11
10
8
7
6
5
3
1
-2
-3
-5
-7
-8
-9
-13
-18
-24
-29
-25
-4
38
112
213
333
442
506
497
406
251
76
-77
-175
-215
-212
-184
-152
-123
-100
-82
-67
-54
-45
-39
-35
-33
-30
-28
-23
-15
-8
0
6
11
13
15
13
12
11
10
8
7
6
6
5
3
3
2
1
0
0
1
0
0
-3
-5
-9
-10
-14
-17
-20
-24
-27
-28
-30
-30
-32
-33
-33
-33
-30
-29
-27
-23
-20
-17
-14
-12
-9
-8
-5
-3
-2
0
0
1
1
0
1
2
8
13
18
23
27
27
25
22
18
13
11
7
6
5
5
3
2
2
1
0
-2
-3
-4
-4
-5
-5
-7
-8
-9
-9
-10
-12
-12
-12
-14
-15
-17
-19
-22
-24
-28
-30
-34
-38
-43
-48
-53
-57
-59
-60
-58
-55
-50
-45
-39
-33
-29
-27
-24
-22
-18
-12
-4
5
12
20
25
26
26
25
22
20
17
16
15
15
12
8
2
-4
-8
-5
16
61
135
237
357
466
530
520
427
273
102
-44
-138
-172
-164
-138
-109
-87
-73
-65
-63
-63
-65
-68
-69
-72
-72
-70
-68
-64
-60
-54
-50
-47
-44
-42
-40
-37
-33
-25
-17
-8
0
6
8
11
10
8
7
7
5
5
3
3
1
1
-2
-3
-5
-8
-13
-15
-19
-20
-23
-24
-24
-24
-24
-23
-19
-17
-14
-10
-8
-5
-3
-2
-3
-4
-7
-9
-14
-20
-25
-30
-35
-37
-38
-37
-33
-29
-24
-19
-17
-15
-14
-14
-12
-8
-3
2
8
15
17
17
17
13
10
6
3
2
0
0
-2
-3
-3
-4
-7
-8
-9
-9
-10
-10
-9
-10
-10
-10
-10
-12
-13
-13
-14
-15
-18
-20
-24
-27
-29
-32
-34
-38
-43
-53
-62
-68
-68
-53
-15
48
145
265
387
476
502
445
312
145
-10
-118
-164
-157
-120
-79
-44
-22
-8
-3
-2
-2
-2
-3
-3
-4
-5
-7
-7
-8
-9
-10
-12
-13
-14
-14
-14
-15
-15
-15
-17
-19
-20
-23
-25
-28
-30
-32
-33
-33
-34
-35
-38
-40
-43
-48
-52
-54
-57
-58
-57
-54
-49
-43
-38
-32
-27
-22
-17
-10
-2
10
23
37
48
57
62
63
61
57
52
45
38
32
26
21
16
13
10
7
5
2
0
-2
-4
-7
-7
-9
-10
-12
-14
-15
-17
-18
-19
-19
-20
-22
-24
-25
-28
-30
-34
-37
-40
-43
-48
-50
-55
-58
-59
-60
-58
-53
-48
-40
-33
-28
-25
-22
-19
-14
-8
0
8
16
21
23
25
23
21
18
17
16
15
13
11
10
8
6
3
2
0
-3
-7
-10
-17
-18
-10
12
58
133
236
353
457
512
492
391
232
61
-80
-168
-197
-184
-157
-129
-108
-94
-85
-79
-74
-69
-64
-58
-53
-48
-44
-42
-39
-37
-33
-27
-18
-9
0
7
13
16
17
16
15
12
11
10
8
8
10
8
8
7
6
5
2
1
0
-3
-5
-7
-9
-10
-12
-15
-17
-19
-20
-23
-23
-23
-20
-18
-15
-10
-8
-5
-5
-7
-8
-10
-14
-17
-18
-19
-17
-15
-13
-10
-7
-5
-4
-4
-5
-4
0
3
8
15
20
23
26
27
26
21
16
10
6
1
-2
-4
-3
-4
-4
-5
-5
-5
-7
-8
-9
-12
-14
-15
-17
-15
-17
-17
-15
-17
-18
-19
-22
-23
-27
-28
-30
-33
-37
-40
-45
-49
-55
-59
-62
-64
-62
-60
-55
-49
-43
-37
-33
-29
-27
-24
-22
-17
-10
-3
5
12
17
20
21
21
20
17
16
13
12
12
11
11
11
11
8
6
1
-4
-10
-10
-2
28
83
170
278
395
485
517
470
350
186
23
-98
-165
-182
-167
-140
-117
-98
-87
-80
-77
-74
-73
-69
-65
-59
-52
-44
-38
-33
-32
-29
-28
-25
-22
-17
-8
-2
5
10
13
13
13
12
11
10
8
6
5
3
2
1
0
1
2
0
-3
-7
-10
-15
-20
-24
-27
-28
-29
-30
-32
-32
-30
-30
-28
-27
-24
-20
-19
-15
-14
-12
-13
-14
-18
-23
-28
-32
-35
-35
-34
-32
-27
-23
-20
-18
-19
-19
-18
-18
-13
-5
1
7
11
15
16
16
16
13
11
10
7
5
2
1
0
-2
-3
-4
-4
-4
-4
-5
-7
-8
-10
-10
-13
-13
-15
-15
-18
-18
-19
-22
-25
-28
-30
-34
-35
-38
-39
-42
-45
-50
-55
-63
-70
-77
-74
-57
-19
46
140
257
380
471
501
451
328
166
10
-102
-154
-154
-127
-89
-57
-34
-20
-13
-9
-7
-7
-5
-7
-5
-5
-7
-7
-8
-9
-10
-13
-15
-17
-18
-19
-20
-20
-22
-22
-22
-23
-23
-23
-23
-23
-25
-27
-28
-32
-34
-37
-40
-43
-47
-50
-53
-54
-54
-52
-48
-42
-37
-30
-27
-24
-20
-15
-9
1
13
27
40
51
58
61
61
58
53
47
41
35
28
23
20
16
11
7
3
0
-2
-5
-7
-7
-8
-9
-9
-10
-12
-13
-13
-14
-14
-15
-15
-17
-18
-19
-22
-23
-25
-28
-32
-34
-38
-40
-44
-47
-49
-52
-52
-49
-47
-43
-37
-32
-29
-27
-25
-23
-18
-12
-4
5
13
18
23
25
23
21
18
17
15
15
13
13
12
11
8
7
5
3
1
0
-3
-4
-5
-7
-9
-13
-19
-25
-28
-18
11
66
150
260
378
471
506
458
336
167
-2
-128
-198
-212
-193
-160
-129
-103
-82
-68
-55
-47
-42
-38
-34
-30
-27
-19
-12
-4
3
10
13
16
15
13
12
10
7
6
5
3
2
1
0
-2
-3
-4
-5
-5
-7
-8
-8
-9
-12
-13
-15
-20
-23
-25
-28
-30
-33
-35
-37
-39
-40
-42
-42
-42
-40
-38
-35
-32
-28
-23
-18
-13
-8
-3
2
7
8
10
8
8
10
15
20
26
32
36
36
36
32
28
25
20
16
12
10
7
5
2
0
-2
-4
-5
-8
-9
-10
-10
-10
-12
-13
-14
-15
-17
-17
-18
-18
-19
-20
-23
-25
-25
-28
-30
-32
-34
-39
-43
-47
-52
-54
-57
-57
-55
-53
-48
-43
-37
-33
-29
-28
-25
-23
-18
-10
-3
7
16
22
27
28
28
26
25
22
22
21
20
18
16
11
3
-2
-4
8
40
96
182
293
411
502
535
487
363
197
33
-88
-152
-163
-142
-113
-87
-69
-60
-58
-58
-59
-62
-64
-64
-64
-64
-63
-59
-55
-49
-44
-39
-35
-33
-32
-29
-25
-22
-15
-7
0
6
10
12
13
12
12
10
10
8
8
6
6
3
2
-2
-5
-9
-12
-14
-18
-20
-23
-25
-28
-28
-28
-25
-22
-19
-14
-9
-4
0
2
2
1
-3
-8
-13
-20
-27
-32
-38
-42
-44
-47
-45
-43
-39
-34
-30
-28
-27
-27
-25
-24
-22
-17
-9
-2
5
8
12
12
12
11
10
8
7
7
6
5
2
-2
-3
-5
-9
-10
-13
-15
-17
-19
-19
-18
-17
-15
-14
-14
-17
-17
-19
-22
-24
-27
-28
-30
-33
-35
-38
-42
-45
-49
-53
-57
-58
-59
-59
-59
-60
-59
-57
-48
-27
11
75
165
280
400
490
520
470
347
186
31
-82
-138
-144
-120
-88
-59
-37
-23
-14
-9
-9
-9
-10
-12
-14
-14
-15
-15
-15
-17
-19
-20
-23
-24
-24
-24
-25
-25
-25
-25
-28
-29
-32
-37
-39
-44
-48
-52
-54
-55
-57
-55
-53
-49
-45
-42
-37
-32
-28
-25
-24
-24
-24
-22
-17
-8
2
11
22
31
40
46
52
55
56
55
52
48
43
37
32
26
18
12
7
3
0
-5
-8
-9
-12
-14
-14
-17
-18
-19
-23
-25
-28
-30
-32
-33
-34
-35
-37
-38
-39
-42
-44
-48
-50
-54
-58
-60
-62
-60
-59
-55
-53
-49
-45
-43
-42
-39
-35
-33
-27
-18
-9
1
8
13
17
18
17
16
12
11
8
8
7
6
5
3
2
1
0
-2
-4
-5
-5
-7
-7
-10
-15
-22
-27
-23
-5
35
105
203
323
437
511
513
432
285
108
-48
-155
-204
-205
-183
-154
-128
-107
-89
-75
-64
-55
-48
-42
-38
-35
-34
-30
-27
-19
-10
-2
6
11
15
15
12
10
7
5
3
3
3
3
3
3
3
3
2
2
1
0
-2
-5
-7
-9
-13
-17
-19
-22
-24
-28
-29
-33
-34
-35
-37
-38
-37
-35
-33
-32
-28
-25
-23
-20
-19
-18
-17
-15
-14
-12
-9
-7
-5
-5
-5
-7
-5
-4
1
7
12
17
20
20
18
17
13
10
8
6
5
3
2
1
0
0
-2
-3
-3
-3
-4
-4
-5
-7
-8
-9
-10
-12
-14
-15
-17
-18
-18
-19
-20
-20
-23
-24
-28
-30
-34
-37
-42
-45
-50
-55
-58
-60
-59
-55
-50
-44
-38
-33
-29
-27
-24
-20
-17
-10
-4
3
12
18
23
27
27
26
25
23
21
20
18
18
17
15
11
5
-4
-8
-5
15
57
127
228
347
462
533
532
448
300
127
-23
-123
-164
-163
-137
-110
-88
-73
-65
-62
-63
-64
-65
-67
-67
-65
-62
-57
-52
-44
-39
-34
-32
-29
-28
-25
-20
-14
-7
2
10
16
18
18
17
13
11
10
7
7
6
6
5
3
0
-2
-4
-7
-10
-13
-15
-19
-22
-24
-25
-27
-27
-27
-25
-23
-19
-15
-12
-8
-5
-3
-2
-2
-4
-9
-13
-18
-24
-30
-34
-37
-38
-35
-33
-28
-24
-19
-17
-15
-14
-13
-9
-7
0
6
13
17
20
21
18
17
13
12
10
8
7
7
6
5
5
3
1
-2
-4
-5
-8
-10
-12
-12
-14
-14
-14
-13
-13
-14
-15
-17
-19
-22
-24
-27
-29
-32
-35
-39
-44
-48
-52
-54
-55
-55
-54
-52
-47
-42
-37
-32
-28
-28
-29
-32
-32
-20
5
53
127
230
348
466
547
558
487
343
168
7
-103
-152
-149
-119
-85
-58
-39
-28
-23
-20
-20
-20
-20
-22
-23
-24
-25
-28
-29
-30
-32
-33
-34
-37
-38
-40
-43
-45
-48
-52
-54
-57
-58
-58
-58
-55
-52
-47
-39
-33
-28
-23
-20
-18
-17
-15
-12
-5
1
6
11
15
15
16
13
12
11
11
12
16
21
26
31
35
36
37
37
35
32
30
25
20
15
10
5
2
0
-4
-8
-13
-17
-19
-23
-25
-29
-33
-35
-39
-42
-45
-50
-54
-58
-62
-64
-65
-64
-60
-55
-49
-43
-37
-32
-28
-27
-24
-19
-15
-8
-2
7
15
21
25
26
25
22
18
16
13
11
8
8
8
7
6
5
3
2
1
0
-2
-4
-7
-8
-10
-12
-13
-14
-14
-17
-19
-23
-27
-29
-32
-33
-34
-37
-42
-48
-58
-67
-68
-58
-27
27
111
222
341
438
480
443
331
172
11
-108
-169
-174
-144
-102
-64
-35
-15
-4
2
3
3
3
2
1
0
-2
-4
-7
-8
-10
-10
-12
-12
-13
-14
-14
-14
-14
-14
-14
-17
-19
-20
-23
-25
-27
-29
-32
-34
-37
-38
-40
-43
-44
-48
-50
-53
-57
-58
-58
-57
-52
-47
-39
-33
-27
-22
-17
-12
-4
5
15
27
38
48
55
58
58
56
52
47
41
33
28
22
17
15
11
8
6
3
1
-2
-5
-9
-13
-18
-22
-23
-25
-27
-28
-28
-29
-30
-32
-33
-35
-37
-38
-40
-44
-45
-47
-49
-50
-53
-57
-60
-64
-67
-70
-70
-68
-63
-57
-48
-39
-33
-29
-28
-28
-28
-25
-22
-13
-4
5
11
15
17
17
17
16
16
15
15
13
13
13
12
10
6
-2
-9
-15
-12
8
50
122
226
350
466
541
543
461
313
138
-15
-120
-168
-170
-148
-122
-99
-83
-73
-69
-70
-72
-74
-77
-77
-74
-69
-64
-55
-48
-42
-38
-35
-33
-32
-29
-24
-17
-9
0
7
12
15
16
16
15
13
11
10
7
7
7
6
6
5
1
-2
-5
-8
-12
-14
-18
-23
-27
-29
-32
-32
-29
-27
-24
-20
-15
-9
-5
-2
0
-2
-4
-9
-14
-20
-27
-33
-40
-45
-52
-55
-60
-62
-60
-57
-50
-44
-38
-34
-32
-32
-33
-30
-24
-17
-7
2
8
15
17
20
21
18
17
16
15
13
12
11
8
6
3
2
2
1
-2
-3
-7
-8
-9
-10
-12
-12
-10
-12
-10
-13
-14
-18
-20
-22
-24
-27
-30
-33
-35
-38
-42
-45
-49
-52
-54
-55
-55
-54
-52
-47
-40
-35
-29
-23
-19
-18
-20
-23
-22
-12
15
66
145
253
377
496
568
571
486
333
156
-3
-108
-153
-150
-123
-92
-65
-45
-33
-25
-22
-20
-19
-19
-18
-18
-18
-19
-19
-20
-23
-25
-28
-29
-32
-34
-37
-39
-42
-44
-47
-49
-53
-54
-55
-54
-54
-52
-47
-40
-34
-27
-22
-18
-14
-14
-13
-10
-8
-3
3
10
12
15
15
15
13
12
13
15
17
22
26
30
33
36
37
37
36
33
31
27
23
18
12
7
2
-3
-7
-9
-12
-13
-14
-18
-19
-22
-25
-29
-33
-37
-40
-44
-47
-50
-53
-54
-55
-57
-55
-53
-48
-43
-35
-29
-23
-18
-14
-12
-9
-7
-2
5
12
18
25
28
28
27
26
23
21
18
18
16
13
11
10
7
5
3
1
-2
-3
-5
-7
-8
-9
-9
-10
-12
-12
-13
-15
-17
-19
-20
-23
-25
-29
-37
-45
-53
-55
-45
-14
42
131
243
362
451
480
428
302
138
-18
-130
-184
-184
-154
-114
-77
-45
-24
-8
2
7
10
8
7
5
3
2
1
0
-2
-4
-5
-5
-7
-8
-9
-10
-12
-13
-14
-17
-18
-20
-22
-22
-23
-24
-24
-24
-24
-25
-27
-29
-32
-34
-38
-43
-48
-54
-59
-63
-67
-69
-68
-64
-59
-50
-42
-33
-24
-15
-8
0
8
20
31
42
52
58
60
58
56
50
42
36
30
26
22
20
16
13
11
7
3
1
-2
-4
-7
-9
-12
-14
-17
-18
-19
-20
-22
-23
-24
-27
-28
-28
-29
-30
-32
-33
-37
-39
-43
-45
-50
-55
-59
-63
-64
-63
-59
-54
-47
-39
-32
-28
-25
-23
-20
-17
-12
-3
5
13
21
26
28
28
27
26
22
20
17
16
15
13
11
10
7
2
-3
-5
-2
18
61
131
233
353
468
542
543
460
310
133
-19
-123
-165
-162
-137
-110
-90
-78
-72
-69
-70
-72
-74
-74
-73
-70
-65
-58
-50
-44
-38
-34
-33
-32
-32
-29
-24
-18
-9
-2
3
6
7
7
7
6
3
3
2
3
2
2
2
1
-2
-3
-5
-8
-10
-14
-19
-23
-25
-28
-29
-29
-29
-28
-25
-23
-18
-14
-10
-8
-7
-7
-9
-12
-14
-19
-24
-28
-34
-39
-42
-45
-45
-45
-42
-37
-32
-27
-23
-22
-22
-22
-20
-17
-10
-3
5
10
13
15
15
15
13
13
11
10
6
3
2
0
-4
-5
-7
-8
-7
-8
-9
-9
-12
-13
-14
-14
-14
-14
-15
-15
-17
-18
-19
-22
-24
-27
-30
-34
-38
-40
-43
-47
-49
-53
-55
-59
-64
-69
-73
-68
-52
-15
42
128
238
358
457
502
473
367
215
56
-67
-135
-150
-132
-99
-69
-44
-27
-15
-9
-5
-4
-4
-5
-8
-9
-12
-13
-14
-15
-15
-17
-18
-18
-18
-18
-19
-20
-22
-23
-24
-24
-27
-29
-33
-35
-39
-43
-44
-45
-45
-47
-48
-50
-54
-57
-57
-55
-52
-48
-42
-38
-35
-33
-32
-30
-27
-19
-9
3
18
30
41
48
52
53
52
48
43
37
33
27
22
16
12
5
0
-4
-8
-10
-12
-13
-15
-17
-18
-19
-20
-23
-24
-25
-27
-25
-24
-24
-24
-24
-27
-28
-30
-33
-35
-39
-43
-45
-49
-53
-57
-58
-59
-60
-60
-58
-54
-52
-45
-42
-38
-35
-32
-29
-23
-15
-7
2
10
15
20
20
18
17
15
12
11
11
11
10
10
8
7
5
2
-2
-5
-9
-13
-18
-24
-29
-24
-5
36
108
211
335
453
532
537
457
308
132
-29
-139
-190
-194
-173
-147
-123
-105
-92
-84
-77
-70
-65
-59
-54
-48
-43
-38
-34
-32
-30
-25
-20
-12
-3
5
11
15
17
17
16
15
13
12
10
8
8
7
7
6
6
5
5
5
3
0
-3
-7
-10
-14
-17
-20
-24
-27
-30
-32
-33
-32
-30
-27
-23
-19
-15
-12
-10
-9
-10
-13
-17
-20
-25
-28
-30
-30
-29
-25
-23
-19
-17
-14
-13
-12
-8
-5
0
3
10
15
16
16
16
15
13
11
10
8
8
7
7
7
6
6
5
3
2
1
0
-2
-3
-5
-7
-8
-10
-10
-13
-14
-14
-14
-14
-14
-17
-18
-20
-23
-27
-30
-34
-39
-43
-48
-52
-54
-55
-57
-57
-54
-49
-44
-37
-30
-27
-23
-20
-18
-14
-10
-4
5
15
22
27
28
28
27
25
22
20
18
17
17
16
13
6
-2
-5
-3
16
58
130
233
355
470
542
541
457
307
133
-18
-119
-163
-160
-135
-108
-85
-70
-62
-57
-57
-58
-59
-62
-63
-63
-63
-60
-58
-53
-47
-42
-38
-34
-32
-30
-28
-25
-18
-12
-3
5
11
15
16
16
15
13
11
11
8
7
7
5
3
0
-3
-7
-9
-12
-15
-19
-23
-25
-27
-28
-30
-30
-29
-28
-25
-23
-19
-15
-13
-12
-9
-9
-9
-12
-13
-15
-20
-25
-30
-35
-37
-37
-37
-33
-29
-23
-18
-15
-14
-13
-13
-10
-8
-3
3
11
16
20
21
18
17
13
8
7
3
2
1
0
-2
-3
-3
-5
-7
-8
-9
-10
-9
-10
-10
-10
-10
-10
-10
-12
-12
-14
-15
-18
-20
-23
-25
-28
-32
-35
-39
-43
-48
-55
-64
-70
-72
-57
-19
45
141
262
390
486
520
470
343
176
16
-99
-153
-150
-118
-78
-44
-22
-9
-3
-2
-2
-2
-2
-2
-3
-4
-5
-7
-8
-9
-10
-12
-13
-14
-15
-17
-18
-18
-19
-20
-22
-24
-27
-29
-30
-33
-33
-34
-35
-38
-39
-42
-45
-49
-54
-55
-58
-59
-59
-58
-54
-49
-45
-39
-35
-32
-28
-23
-15
-4
10
23
37
47
53
56
56
52
48
43
38
33
28
23
18
15
10
6
3
2
2
0
-3
-5
-8
-10
-13
-15
-17
-18
-20
-22
-23
-25
-28
-29
-30
-32
-32
-34
-37
-40
-44
-49
-52
-54
-58
-59
-62
-63
-60
-57
-52
-45
-40
-37
-33
-30
-27
-20
-14
-4
5
11
16
20
20
18
17
15
13
12
11
10
8
7
6
6
5
3
3
1
-3
-10
-17
-20
-14
8
56
132
238
358
467
526
511
411
253
81
-63
-154
-187
-178
-153
-128
-108
-95
-88
-83
-80
-77
-72
-65
-58
-50
-44
-39
-37
-34
-33
-29
-23
-15
-7
1
7
10
12
12
12
11
10
10
10
8
7
6
6
5
5
3
2
-2
-5
-9
-13
-17
-20
-24
-25
-28
-30
-32
-33
-33
-32
-30
-28
-25
-22
-18
-14
-12
-9
-9
-10
-14
-19
-23
-27
-29
-29
-29
-27
-23
-19
-15
-13
-13
-14
-14
-13
-9
-4
3
10
15
18
20
18
17
15
13
11
8
7
5
3
2
0
-2
-3
-3
-4
-4
-4
-5
-7
-8
-10
-10
-13
-14
-15
-18
-19
-20
-23
-24
-27
-29
-32
-34
-35
-38
-40
-44
-49
-53
-58
-60
-62
-62
-60
-57
-52
-47
-40
-35
-32
-28
-24
-22
-17
-10
-4
5
12
18
22
23
18
13
7
7
21
58
125
217
331
441
515
521
448
307
138
-13
-119
-165
-165
-139
-108
-82
-62
-48
-40
-37
-34
-34
-34
-37
-38
-39
-42
-44
-48
-52
-57
-60
-64
-69
-69
-68
-67
-62
-55
-50
-44
-40
-35
-32
-30
-29
-27
-22
-14
-7
3
12
17
20
21
21
18
17
15
11
8
5
2
0
-3
-5
-7
-7
-4
-2
2
6
8
11
12
15
15
13
10
6
3
0
-5
-10
-15
-18
-22
-27
-29
-33
-37
-42
-45
-50
-55
-59
-64
-67
-68
-68
-65
-62
-55
-48
-40
-34
-30
-28
-27
-24
-20
-15
-8
1
8
15
20
22
22
21
18
15
13
11
10
7
7
8
8
7
5
3
2
1
-2
-4
-7
-8
-9
-9
-10
-12
-13
-13
-14
-15
-18
-22
-27
-33
-42
-49
-52
-40
-12
41
125
232
346
437
472
431
315
155
-4
-122
-183
-190
-167
-130
-95
-68
-43
-24
-9
0
8
12
15
12
11
10
7
6
3
3
2
2
1
0
-2
-3
-4
-4
-5
-5
-8
-8
-9
-10
-13
-14
-15
-17
-15
-17
-15
-17
-17
-20
-24
-29
-33
-38
-42
-48
-53
-58
-60
-62
-62
-58
-52
-42
-30
-19
-10
0
8
13
18
23
30
35
41
46
48
48
45
40
33
27
22
20
17
15
13
10
7
5
1
-2
-3
-5
-7
-9
-12
-12
-13
-14
-14
-14
-14
-14
-14
-14
-15
-17
-18
-19
-22
-24
-27
-32
-34
-39
-45
-49
-54
-58
-60
-60
-59
-58
-52
-45
-39
-33
-29
-27
-25
-23
-20
-15
-8
1
11
18
25
26
25
23
20
17
15
13
12
11
11
10
7
2
-5
-12
-14
-5
22
75
158
272
397
505
557
531
420
255
78
-62
-145
-170
-159
-130
-104
-84
-74
-69
-68
-68
-72
-72
-73
-72
-69
-64
-59
-52
-45
-40
-37
-34
-33
-30
-27
-20
-13
-5
3
10
15
17
17
17
15
13
11
11
10
10
8
7
3
0
-4
-8
-12
-15
-18
-20
-24
-27
-27
-28
-28
-28
-27
-24
-20
-17
-13
-9
-5
-2
0
0
-2
-5
-9
-14
-18
-22
-25
-29
-29
-29
-27
-23
-19
-14
-12
-10
-12
-12
-13
-9
-5
2
10
16
20
21
20
17
13
10
7
6
5
3
3
2
1
1
0
-2
-4
-5
-7
-7
-9
-10
-12
-10
-9
-10
-12
-12
-13
-14
-18
-20
-24
-27
-30
-33
-37
-39
-43
-47
-50
-53
-55
-57
-57
-54
-50
-45
-39
-33
-29
-27
-24
-22
-17
-12
-4
5
13
21
27
30
30
27
23
17
11
6
10
27
67
131
222
335
442
513
515
436
291
122
-27
-124
-162
-154
-123
-90
-65
-49
-40
-35
-34
-35
-37
-39
-42
-44
-48
-52
-54
-58
-62
-63
-63
-62
-58
-53
-48
-40
-35
-30
-29
-28
-27
-25
-20
-12
-4
6
13
21
25
26
26
23
21
17
13
10
6
2
-2
-4
-7
-9
-10
-12
-12
-12
-10
-8
-5
-3
2
6
11
15
15
13
11
8
3
-2
-5
-8
-13
-18
-23
-28
-34
-39
-44
-49
-52
-53
-54
-52
-49
-44
-39
-37
-33
-30
-30
-28
-27
-23
-17
-10
-2
5
12
16
18
20
20
17
13
11
8
6
5
3
3
2
1
1
0
-2
-2
0
0
-2
-4
-5
-8
-10
-13
-17
-18
-20
-23
-24
-25
-28
-29
-33
-34
-38
-43
-48
-55
-63
-69
-68
-52
-15
46
138
252
367
452
475
418
292
131
-20
-127
-173
-165
-129
-87
-49
-24
-8
0
2
2
1
1
0
0
-2
-3
-4
-5
-7
-8
-9
-10
-12
-13
-15
-17
-18
-19
-22
-23
-24
-25
-27
-27
-27
-28
-29
-32
-34
-35
-38
-40
-43
-48
-52
-55
-58
-59
-58
-55
-52
-48
-42
-35
-30
-25
-20
-15
-9
-2
7
20
32
42
51
55
55
51
46
41
35
27
22
17
13
10
8
6
5
2
0
-4
-8
-10
-12
-14
-15
-15
-17
-17
-17
-17
-17
-17
-17
-19
-20
-23
-25
-28
-32
-35
-39
-43
-47
-52
-57
-60
-63
-65
-65
-64
-63
-59
-53
-48
-42
-37
-33
-30
-28
-24
-19
-13
-7
1
6
10
13
16
16
15
13
13
12
11
10
7
3
-3
-10
-15
-12
6
47
117
218
337
453
530
537
462
318
148
-7
-114
-165
-169
-149
-122
-99
-82
-70
-64
-64
-65
-69
-72
-75
-77
-77
-75
-73
-69
-63
-55
-49
-43
-38
-34
-33
-30
-25
-20
-14
-8
0
5
8
11
12
13
12
11
10
10
10
8
7
5
3
-2
-5
-10
-14
-17
-19
-20
-22
-22
-22
-20
-18
-14
-9
-4
-2
1
3
3
2
1
-2
-5
-10
-17
-22
-30
-37
-43
-48
-53
-54
-54
-53
-49
-44
-39
-34
-29
-27
-27
-24
-23
-18
-12
-4
3
11
18
22
25
25
23
23
22
20
18
15
13
11
7
5
2
1
0
-2
-3
-4
-4
-7
-5
-7
-7
-7
-9
-10
-12
-14
-17
-19
-20
-23
-25
-28
-32
-34
-38
-40
-44
-47
-50
-53
-54
-57
-59
-60
-59
-54
-37
-3
57
143
256
380
481
531
502
393
237
76
-50
-120
-138
-118
-87
-57
-33
-19
-10
-7
-7
-7
-7
-8
-8
-9
-10
-10
-12
-14
-14
-15
-15
-17
-18
-19
-22
-23
-24
-25
-27
-28
-29
-30
-34
-37
-40
-45
-49
-52
-53
-54
-53
-52
-48
-44
-40
-35
-32
-28
-25
-25
-24
-20
-15
-9
0
8
18
27
35
42
47
50
52
53
53
51
50
46
40
33
27
21
16
10
5
0
-3
-5
-8
-8
-12
-13
-14
-17
-19
-22
-24
-27
-29
-30
-33
-34
-35
-38
-39
-42
-44
-47
-49
-52
-53
-54
-54
-52
-48
-42
-35
-32
-27
-24
-23
-22
-19
-14
-8
2
13
22
28
31
31
30
27
23
21
20
17
16
15
12
10
7
5
2
0
-2
-3
-3
-3
-4
-3
-3
-4
-5
-9
-15
-23
-29
-33
-24
2
56
140
248
366
458
491
445
320
150
-17
-142
-204
-210
-182
-142
-105
-79
-60
-50
-43
-37
-29
-22
-12
-3
3
8
11
11
10
7
3
2
1
0
0
-2
-3
-4
-7
-9
-10
-10
-13
-14
-15
-17
-17
-18
-18
-18
-18
-19
-20
-22
-24
-27
-29
-33
-37
-40
-44
-49
-52
-55
-58
-58
-58
-55
-50
-44
-37
-27
-15
-4
3
11
15
16
16
17
17
20
23
27
30
32
32
31
28
26
23
18
15
12
10
7
5
3
2
0
-3
-5
-7
-8
-10
-13
-17
-19
-22
-23
-24
-24
-24
-24
-25
-27
-28
-30
-33
-35
-37
-40
-42
-45
-50
-54
-58
-62
-63
-65
-64
-64
-60
-57
-52
-45
-39
-35
-33
-32
-32
-29
-25
-19
-10
-2
5
11
15
16
15
15
12
12
12
11
10
7
3
-3
-9
-7
7
45
110
203
318
433
513
530
463
330
161
5
-107
-160
-167
-145
-119
-95
-78
-68
-63
-62
-63
-64
-68
-70
-73
-74
-74
-72
-68
-62
-55
-48
-43
-38
-34
-33
-30
-28
-23
-17
-8
0
7
13
17
18
20
18
17
16
16
15
11
8
6
2
0
-2
-3
-5
-8
-10
-13
-15
-15
-17
-15
-13
-9
-5
-2
1
3
6
7
8
8
7
5
1
-3
-9
-14
-22
-28
-33
-38
-42
-44
-45
-44
-40
-37
-34
-29
-27
-27
-25
-24
-20
-15
-8
-2
6
13
17
21
22
22
21
21
20
17
16
15
13
11
10
8
6
6
3
2
0
-2
0
-2
-2
-3
-4
-8
-9
-10
-12
-13
-14
-17
-19
-22
-25
-28
-32
-34
-38
-42
-45
-48
-50
-52
-52
-50
-45
-40
-34
-29
-24
-22
-19
-17
-13
-9
-3
1
5
7
11
20
43
88
160
258
375
478
538
523
430
273
103
-39
-127
-155
-143
-112
-80
-55
-39
-29
-24
-22
-22
-22
-23
-24
-24
-25
-25
-27
-29
-33
-37
-42
-47
-52
-55
-59
-60
-62
-62
-60
-58
-53
-48
-40
-35
-29
-27
-24
-22
-20
-17
-10
-4
2
11
16
20
21
21
18
15
10
6
2
2
2
2
3
6
10
12
17
21
23
26
27
27
25
22
17
13
8
2
0
-5
-9
-13
-14
-17
-19
-22
-25
-30
-37
-42
-48
-53
-58
-62
-65
-69
-72
-72
-70
-67
-59
-50
-43
-37
-32
-29
-28
-25
-20
-13
-5
3
8
15
17
18
16
15
11
10
8
8
10
10
10
8
7
6
3
1
0
-2
-3
-3
-4
-7
-8
-10
-13
-15
-17
-18
-19
-20
-22
-24
-27
-29
-34
-38
-44
-52
-60
-67
-65
-50
-13
52
147
267
387
472
491
428
293
126
-30
-138
-187
-180
-144
-100
-62
-32
-13
-3
2
3
3
2
0
-2
-3
-4
-5
-8
-10
-13
-17
-19
-20
-22
-22
-22
-23
-22
-23
-23
-24
-27
-30
-34
-37
-38
-39
-40
-42
-42
-43
-45
-50
-53
-58
-64
-68
-72
-75
-77
-75
-73
-69
-63
-54
-47
-38
-32
-24
-17
-8
1
11
22
33
42
48
50
50
47
42
36
30
23
18
15
12
10
7
6
2
1
-2
-5
-7
-7
-8
-8
-8
-8
-8
-8
-9
-9
-10
-12
-13
-13
-14
-15
-17
-18
-22
-23
-27
-30
-35
-40
-45
-49
-53
-55
-57
-54
-50
-47
-39
-32
-25
-20
-18
-15
-14
-10
-7
1
8
17
23
28
30
30
27
25
21
18
16
15
13
12
10
7
1
-7
-13
-14
-3
31
92
187
311
445
550
592
550
421
245
66
-70
-148
-168
-154
-127
-102
-82
-69
-64
-63
-64
-65
-68
-69
-69
-67
-64
-58
-53
-47
-39
-34
-30
-28
-25
-24
-19
-14
-7
0
6
10
12
12
11
10
8
7
7
7
7
6
3
2
-2
-4
-8
-9
-13
-15
-18
-19
-22
-23
-25
-27
-27
-25
-24
-20
-17
-13
-9
-8
-5
-7
-9
-13
-18
-23
-28
-34
-39
-44
-45
-47
-44
-40
-34
-28
-23
-19
-19
-18
-15
-12
-7
0
6
11
15
15
15
12
11
8
7
6
5
5
2
1
-2
-4
-5
-8
-10
-13
-14
-14
-13
-14
-15
-17
-17
-18
-18
-19
-19
-19
-22
-22
-24
-29
-32
-35
-39
-43
-48
-53
-57
-59
-60
-60
-59
-55
-49
-43
-38
-37
-40
-40
-35
-12
35
113
225
361
492
581
592
511
356
170
2
-110
-158
-152
-119
-84
-55
-35
-24
-18
-13
-12
-10
-10
-12
-13
-14
-17
-18
-19
-20
-22
-24
-27
-28
-30
-32
-33
-34
-37
-38
-40
-44
-48
-53
-58
-63
-64
-64
-60
-54
-47
-39
-33
-28
-27
-24
-24
-24
-22
-17
-10
-4
1
6
8
10
10
11
12
15
20
25
30
33
37
37
36
33
30
25
20
13
7
2
-3
-7
-7
-9
-10
-12
-13
-15
-19
-22
-24
-27
-29
-33
-35
-40
-44
-48
-52
-54
-55
-55
-57
-57
-54
-52
-44
-35
-24
-13
-4
0
2
5
8
12
17
23
25
23
20
17
15
13
12
11
11
11
11
12
11
10
8
6
3
1
0
-2
-4
-5
-7
-8
-9
-10
-13
-14
-17
-19
-20
-23
-27
-32
-39
-44
-45
-32
-2
55
141
252
370
460
488
436
308
138
-24
-144
-202
-203
-174
-133
-97
-67
-44
-25
-12
-2
3
6
6
5
3
1
0
-2
-3
-4
-5
-7
-8
-9
-10
-12
-14
-15
-17
-19
-22
-22
-23
-24
-25
-25
-25
-24
-24
-24
-24
-25
-28
-32
-35
-39
-45
-49
-53
-57
-60
-62
-63
-63
-60
-55
-47
-35
-23
-10
0
8
15
21
28
37
46
52
56
55
50
45
40
35
32
30
28
26
25
22
18
15
13
12
11
11
10
8
5
0
-9
-18
-28
-35
-42
-45
-47
-45
-44
-43
-40
-39
-38
-38
-40
-40
-42
-45
-48
-53
-57
-63
-67
-72
-72
-70
-67
-60
-54
-47
-42
-38
-35
-34
-33
-33
-28
-22
-12
-3
5
11
16
18
20
20
20
20
20
20
20
16
11
3
-7
-13
-12
7
46
115
213
336
456
542
562
501
368
200
40
-78
-140
-154
-140
-118
-95
-79
-69
-65
-65
-69
-74
-78
-80
-82
-82
-80
-78
-73
-65
-58
-50
-44
-39
-35
-34
-32
-28
-23
-15
-8
0
7
12
15
16
16
13
10
7
3
1
-2
-4
-5
-8
-10
-13
-17
-19
-22
-23
-24
-27
-28
-29
-30
-30
-29
-25
-22
-15
-10
-4
0
1
0
-4
-9
-15
-22
-28
-34
-39
-45
-52
-59
-64
-65
-65
-60
-55
-48
-40
-35
-32
-32
-30
-29
-25
-19
-12
-4
2
8
13
17
18
21
21
21
21
18
17
17
16
16
15
13
11
7
2
0
-2
-4
-5
-7
-9
-10
-13
-14
-14
-14
-15
-17
-19
-20
-23
-24
-27
-29
-32
-37
-40
-47
-50
-53
-55
-57
-58
-58
-57
-54
-49
-43
-34
-27
-19
-15
-17
-22
-25
-27
-13
18
78
170
290
421
536
597
576
470
301
116
-38
-137
-172
-163
-132
-97
-67
-45
-32
-24
-23
-23
-24
-24
-25
-25
-25
-25
-25
-25
-28
-30
-32
-35
-38
-39
-42
-45
-50
-55
-62
-65
-68
-68
-67
-65
-62
-57
-48
-40
-32
-24
-19
-15
-13
-13
-13
-12
-12
-9
-5
0
1
3
5
3
3
3
5
5
8
13
17
21
23
27
27
27
27
26
23
21
18
16
11
6
1
-5
-10
-15
-19
-23
-24
-27
-29
-32
-34
-38
-40
-42
-42
-43
-45
-48
-50
-54
-55
-55
-54
-54
-50
-47
-40
-34
-27
-17
-7
2
7
7
2
-4
-8
-7
-3
5
13
18
23
26
25
23
22
20
18
16
13
11
8
6
3
2
1
0
0
0
-2
-3
-5
-5
0
15
46
100
182
296
425
533
581
538
405
215
18
-134
-222
-247
-229
-197
-160
-133
-112
-95
-82
-72
-63
-55
-49
-44
-40
-37
-33
-27
-18
-8
1
7
7
6
1
-2
-3
-3
-2
1
2
0
-3
-8
-13
-18
-22
-22
-22
-22
-22
-23
-24
-27
-29
-30
-32
-33
-33
-33
-34
-35
-39
-43
-45
-49
-54
-58
-63
-67
-67
-64
-58
-50
-43
-37
-32
-25
-22
-15
-10
-4
3
13
23
27
28
21
12
3
-2
0
3
8
13
16
16
17
17
17
17
16
16
16
15
15
13
16
22
33
46
52
46
25
-4
-30
-52
-58
-53
-43
-33
-27
-24
-22
-22
-20
-22
-22
-27
-30
-37
-43
-47
-49
-50
-50
-49
-49
-49
-47
-42
-34
-25
-18
-13
-12
-12
-12
-12
-8
0
7
17
23
28
28
27
25
23
22
22
22
23
20
12
0
-10
-14
1
42
120
233
370
501
588
598
518
366
181
16
-97
-148
-150
-127
-99
-75
-59
-48
-43
-43
-47
-55
-65
-74
-79
-82
-80
-78
-73
-67
-60
-54
-49
-44
-40
-37
-32
-25
-19
-12
-5
1
5
7
7
7
5
2
-2
-7
-8
-9
-9
-9
-10
-10
-12
-17
-20
-23
-25
-27
-25
-27
-29
-34
-40
-47
-50
-48
-43
-34
-24
-18
-12
-8
-7
-7
-9
-10
-14
-17
-20
-23
-25
-28
-29
-30
-29
-27
-23
-18
-14
-12
-8
-7
-3
0
3
6
10
11
12
12
10
6
3
0
-3
-4
-5
-7
-8
-8
-8
-8
-9
-9
-9
-9
-10
-10
-14
-18
-22
-24
-25
-25
-25
-24
-25
-28
-30
-33
-35
-38
-39
-42
-45
-52
-59
-67
-72
-65
-40
8
91
207
345
477
566
577
498
350
171
13
-90
-133
-127
-98
-63
-35
-18
-8
-4
-4
-4
-4
-4
-4
-3
-3
-3
-3
-5
-7
-9
-13
-15
-18
-20
-22
-23
-24
-24
-25
-27
-27
-25
-27
-27
-28
-29
-30
-34
-38
-42
-48
-54
-60
-68
-75
-79
-82
-82
-79
-77
-72
-65
-58
-50
-42
-35
-28
-19
-9
1
13
26
37
45
48
50
47
42
37
31
23
17
12
10
7
6
5
5
2
1
2
0
-3
-7
-12
-15
-19
-23
-24
-24
-23
-23
-22
-23
-24
-27
-29
-33
-37
-39
-44
-48
-53
-55
-59
-63
-65
-68
-70
-70
-68
-62
-54
-47
-38
-33
-29
-25
-23
-18
-10
-4
3
8
12
15
17
18
18
17
16
15
11
6
1
-5
-4
7
41
101
191
310
436
538
581
543
426
261
92
-39
-117
-140
-129
-107
-84
-68
-57
-52
-50
-53
-57
-62
-67
-72
-75
-79
-82
-84
-84
-82
-77
-72
-64
-55
-48
-42
-38
-35
-33
-30
-25
-19
-12
-4
3
10
15
18
20
20
16
11
6
0
-5
-10
-15
-19
-23
-24
-25
-25
-27
-27
-27
-25
-23
-18
-13
-7
-2
3
7
8
10
10
8
7
3
-3
-9
-14
-20
-25
-30
-35
-40
-47
-53
-59
-63
-63
-62
-57
-52
-43
-38
-33
-32
-32
-32
-32
-29
-23
-14
-3
7
13
18
22
25
25
23
23
22
21
20
17
15
11
8
7
5
2
0
-3
-5
-7
-7
-7
-5
-7
-7
-8
-8
-9
-10
-13
-17
-20
-24
-29
-33
-37
-39
-43
-47
-49
-52
-54
-54
-54
-54
-52
-50
-48
-44
-39
-34
-32
-30
-33
-34
-29
-7
40
117
230
363
497
590
611
541
395
211
37
-85
-147
-154
-132
-100
-70
-48
-32
-22
-18
-19
-20
-23
-25
-27
-27
-27
-25
-25
-25
-28
-32
-37
-42
-47
-52
-55
-57
-58
-57
-57
-57
-58
-59
-62
-62
-63
-62
-58
-53
-45
-38
-32
-28
-28
-30
-33
-33
-30
-25
-18
-9
-2
3
6
7
7
8
10
12
16
20
23
27
28
30
30
28
26
22
18
15
8
5
0
-5
-9
-14
-18
-22
-24
-24
-27
-27
-29
-30
-33
-37
-40
-42
-43
-45
-47
-49
-52
-55
-59
-62
-65
-68
-69
-70
-67
-59
-50
-40
-34
-29
-28
-25
-23
-18
-12
-3
2
8
13
18
22
23
22
20
17
13
10
10
10
8
7
6
2
-3
-8
-14
-18
-12
10
56
131
238
368
495
580
592
516
366
183
13
-105
-165
-174
-154
-128
-105
-90
-82
-78
-77
-78
-79
-79
-78
-75
-70
-63
-55
-49
-43
-39
-37
-35
-32
-25
-18
-10
-3
3
7
10
12
11
11
8
6
2
1
-2
-2
-5
-8
-10
-13
-15
-17
-18
-19
-22
-25
-29
-33
-35
-38
-39
-38
-35
-30
-24
-19
-13
-10
-5
-3
-2
-4
-9
-17
-23
-29
-34
-38
-43
-45
-49
-50
-49
-45
-42
-37
-33
-30
-29
-27
-23
-18
-12
-3
3
10
15
20
25
28
31
31
27
22
17
13
11
10
8
8
7
5
3
1
-2
-5
-8
-12
-13
-15
-17
-18
-19
-22
-22
-23
-25
-25
-27
-28
-30
-32
-34
-38
-42
-47
-52
-55
-59
-62
-65
-67
-67
-63
-58
-52
-44
-37
-29
-24
-20
-18
-15
-14
-14
-14
-8
8
45
106
198
321
456
571
628
602
487
312
123
-32
-128
-163
-153
-124
-93
-67
-48
-38
-33
-33
-33
-34
-34
-34
-34
-35
-37
-38
-39
-40
-42
-42
-43
-44
-45
-49
-53
-57
-59
-62
-62
-62
-62
-59
-55
-49
-43
-37
-32
-29
-27
-24
-20
-15
-10
-4
0
3
7
8
8
7
5
2
0
0
0
-2
2
7
12
18
23
27
30
31
31
28
23
20
16
12
8
6
3
2
0
-3
-7
-10
-14
-18
-22
-25
-29
-34
-39
-45
-50
-54
-58
-60
-62
-63
-64
-64
-62
-57
-49
-40
-33
-25
-20
-18
-14
-10
-4
1
10
17
23
27
28
27
25
23
21
18
15
13
12
10
7
3
2
1
1
1
0
-2
-3
-5
-8
-9
-12
-14
-17
-18
-20
-20
-22
-23
-23
-25
-27
-29
-33
-37
-40
-44
-50
-58
-69
-78
-79
-67
-30
35
137
270
416
537
596
566
445
267
83
-60
-142
-159
-138
-102
-67
-40
-23
-15
-10
-9
-8
-9
-10
-12
-13
-15
-15
-17
-18
-19
-20
-23
-25
-27
-27
-28
-28
-29
-32
-35
-39
-43
-45
-47
-47
-48
-48
-49
-50
-52
-54
-57
-60
-65
-70
-74
-77
-77
-77
-73
-68
-62
-57
-52
-50
-47
-42
-34
-22
-7
6
22
35
43
47
48
48
46
42
38
33
30
27
25
21
18
16
13
12
11
7
6
2
-2
-4
-7
-8
-10
-13
-14
-15
-17
-18
-19
-19
-20
-20
-22
-23
-24
-28
-30
-35
-40
-45
-50
-55
-59
-60
-60
-55
-49
-39
-30
-23
-17
-13
-12
-7
-2
6
16
23
30
32
31
27
23
18
15
13
12
10
10
10
8
7
5
0
-8
-15
-19
-14
11
63
148
268
410
542
622
620
523
352
157
-14
-128
-177
-175
-150
-122
-99
-87
-80
-80
-82
-83
-84
-83
-79
-74
-67
-60
-54
-48
-45
-43
-40
-38
-32
-23
-14
-7
0
3
3
2
-2
-4
-5
-8
-9
-9
-10
-10
-12
-13
-13
-15
-18
-23
-27
-30
-35
-38
-42
-44
-45
-47
-47
-47
-47
-45
-43
-39
-33
-25
-20
-14
-10
-12
-12
-14
-15
-18
-20
-25
-28
-28
-28
-25
-23
-18
-14
-12
-9
-8
-5
-3
1
6
12
17
21
21
21
21
18
15
12
10
7
5
2
1
1
1
0
-2
-4
-7
-10
-14
-17
-17
-19
-20
-22
-24
-25
-25
-24
-23
-20
-19
-19
-20
-23
-27
-32
-35
-40
-45
-50
-54
-57
-58
-59
-57
-52
-44
-38
-30
-25
-23
-25
-28
-29
-19
7
58
141
257
397
538
640
666
595
440
241
52
-84
-153
-160
-135
-100
-70
-50
-38
-33
-29
-27
-27
-27
-28
-29
-32
-34
-37
-38
-38
-39
-40
-42
-43
-45
-50
-53
-57
-60
-64
-68
-70
-73
-74
-73
-70
-65
-59
-52
-43
-35
-30
-28
-25
-23
-18
-14
-8
-4
-2
-2
-4
-7
-8
-10
-13
-12
-10
-8
-4
1
5
10
16
20
22
23
23
21
18
15
11
7
3
0
-3
-5
-7
-8
-10
-13
-17
-20
-25
-30
-35
-40
-45
-52
-55
-62
-64
-64
-64
-62
-58
-52
-44
-35
-28
-22
-17
-12
-8
-3
3
12
21
28
33
36
36
33
31
27
26
25
25
23
23
21
17
13
10
5
2
0
-3
-4
-7
-7
-8
-8
-8
-9
-10
-12
-13
-14
-17
-18
-19
-22
-24
-28
-32
-37
-40
-45
-48
-50
-53
-52
-49
-44
-37
-30
-25
-24
-27
-30
-30
-19
11
70
158
276
411
530
596
581
476
306
117
-39
-134
-164
-147
-112
-77
-50
-34
-25
-22
-20
-20
-22
-23
-24
-27
-28
-30
-32
-34
-37
-38
-42
-43
-47
-48
-50
-53
-55
-58
-60
-63
-67
-69
-70
-72
-69
-67
-62
-53
-47
-38
-32
-27
-25
-24
-23
-19
-14
-9
-5
0
1
2
0
-3
-7
-8
-9
-9
-7
-4
1
6
12
17
22
26
27
28
28
28
26
23
21
17
15
11
8
5
2
-2
-3
-7
-10
-13
-17
-20
-24
-30
-35
-40
-45
-50
-54
-57
-59
-59
-57
-52
-45
-38
-30
-23
-18
-14
-10
-8
-2
7
17
27
35
40
38
37
33
30
27
26
25
23
21
20
17
15
13
10
7
2
-4
-10
-15
-12
8
55
130
233
350
446
488
453
340
178
15
-110
-179
-192
-170
-139
-113
-97
-87
-82
-79
-77
-73
-68
-62
-53
-44
-38
-33
-29
-27
-23
-18
-10
-2
5
13
17
21
22
20
17
15
11
10
8
8
8
8
8
7
6
5
1
-2
-5
-9
-13
-18
-20
-24
-28
-29
-30
-32
-32
-29
-28
-25
-24
-22
-19
-17
-14
-13
-14
-19
-25
-33
-39
-45
-49
-50
-49
-45
-39
-34
-28
-25
-24
-24
-24
-23
-20
-15
-9
-2
5
8
12
15
17
18
18
17
15
12
12
10
10
8
7
5
5
2
0
-3
-8
-13
-15
-18
-19
-20
-23
-25
-29
-30
-33
-33
-34
-34
-34
-35
-37
-39
-43
-47
-50
-55
-62
-65
-69
-70
-70
-68
-65
-60
-54
-48
-43
-42
-42
-43
-38
-20
17
85
181
303
430
527
562
512
383
208
36
-94
-163
-174
-150
-113
-78
-50
-34
-24
-19
-18
-22
-23
-24
-25
-25
-25
-25
-27
-25
-25
-24
-25
-27
-29
-34
-38
-40
-43
-44
-45
-49
-53
-57
-60
-60
-58
-54
-48
-43
-37
-29
-22
-14
-9
-8
-8
-10
-13
-13
-9
-3
5
10
13
16
18
22
26
30
32
33
36
37
37
38
38
38
37
36
35
31
27
23
20
15
11
8
6
5
3
3
2
1
-2
-4
-8
-12
-14
-18
-20
-22
-24
-25
-27
-29
-32
-37
-39
-43
-45
-48
-48
-48
-45
-42
-34
-29
-23
-19
-15
-13
-9
-5
1
6
12
20
25
28
32
31
30
26
22
16
13
11
8
7
6
5
3
1
-3
-9
-18
-28
-35
-35
-18
25
100
206
333
451
525
523
433
278
97
-63
-172
-222
-223
-202
-175
-153
-135
-125
-119
-115
-112
-109
-104
-97
-88
-78
-69
-62
-57
-54
-53
-50
-45
-38
-28
-18
-9
-3
2
6
7
8
8
8
7
6
6
5
5
6
5
5
2
0
-2
-5
-10
-14
-20
-24
-28
-32
-34
-35
-35
-34
-33
-29
-25
-20
-15
-9
-3
1
2
0
-4
-10
-18
-25
-32
-37
-40
-43
-42
-39
-35
-30
-23
-17
-13
-8
-7
-5
-4
0
5
11
17
22
27
31
35
35
35
32
31
28
27
26
25
22
20
17
16
15
12
11
8
6
2
1
0
1
1
3
3
3
1
0
-3
-7
-9
-13
-17
-18
-20
-25
-30
-37
-44
-49
-55
-58
-59
-59
-57
-54
-52
-47
-42
-35
-32
-29
-28
-28
-27
-24
-18
-9
0
6
11
13
16
16
17
18
17
16
15
10
5
-4
-12
-14
-4
25
81
168
283
410
510
551
512
390
215
38
-99
-179
-199
-180
-149
-117
-92
-74
-64
-60
-59
-60
-64
-65
-65
-65
-67
-68
-68
-67
-64
-60
-55
-49
-43
-38
-33
-30
-27
-25
-20
-17
-10
-4
3
10
15
18
20
20
18
16
13
12
11
8
6
2
0
-8
-13
-18
-22
-24
-27
-29
-30
-32
-33
-32
-27
-22
-14
-8
-3
0
1
1
0
-2
-4
-7
-9
-12
-17
-20
-25
-30
-34
-40
-43
-47
-49
-50
-50
-48
-43
-38
-32
-27
-24
-22
-19
-17
-10
-4
3
11
18
23
26
28
27
26
23
21
18
17
16
15
13
12
11
8
7
6
5
3
2
1
-2
-2
-3
-7
-8
-8
-9
-12
-14
-15
-17
-18
-19
-22
-24
-28
-30
-35
-43
-53
-67
-75
-74
-52
-3
81
200
338
463
540
536
438
275
88
-68
-167
-198
-179
-139
-93
-54
-25
-7
3
10
12
12
11
11
11
11
10
10
7
5
2
0
0
-2
-2
0
-2
-2
-4
-4
-7
-8
-10
-12
-13
-14
-15
-15
-14
-14
-15
-18
-22
-28
-35
-43
-50
-58
-63
-68
-70
-70
-69
-64
-59
-52
-45
-39
-32
-25
-15
-5
7
20
30
37
40
40
36
28
21
13
8
2
-2
-5
-8
-10
-14
-17
-17
-19
-20
-22
-23
-24
-25
-27
-28
-28
-28
-28
-28
-28
-28
-27
-27
-25
-25
-25
-27
-28
-30
-33
-37
-39
-43
-48
-52
-55
-59
-59
-58
-55
-48
-40
-32
-25
-19
-15
-14
-10
-5
0
7
15
22
27
31
33
33
32
28
26
23
21
18
16
15
13
12
10
3
-4
-13
-13
2
42
112
216
350
487
590
621
560
413
220
33
-103
-174
-188
-169
-137
-109
-88
-75
-70
-69
-69
-70
-72
-73
-72
-68
-64
-59
-53
-47
-42
-38
-35
-33
-29
-24
-19
-13
-7
-2
2
3
3
2
1
1
0
0
-2
-3
-4
-5
-7
-9
-12
-14
-18
-22
-27
-29
-33
-35
-38
-38
-38
-37
-37
-34
-30
-25
-22
-19
-14
-10
-8
-7
-7
-8
-10
-13
-18
-20
-25
-30
-33
-35
-34
-30
-25
-18
-14
-9
-5
-4
-4
-2
0
6
11
16
20
23
23
22
21
18
16
13
12
10
8
7
6
5
3
1
0
-3
-4
-5
-5
-7
-8
-10
-10
-10
-10
-9
-9
-9
-10
-12
-12
-14
-17
-19
-23
-25
-29
-34
-39
-43
-49
-53
-55
-57
-54
-52
-48
-43
-37
-30
-27
-23
-22
-19
-18
-14
-8
1
11
20
26
30
32
31
28
26
23
22
20
18
15
10
3
-2
-2
11
46
108
200
313
431
515
532
468
331
158
-3
-117
-172
-175
-152
-119
-92
-70
-58
-52
-49
-49
-50
-53
-57
-60
-62
-64
-64
-63
-58
-54
-49
-43
-39
-34
-32
-29
-25
-22
-17
-8
1
11
17
21
22
22
22
20
18
17
17
16
13
12
8
5
0
-5
-10
-14
-17
-20
-23
-25
-28
-29
-29
-28
-25
-22
-19
-14
-10
-5
-2
1
3
2
0
-5
-10
-15
-20
-27
-30
-35
-38
-39
-39
-38
-34
-30
-25
-22
-18
-15
-15
-14
-12
-8
-2
5
12
18
22
23
21
20
16
13
11
11
8
7
6
5
2
1
0
-2
-4
-4
-5
-5
-5
-5
-5
-7
-8
-10
-10
-12
-15
-17
-18
-20
-23
-25
-29
-35
-44
-52
-55
-48
-20
32
115
223
343
442
486
452
338
176
11
-115
-185
-199
-174
-134
-95
-62
-35
-17
-5
2
5
6
5
3
3
2
1
-2
-3
-4
-5
-7
-8
-9
-12
-14
-18
-20
-22
-23
-24
-24
-24
-24
-24
-25
-24
-24
-27
-28
-29
-30
-33
-35
-39
-44
-49
-54
-59
-63
-65
-67
-67
-64
-59
-52
-42
-30
-20
-10
-2
5
7
10
15
21
26
32
36
37
36
32
27
22
18
15
12
11
10
10
8
6
3
0
-3
-5
-8
-9
-9
-10
-10
-12
-13
-14
-15
-17
-18
-19
-22
-24
-27
-29
-32
-35
-39
-42
-47
-50
-54
-57
-60
-62
-64
-65
-68
-67
-64
-58
-52
-44
-37
-32
-29
-28
-28
-28
-25
-19
-13
-4
5
11
16
18
18
16
11
6
-3
-7
0
21
68
142
243
361
471
537
532
445
292
118
-34
-135
-178
-173
-147
-115
-88
-70
-58
-52
-50
-50
-52
-53
-54
-55
-57
-59
-62
-65
-69
-70
-73
-73
-73
-70
-65
-59
-53
-45
-39
-35
-33
-30
-28
-23
-17
-9
0
5
11
15
16
15
13
11
8
6
5
5
3
2
1
0
-2
-4
-4
-3
-2
2
6
10
13
17
21
23
23
23
22
18
15
8
3
0
-4
-8
-12
-15
-22
-25
-30
-35
-40
-44
-48
-52
-53
-54
-53
-52
-47
-42
-35
-30
-25
-23
-19
-15
-9
-2
6
13
21
27
30
30
30
28
27
25
23
21
20
17
13
11
8
6
5
2
0
-2
-2
-3
-4
-7
-8
-10
-12
-12
-14
-17
-18
-20
-22
-23
-25
-27
-29
-32
-34
-38
-42
-45
-49
-52
-53
-53
-52
-49
-47
-47
-47
-47
-39
-19
25
100
210
346
482
578
597
525
372
183
12
-107
-158
-157
-127
-90
-59
-38
-25
-19
-18
-18
-19
-20
-22
-23
-24
-25
-25
-28
-29
-32
-32
-34
-35
-37
-38
-38
-39
-40
-42
-43
-45
-48
-52
-55
-58
-60
-63
-62
-60
-57
-52
-45
-38
-33
-28
-27
-27
-25
-24
-22
-17
-10
-4
1
6
10
12
13
15
17
21
25
27
32
35
36
36
35
31
27
23
18
13
11
6
2
0
-3
-4
-5
-8
-10
-13
-17
-19
-23
-25
-28
-32
-34
-38
-42
-48
-52
-57
-60
-65
-68
-69
-72
-70
-65
-60
-54
-47
-40
-34
-30
-27
-23
-19
-13
-4
5
15
22
28
31
30
28
26
21
20
17
16
13
12
10
7
2
-4
-9
-13
-8
17
65
140
245
366
476
538
526
428
270
93
-53
-145
-178
-168
-140
-112
-90
-77
-70
-69
-70
-70
-72
-73
-72
-68
-64
-57
-50
-44
-39
-35
-33
-32
-29
-23
-18
-9
-2
5
10
12
13
12
10
8
6
6
6
6
6
6
6
5
2
0
-4
-8
-10
-14
-17
-19
-22
-23
-23
-23
-22
-20
-17
-13
-9
-5
-3
-2
0
-3
-7
-9
-15
-22
-27
-33
-38
-42
-44
-44
-43
-40
-35
-29
-24
-22
-19
-18
-17
-14
-9
-4
5
12
17
21
22
22
21
17
16
13
12
11
8
7
5
2
0
-3
-7
-9
-10
-12
-13
-13
-13
-14
-14
-14
-15
-15
-17
-18
-19
-20
-23
-24
-27
-29
-32
-34
-38
-40
-44
-48
-50
-53
-54
-53
-50
-47
-42
-39
-40
-40
-38
-27
2
57
142
257
382
490
541
513
402
237
63
-72
-148
-164
-140
-103
-67
-40
-25
-15
-10
-8
-7
-7
-8
-10
-12
-13
-15
-17
-18
-19
-22
-23
-24
-25
-27
-28
-29
-32
-33
-35
-37
-39
-42
-44
-45
-48
-48
-47
-47
-43
-39
-33
-28
-23
-18
-17
-15
-18
-18
-15
-12
-5
2
10
17
22
26
30
33
37
41
45
47
50
51
50
47
45
40
35
30
26
21
16
11
8
6
2
1
0
-3
-5
-9
-14
-18
-22
-27
-30
-33
-37
-38
-42
-44
-47
-49
-53
-57
-58
-59
-59
-58
-55
-50
-45
-38
-32
-28
-25
-23
-20
-15
-9
0
8
18
26
31
33
33
31
27
25
21
17
13
12
10
7
6
3
2
0
0
-2
-4
-5
-8
-10
-12
-13
-13
-14
-15
-18
-20
-23
-25
-28
-30
-32
-34
-37
-40
-43
-47
-50
-54
-59
-65
-69
-69
-55
-27
26
106
208
323
425
477
457
362
213
53
-70
-140
-154
-132
-93
-59
-34
-18
-9
-5
-4
-3
-3
-4
-4
-4
-5
-7
-8
-9
-12
-14
-17
-19
-22
-23
-24
-27
-28
-29
-30
-33
-34
-35
-37
-38
-38
-40
-40
-43
-45
-48
-50
-53
-55
-55
-55
-53
-49
-45
-40
-35
-33
-30
-29
-28
-25
-20
-13
-3
8
20
32
41
50
53
55
55
53
51
47
45
40
36
31
26
21
17
15
11
8
5
2
-2
-4
-8
-12
-14
-18
-20
-23
-25
-27
-28
-30
-32
-33
-34
-37
-38
-40
-45
-49
-54
-57
-62
-64
-65
-64
-63
-59
-54
-49
-43
-38
-33
-29
-28
-24
-20
-15
-7
1
6
13
18
22
23
22
20
17
13
12
10
10
8
7
5
1
-4
-9
-5
10
47
111
203
317
428
505
516
447
311
145
-8
-117
-168
-172
-149
-120
-97
-80
-70
-67
-65
-68
-70
-72
-73
-73
-70
-67
-62
-55
-48
-40
-34
-30
-29
-28
-27
-24
-19
-13
-7
1
6
11
13
16
16
15
15
13
12
11
8
8
7
6
2
0
-5
-9
-12
-17
-19
-20
-20
-20
-20
-18
-17
-13
-9
-5
-3
1
2
1
-2
-5
-10
-17
-22
-28
-35
-43
-49
-55
-59
-63
-63
-60
-55
-49
-43
-38
-34
-32
-30
-29
-28
-24
-18
-9
0
6
13
18
21
22
21
20
17
16
15
12
11
8
6
2
0
-3
-4
-7
-9
-10
-10
-10
-12
-13
-14
-14
-15
-17
-18
-19
-22
-23
-24
-25
-29
-30
-33
-35
-38
-40
-43
-48
-52
-55
-58
-60
-62
-64
-65
-63
-49
-20
28
106
211
332
441
505
497
410
265
102
-35
-119
-148
-134
-104
-72
-44
-25
-14
-7
-3
-2
-3
-3
-4
-4
-5
-5
-7
-8
-9
-10
-12
-13
-14
-15
-17
-19
-20
-23
-24
-25
-27
-29
-32
-34
-37
-38
-40
-42
-43
-44
-45
-47
-45
-44
-43
-40
-35
-32
-28
-25
-24
-23
-20
-17
-9
-2
8
20
31
42
50
55
58
58
57
56
51
46
41
35
30
25
20
13
8
5
0
-3
-5
-7
-7
-8
-10
-13
-15
-18
-19
-20
-22
-23
-24
-25
-27
-28
-29
-32
-33
-34
-37
-38
-42
-44
-47
-50
-52
-53
-52
-49
-45
-39
-34
-29
-27
-24
-20
-15
-9
0
8
16
22
27
28
27
25
21
18
17
15
13
12
11
10
7
5
2
1
0
-3
-8
-13
-20
-25
-24
-8
30
95
192
310
426
506
516
443
300
125
-34
-145
-195
-197
-172
-143
-118
-102
-90
-84
-79
-73
-67
-59
-52
-45
-42
-38
-35
-32
-27
-19
-12
-4
3
10
13
15
15
13
12
11
11
10
8
8
7
6
6
3
3
2
1
-2
-3
-7
-9
-13
-18
-22
-25
-28
-30
-33
-34
-33
-33
-30
-29
-25
-23
-19
-15
-13
-12
-12
-13
-15
-18
-20
-22
-20
-18
-15
-12
-8
-5
-3
-3
-2
1
5
10
16
22
25
26
25
22
20
16
13
10
10
7
6
5
3
2
0
-2
-3
-4
-4
-4
-4
-7
-8
-10
-12
-13
-14
-15
-15
-17
-18
-20
-22
-24
-25
-28
-30
-33
-37
-40
-44
-48
-53
-55
-55
-55
-54
-50
-45
-40
-34
-29
-27
-24
-22
-19
-13
-7
3
12
21
27
30
30
28
26
23
21
20
18
17
15
12
6
0
-5
-3
10
45
107
197
310
420
496
507
438
301
135
-17
-123
-170
-169
-144
-115
-93
-77
-68
-64
-63
-64
-67
-68
-69
-69
-69
-67
-63
-58
-52
-47
-40
-37
-35
-34
-33
-29
-24
-17
-8
0
7
12
16
17
16
15
13
12
11
11
10
8
6
6
3
1
-4
-8
-12
-15
-19
-22
-24
-25
-25
-24
-23
-19
-15
-10
-7
-4
-3
-2
-2
-2
-4
-8
-13
-19
-25
-30
-37
-40
-43
-44
-43
-42
-38
-34
-32
-28
-25
-24
-24
-24
-23
-19
-13
-7
1
7
11
13
13
12
11
8
6
3
2
1
0
-2
-2
-3
-4
-4
-7
-8
-10
-12
-14
-14
-15
-15
-15
-14
-15
-17
-18
-20
-22
-23
-25
-28
-30
-34
-37
-40
-44
-47
-49
-53
-58
-65
-72
-72
-59
-28
30
117
231
355
456
506
477
371
217
57
-68
-137
-150
-129
-95
-63
-39
-23
-13
-8
-5
-4
-4
-4
-5
-7
-8
-8
-9
-10
-10
-12
-14
-15
-17
-17
-18
-19
-19
-20
-22
-22
-23
-24
-27
-29
-33
-37
-39
-42
-43
-45
-47
-49
-52
-53
-55
-57
-57
-53
-49
-43
-38
-34
-30
-28
-24
-20
-13
-3
8
21
35
45
52
56
57
55
51
45
38
30
21
15
8
5
1
0
-2
-3
-5
-7
-9
-12
-13
-15
-17
-18
-18
-18
-19
-19
-19
-20
-22
-24
-27
-28
-29
-30
-32
-33
-35
-39
-42
-47
-50
-54
-58
-60
-63
-63
-60
-58
-50
-44
-38
-33
-30
-28
-25
-23
-17
-9
0
6
13
18
20
20
18
17
15
12
11
8
7
6
5
3
2
1
0
0
-4
-10
-17
-22
-18
1
46
118
222
346
465
542
546
466
317
141
-17
-125
-177
-182
-162
-137
-114
-98
-87
-82
-78
-74
-69
-64
-58
-50
-45
-40
-37
-34
-32
-28
-23
-17
-8
0
7
12
15
16
15
13
12
11
8
8
7
6
3
1
0
-2
-3
-4
-4
-5
-8
-12
-15
-19
-23
-25
-28
-29
-30
-30
-29
-28
-25
-23
-19
-17
-13
-9
-8
-7
-8
-10
-14
-18
-22
-25
-27
-28
-28
-27
-23
-19
-17
-13
-13
-12
-9
-7
-2
5
10
15
18
21
21
20
17
15
12
10
8
7
7
6
5
3
2
1
0
-2
-3
-3
-5
-8
-9
-12
-13
-15
-17
-18
-20
-20
-22
-24
-25
-27
-29
-32
-34
-37
-39
-43
-47
-49
-53
-55
-57
-57
-54
-50
-47
-40
-35
-30
-28
-25
-23
-19
-14
-8
1
8
12
13
11
15
30
65
127
221
336
450
527
537
465
321
147
-10
-118
-164
-162
-132
-98
-69
-49
-37
-30
-27
-25
-27
-27
-28
-29
-30
-32
-33
-34
-35
-38
-40
-44
-48
-52
-55
-58
-59
-59
-58
-54
-50
-44
-39
-33
-29
-25
-23
-19
-17
-10
-2
6
15
22
27
27
27
25
21
17
13
11
8
7
7
8
10
12
15
18
21
25
27
30
31
30
28
26
23
17
12
7
1
-4
-9
-10
-14
-17
-20
-24
-28
-33
-38
-43
-48
-52
-55
-58
-59
-60
-59
-55
-50
-45
-39
-34
-30
-27
-24
-22
-17
-8
1
11
20
25
27
26
25
21
16
13
11
11
10
10
8
7
6
5
2
1
-2
-3
-3
-4
-7
-8
-9
-12
-13
-15
-15
-18
-20
-22
-24
-25
-28
-29
-32
-34
-39
-47
-57
-65
-68
-58
-27
30
117
232
352
447
481
432
308
142
-17
-132
-180
-175
-137
-90
-50
-23
-8
0
2
3
2
1
1
0
0
0
-2
-3
-5
-7
-8
-9
-10
-12
-13
-14
-15
-17
-18
-20
-22
-24
-24
-25
-25
-27
-28
-28
-29
-32
-34
-35
-39
-40
-44
-47
-49
-52
-52
-49
-45
-40
-35
-30
-25
-20
-15
-9
0
11
25
38
51
61
66
68
67
63
58
52
47
41
36
31
27
22
17
15
11
6
3
0
-5
-9
-14
-18
-20
-23
-25
-27
-29
-30
-33
-34
-37
-38
-39
-39
-40
-42
-44
-48
-49
-53
-57
-62
-65
-68
-70
-70
-69
-64
-59
-52
-44
-38
-33
-29
-27
-23
-19
-13
-4
5
10
15
18
18
18
17
15
13
12
11
10
10
10
8
6
2
-4
-13
-17
-14
2
38
105
198
316
431
515
532
467
331
161
3
-110
-165
-172
-150
-124
-102
-87
-79
-75
-75
-77
-77
-75
-73
-69
-63
-57
-50
-44
-40
-37
-35
-33
-29
-25
-18
-10
-2
6
11
13
15
13
11
10
8
6
5
5
3
3
2
1
0
-4
-5
-9
-13
-15
-18
-20
-23
-24
-25
-27
-27
-25
-24
-22
-17
-13
-8
-4
-3
-3
-5
-9
-14
-20
-25
-33
-39
-45
-49
-50
-50
-47
-42
-35
-30
-25
-23
-22
-22
-23
-20
-18
-12
-5
2
7
12
15
15
15
13
11
10
8
7
7
6
6
5
3
0
-2
-5
-8
-12
-13
-15
-18
-19
-19
-19
-18
-18
-18
-19
-20
-23
-27
-30
-33
-34
-35
-37
-39
-43
-47
-50
-57
-60
-62
-63
-60
-57
-52
-45
-39
-35
-33
-34
-37
-37
-25
3
55
136
246
373
488
556
548
456
301
126
-25
-122
-158
-149
-119
-85
-58
-38
-27
-20
-19
-18
-19
-20
-20
-22
-22
-24
-24
-24
-25
-27
-28
-29
-32
-34
-37
-39
-42
-44
-47
-49
-52
-53
-55
-58
-60
-62
-60
-58
-53
-47
-39
-32
-25
-23
-20
-19
-18
-17
-12
-4
2
8
15
17
20
22
26
28
33
37
40
42
45
45
43
41
38
33
30
23
18
12
7
2
-4
-9
-12
-13
-13
-15
-17
-19
-20
-24
-28
-30
-34
-37
-38
-42
-44
-45
-49
-52
-54
-57
-58
-58
-57
-54
-50
-45
-40
-33
-28
-23
-20
-20
-19
-19
-15
-9
0
7
15
20
25
27
26
25
21
18
15
12
10
10
8
7
5
3
2
1
0
-2
-3
-4
-5
-7
-9
-10
-10
-12
-13
-15
-18
-24
-32
-40
-44
-35
-8
42
123
230
348
445
486
451
338
176
11
-115
-185
-198
-175
-139
-104
-78
-59
-47
-35
-25
-15
-5
2
8
12
12
11
8
5
3
1
1
0
0
0
0
-2
-3
-4
-5
-7
-8
-9
-12
-13
-14
-14
-15
-17
-18
-19
-19
-22
-24
-28
-32
-35
-39
-43
-47
-52
-55
-58
-60
-63
-63
-60
-57
-49
-39
-28
-17
-4
5
12
16
17
18
20
23
27
32
36
38
40
38
36
32
27
22
17
13
10
7
6
3
2
0
-2
-4
-7
-9
-12
-13
-13
-14
-14
-15
-17
-18
-19
-19
-20
-22
-24
-25
-27
-28
-29
-30
-33
-35
-39
-44
-48
-52
-55
-58
-58
-59
-57
-53
-48
-42
-35
-30
-27
-25
-24
-23
-19
-13
-7
1
10
17
21
23
23
23
21
20
17
16
15
13
11
10
6
1
-4
-10
-8
6
42
106
200
317
437
525
546
485
351
180
18
-97
-154
-162
-143
-115
-92
-77
-69
-65
-65
-67
-68
-69
-69
-69
-65
-62
-55
-48
-42
-37
-34
-32
-30
-29
-25
-20
-14
-8
0
6
10
12
12
11
10
8
7
6
6
6
3
2
2
0
-2
-4
-7
-10
-13
-17
-19
-20
-22
-22
-22
-20
-19
-15
-13
-8
-4
-3
0
0
0
-4
-7
-10
-15
-20
-25
-32
-37
-39
-42
-40
-38
-35
-30
-25
-22
-19
-19
-18
-18
-15
-10
-5
0
7
12
15
16
15
12
11
8
6
5
2
1
-2
-3
-5
-7
-9
-9
-9
-10
-12
-13
-14
-15
-15
-15
-15
-17
-17
-18
-19
-20
-23
-24
-27
-29
-32
-35
-38
-42
-44
-48
-52
-54
-57
-58
-60
-63
-67
-63
-52
-25
23
98
202
322
437
510
512
436
295
130
-12
-103
-137
-128
-99
-68
-42
-23
-12
-5
-3
-3
-3
-4
-7
-8
-9
-12
-14
-15
-17
-17
-18
-18
-18
-19
-20
-22
-23
-24
-25
-27
-28
-29
-30
-33
-35
-38
-40
-43
-47
-49
-52
-52
-52
-49
-45
-40
-35
-32
-28
-27
-25
-24
-20
-13
-4
6
18
28
37
45
50
53
55
55
53
52
48
43
38
33
27
22
17
13
10
5
1
-2
-4
-8
-12
-14
-17
-18
-20
-22
-23
-25
-27
-29
-30
-33
-34
-35
-38
-39
-43
-45
-48
-52
-54
-55
-57
-55
-53
-49
-43
-37
-30
-27
-24
-23
-22
-18
-13
-4
3
12
18
22
23
22
20
17
15
13
12
11
10
7
6
3
1
0
0
0
-2
-3
-5
-7
-8
-9
-12
-13
-14
-15
-17
-18
-19
-20
-24
-30
-38
-45
-45
-34
-2
53
138
247
356
435
452
390
258
97
-49
-149
-193
-187
-154
-117
-83
-57
-35
-19
-5
5
11
15
15
15
12
10
7
5
3
1
0
0
-2
-3
-4
-5
-7
-8
-10
-13
-14
-15
-17
-17
-18
-20
-20
-20
-22
-20
-22
-23
-25
-27
-30
-34
-38
-43
-47
-52
-57
-59
-60
-60
-58
-52
-43
-34
-23
-12
-2
7
15
21
28
37
45
53
60
63
63
60
56
48
42
36
30
27
23
21
17
15
12
8
5
1
-2
-5
-9
-12
-15
-19
-20
-23
-24
-24
-25
-28
-29
-30
-32
-33
-33
-34
-35
-38
-40
-44
-47
-52
-55
-58
-62
-64
-65
-64
-60
-55
-50
-43
-38
-34
-30
-29
-28
-24
-19
-12
-4
3
10
15
17
18
17
17
16
13
12
11
11
10
8
6
3
0
-7
-14
-17
-8
18
71
152
262
382
482
528
497
387
226
58
-74
-152
-174
-160
-134
-108
-90
-79
-75
-74
-74
-74
-74
-73
-69
-64
-58
-52
-44
-39
-34
-32
-30
-29
-27
-23
-15
-9
-2
3
7
10
11
12
11
10
10
7
7
6
6
6
7
7
5
1
-3
-7
-10
-14
-17
-19
-20
-22
-22
-23
-22
-22
-19
-18
-13
-9
-7
-3
-3
-4
-8
-12
-17
-24
-29
-35
-42
-45
-47
-48
-45
-43
-38
-33
-27
-23
-22
-20
-22
-20
-18
-13
-7
0
7
11
13
15
13
12
10
8
8
7
7
6
5
3
2
0
-3
-4
-7
-9
-10
-12
-13
-13
-15
-15
-15
-17
-18
-19
-20
-22
-22
-22
-23
-24
-27
-32
-34
-38
-42
-45
-49
-53
-55
-58
-59
-62
-64
-63
-57
-40
-7
48
131
241
361
463
516
495
393
242
81
-47
-123
-143
-128
-97
-67
-43
-25
-15
-12
-9
-8
-8
-8
-8
-9
-9
-10
-13
-15
-17
-18
-20
-22
-23
-23
-24
-25
-25
-27
-28
-30
-34
-35
-39
-43
-45
-48
-52
-53
-54
-55
-55
-54
-53
-50
-47
-43
-39
-35
-34
-33
-32
-30
-25
-19
-10
1
11
23
35
42
48
51
52
52
50
46
41
35
28
21
16
10
3
1
-2
-5
-8
-10
-12
-14
-15
-18
-20
-22
-24
-25
-25
-27
-27
-28
-28
-29
-30
-32
-33
-37
-38
-39
-42
-44
-48
-52
-54
-57
-59
-58
-55
-52
-47
-39
-35
-32
-29
-27
-24
-20
-14
-7
3
11
18
23
25
23
21
17
15
11
10
8
7
7
6
5
5
3
3
3
2
1
0
-4
-9
-18
-24
-27
-19
7
60
142
251
371
472
520
490
378
216
43
-95
-178
-205
-194
-168
-140
-117
-97
-82
-69
-59
-50
-43
-38
-35
-33
-30
-27
-22
-13
-4
2
10
13
16
16
15
12
10
8
8
7
6
5
2
1
1
1
0
0
-3
-3
-4
-5
-7
-9
-12
-15
-19
-23
-27
-30
-34
-35
-38
-39
-39
-38
-37
-34
-32
-29
-27
-24
-22
-20
-19
-18
-17
-14
-12
-8
-5
-3
-2
-3
-3
-3
0
3
10
15
21
23
23
23
21
17
13
11
7
3
2
0
0
0
-2
-2
-2
-2
-2
-3
-3
-4
-7
-8
-9
-10
-12
-13
-14
-15
-18
-19
-22
-24
-25
-27
-29
-30
-33
-37
-40
-44
-49
-53
-54
-57
-59
-57
-54
-50
-43
-37
-32
-28
-25
-24
-22
-17
-10
-3
5
13
20
23
23
22
21
20
17
16
15
15
13
12
11
8
7
5
1
-4
-12
-14
-9
12
60
135
238
358
462
520
502
403
247
76
-64
-152
-180
-172
-144
-117
-97
-84
-78
-74
-73
-72
-69
-64
-59
-52
-45
-39
-35
-34
-33
-33
-30
-24
-18
-10
-2
5
11
13
13
12
11
10
8
7
6
5
5
3
2
2
0
0
-2
-3
-7
-9
-13
-17
-19
-20
-23
-24
-25
-27
-28
-27
-27
-25
-23
-20
-17
-14
-12
-12
-12
-12
-13
-15
-19
-22
-25
-27
-27
-25
-20
-15
-13
-9
-8
-5
-5
-3
1
6
12
18
21
23
25
22
20
15
10
5
1
0
-3
-5
-7
-8
-8
-9
-10
-9
-9
-10
-12
-13
-13
-13
-14
-15
-15
-18
-18
-18
-18
-18
-19
-22
-24
-28
-33
-37
-40
-44
-48
-53
-57
-63
-69
-73
-68
-47
-5
61
156
271
388
475
498
446
323
163
15
-89
-137
-135
-107
-72
-43
-24
-12
-5
-4
-3
-3
-3
-4
-5
-7
-9
-12
-13
-14
-14
-15
-15
-17
-17
-17
-17
-18
-18
-18
-19
-20
-23
-24
-25
-27
-29
-32
-34
-37
-40
-44
-47
-49
-52
-52
-52
-49
-44
-40
-35
-33
-32
-30
-28
-24
-17
-7
6
21
33
45
52
57
57
55
52
47
42
38
33
28
23
17
12
8
5
2
1
0
-3
-4
-7
-9
-10
-13
-14
-17
-18
-20
-23
-24
-27
-30
-32
-34
-35
-35
-38
-42
-44
-49
-53
-55
-58
-58
-59
-58
-54
-50
-44
-38
-34
-29
-27
-24
-19
-14
-4
6
15
22
28
30
30
27
25
20
17
13
11
11
10
7
6
5
2
1
1
0
-2
-2
-4
-5
-7
-8
-9
-10
-13
-14
-14
-15
-18
-20
-23
-25
-29
-33
-35
-39
-43
-45
-49
-55
-62
-65
-63
-44
-5
57
150
265
378
461
482
426
300
138
-7
-107
-148
-138
-103
-65
-35
-15
-4
1
2
2
2
0
-2
-3
-4
-5
-7
-8
-9
-10
-12
-13
-15
-17
-18
-20
-22
-22
-24
-24
-27
-27
-29
-33
-34
-37
-39
-42
-43
-44
-47
-49
-52
-53
-55
-57
-57
-57
-53
-49
-44
-40
-38
-35
-33
-29
-22
-13
-2
10
22
32
42
48
52
55
56
55
51
46
42
37
32
28
23
20
17
13
11
8
5
3
1
-3
-5
-9
-12
-14
-17
-19
-23
-27
-30
-33
-35
-38
-39
-42
-44
-47
-49
-52
-54
-55
-58
-59
-59
-60
-60
-58
-54
-49
-43
-38
-33
-30
-27
-23
-18
-10
-2
7
15
21
25
25
23
21
18
16
13
12
11
10
8
7
7
7
6
5
5
2
-4
-12
-19
-23
-17
7
56
133
240
360
463
517
493
390
232
62
-75
-160
-189
-182
-157
-133
-113
-99
-90
-83
-77
-70
-63
-54
-48
-42
-39
-37
-34
-30
-24
-17
-8
1
8
12
15
16
16
15
13
12
11
11
10
10
8
10
7
7
5
5
2
1
-2
-7
-10
-14
-18
-23
-24
-27
-29
-32
-33
-34
-34
-33
-32
-29
-25
-23
-20
-18
-17
-18
-19
-23
-25
-29
-30
-30
-29
-27
-24
-22
-19
-19
-19
-20
-19
-17
-12
-5
0
5
7
8
10
10
8
10
10
10
8
8
7
6
5
2
2
2
1
0
-3
-4
-8
-9
-10
-13
-14
-15
-17
-18
-19
-22
-23
-23
-24
-27
-29
-33
-37
-43
-47
-52
-55
-59
-63
-65
-67
-65
-63
-59
-53
-47
-40
-35
-32
-29
-28
-25
-22
-17
-8
1
8
15
20
22
23
22
20
17
12
7
3
1
8
32
80
153
255
372
476
532
516
418
263
92
-49
-138
-169
-160
-133
-104
-82
-64
-54
-48
-45
-45
-47
-49
-53
-57
-60
-64
-68
-69
-70
-69
-67
-63
-57
-52
-44
-38
-34
-32
-29
-27
-24
-19
-13
-4
5
13
20
23
25
23
21
18
16
12
11
8
7
6
2
0
-3
-5
-8
-9
-10
-10
-9
-8
-7
-3
1
6
11
13
15
13
11
7
2
-2
-8
-12
-18
-24
-29
-34
-39
-43
-47
-50
-52
-53
-53
-52
-49
-44
-38
-34
-30
-28
-25
-24
-22
-15
-9
-2
8
16
22
25
25
25
22
21
18
16
13
11
8
6
6
3
3
2
1
1
0
0
0
-2
-3
-4
-5
-8
-10
-12
-14
-15
-18
-19
-22
-24
-27
-28
-30
-34
-38
-43
-47
-55
-63
-69
-74
-67
-43
5
81
186
308
423
496
496
417
275
111
-29
-117
-148
-133
-98
-63
-35
-18
-9
-5
-3
-2
-2
-2
-3
-5
-5
-7
-8
-9
-9
-9
-10
-10
-13
-14
-15
-15
-17
-18
-19
-22
-23
-24
-27
-29
-30
-32
-33
-37
-39
-40
-43
-45
-50
-52
-55
-57
-57
-54
-49
-44
-39
-34
-30
-27
-24
-19
-13
-4
10
22
36
47
55
60
60
57
52
46
40
33
28
23
18
15
10
6
2
-2
-4
-7
-9
-10
-10
-13
-14
-17
-18
-18
-19
-20
-22
-23
-24
-25
-28
-29
-30
-32
-33
-35
-39
-42
-44
-49
-54
-59
-62
-63
-62
-58
-53
-45
-39
-34
-30
-27
-23
-19
-14
-8
1
11
18
25
26
26
25
21
18
16
13
12
11
10
8
6
3
2
0
-4
-10
-14
-18
-13
11
57
133
241
362
473
536
523
427
270
96
-50
-143
-177
-168
-143
-117
-98
-85
-79
-77
-74
-73
-70
-67
-60
-54
-47
-40
-37
-33
-32
-29
-25
-20
-13
-5
3
10
13
15
13
11
10
7
7
6
6
6
5
5
2
1
0
-2
-4
-5
-8
-10
-15
-18
-20
-23
-24
-25
-25
-25
-25
-24
-23
-20
-17
-14
-10
-9
-8
-8
-10
-14
-18
-24
-29
-32
-35
-35
-32
-28
-24
-19
-17
-15
-14
-14
-12
-7
-2
5
12
16
20
20
18
15
11
8
6
3
1
0
-2
-3
-4
-5
-7
-7
-9
-12
-14
-17
-18
-19
-22
-22
-20
-22
-20
-20
-20
-22
-23
-24
-25
-28
-29
-34
-38
-42
-45
-49
-53
-55
-58
-59
-58
-55
-52
-45
-39
-33
-28
-25
-24
-25
-27
-24
-18
1
36
95
177
285
401
500
546
517
406
243
72
-63
-142
-160
-140
-104
-70
-45
-30
-22
-18
-18
-18
-18
-17
-18
-18
-19
-20
-22
-23
-24
-25
-29
-30
-33
-35
-37
-40
-43
-47
-49
-52
-53
-53
-52
-48
-44
-38
-32
-25
-20
-17
-14
-12
-9
-4
0
7
13
20
23
25
23
22
20
18
18
18
21
25
28
31
35
37
38
37
36
33
31
27
22
18
15
10
5
0
-4
-8
-13
-17
-19
-23
-27
-30
-32
-35
-39
-44
-48
-53
-58
-62
-65
-68
-68
-68
-65
-63
-58
-52
-44
-38
-33
-30
-28
-25
-22
-14
-7
2
12
20
25
26
23
22
18
17
15
12
10
7
7
5
3
3
2
1
0
-2
-3
-4
-5
-7
-8
-9
-10
-13
-15
-18
-20
-23
-25
-27
-28
-29
-32
-35
-40
-47
-57
-65
-69
-65
-43
2
73
176
295
405
471
466
378
232
68
-68
-150
-172
-152
-109
-69
-37
-15
-3
3
3
2
1
1
0
0
-2
-2
-3
-4
-7
-9
-10
-12
-13
-13
-14
-17
-19
-19
-20
-22
-23
-24
-25
-28
-29
-32
-33
-34
-34
-35
-38
-40
-45
-49
-54
-58
-59
-59
-57
-54
-50
-45
-39
-34
-29
-24
-18
-12
-5
6
18
31
43
53
60
61
61
57
52
48
42
38
33
27
21
17
12
10
8
6
3
1
-3
-7
-9
-13
-17
-19
-22
-24
-25
-25
-27
-28
-29
-32
-33
-35
-37
-39
-42
-43
-45
-49
-52
-57
-62
-67
-70
-72
-70
-68
-62
-55
-47
-40
-34
-30
-27
-25
-23
-19
-13
-7
2
7
12
15
16
16
15
13
13
12
12
11
11
8
7
5
0
-7
-14
-17
-10
13
61
137
242
365
473
535
522
428
273
102
-43
-137
-173
-168
-144
-118
-98
-84
-77
-74
-74
-74
-75
-77
-75
-73
-67
-62
-54
-47
-40
-37
-35
-34
-33
-28
-22
-13
-3
6
11
15
15
15
13
12
12
11
11
12
13
12
12
11
8
6
2
-3
-7
-10
-13
-15
-19
-20
-20
-20
-20
-18
-17
-14
-12
-9
-7
-4
-2
-2
-3
-7
-12
-19
-25
-33
-38
-43
-44
-47
-48
-45
-44
-39
-35
-30
-28
-27
-25
-24
-22
-18
-12
-4
5
11
15
18
18
18
17
16
13
11
10
8
7
6
5
3
2
1
0
-3
-4
-4
-5
-7
-8
-9
-9
-10
-12
-13
-14
-17
-19
-22
-24
-25
-27
-30
-32
-34
-38
-43
-47
-53
-58
-60
-63
-63
-62
-58
-53
-47
-40
-35
-32
-29
-27
-24
-19
-12
-4
3
11
17
22
23
23
22
21
20
18
18
18
17
16
13
12
10
7
3
-2
-8
-14
-12
7
48
117
217
336
451
522
523
442
296
123
-29
-132
-177
-177
-154
-128
-105
-89
-79
-74
-72
-69
-67
-63
-57
-50
-43
-37
-33
-30
-28
-27
-24
-19
-14
-7
0
5
10
11
12
11
8
6
5
3
3
5
5
5
5
3
2
1
-2
-4
-7
-8
-10
-14
-17
-20
-24
-27
-28
-29
-29
-29
-28
-27
-24
-22
-19
-15
-13
-12
-13
-14
-15
-19
-22
-24
-25
-27
-27
-25
-23
-19
-15
-13
-12
-10
-9
-7
-3
1
7
12
18
21
22
22
21
18
16
13
11
10
8
7
5
3
3
1
-2
-3
-5
-8
-9
-10
-12
-12
-13
-15
-15
-15
-14
-13
-14
-15
-15
-18
-20
-23
-27
-29
-33
-37
-39
-43
-47
-50
-53
-54
-54
-52
-48
-42
-38
-35
-37
-39
-35
-20
15
78
173
295
422
523
565
521
397
226
56
-73
-140
-152
-128
-94
-63
-40
-27
-19
-15
-15
-17
-18
-18
-19
-20
-20
-22
-22
-23
-23
-24
-24
-27
-28
-30
-33
-35
-39
-40
-44
-48
-50
-54
-57
-58
-59
-58
-58
-54
-48
-42
-34
-28
-22
-19
-18
-18
-17
-15
-10
-5
2
10
15
18
21
23
26
28
32
36
38
41
41
41
38
35
30
25
20
15
10
5
1
-4
-7
-9
-10
-12
-13
-17
-18
-20
-23
-25
-29
-33
-35
-38
-39
-42
-45
-48
-50
-54
-55
-57
-57
-57
-54
-52
-47
-43
-37
-32
-29
-27
-25
-23
-18
-13
-3
6
15
22
26
27
26
23
22
20
17
15
13
12
10
7
5
2
0
-3
-4
-5
-5
-7
-8
-10
-15
-22
-27
-28
-18
12
67
151
260
373
462
492
440
315
145
-20
-144
-210
-219
-195
-162
-128
-102
-83
-67
-55
-47
-42
-37
-34
-30
-27
-19
-12
-3
5
11
15
16
16
13
11
8
6
5
5
2
0
-2
-4
-7
-7
-8
-8
-8
-7
-7
-5
-8
-8
-8
-9
-12
-13
-15
-17
-20
-22
-24
-24
-27
-27
-28
-27
-25
-24
-22
-19
-15
-13
-9
-7
-4
0
1
5
5
3
1
-2
-2
1
5
11
20
26
31
32
31
28
25
18
15
11
8
5
2
0
-2
-3
-4
-5
-8
-9
-12
-13
-14
-15
-17
-18
-18
-19
-20
-22
-25
-29
-32
-34
-37
-39
-39
-39
-42
-44
-47
-50
-54
-57
-60
-63
-63
-62
-59
-55
-50
-44
-39
-35
-33
-32
-30
-28
-22
-13
-3
6
15
20
20
16
10
7
16
40
88
166
268
383
482
528
500
392
233
65
-69
-147
-168
-149
-115
-85
-62
-47
-37
-33
-32
-32
-32
-34
-35
-39
-42
-44
-48
-49
-54
-58
-62
-64
-67
-67
-65
-63
-58
-52
-45
-38
-33
-28
-25
-24
-22
-18
-13
-5
3
10
16
21
22
22
21
18
15
12
8
8
6
6
5
5
5
5
6
8
10
12
17
20
22
23
23
21
18
15
10
6
0
-7
-12
-17
-22
-25
-29
-34
-38
-43
-48
-52
-55
-59
-64
-65
-65
-64
-60
-55
-49
-43
-38
-34
-32
-30
-30
-29
-24
-15
-7
3
11
17
20
22
21
20
16
11
8
5
3
5
6
6
6
6
5
3
2
1
0
-2
-3
-4
-7
-8
-10
-12
-14
-17
-19
-22
-24
-27
-29
-30
-33
-34
-38
-43
-50
-59
-68
-70
-63
-35
16
97
206
328
433
487
465
365
210
48
-80
-152
-165
-139
-99
-60
-32
-14
-4
0
1
1
1
0
0
0
-2
-2
-3
-4
-7
-8
-10
-13
-14
-15
-17
-17
-18
-19
-20
-23
-24
-25
-27
-28
-29
-32
-34
-35
-35
-37
-38
-40
-43
-47
-52
-57
-59
-60
-60
-57
-52
-44
-38
-30
-24
-18
-12
-5
3
12
23
35
45
53
57
58
56
53
47
41
35
28
22
18
13
10
7
5
2
-2
-5
-9
-12
-15
-17
-19
-20
-22
-23
-23
-23
-23
-23
-23
-25
-27
-28
-29
-32
-33
-35
-37
-40
-43
-48
-53
-58
-60
-65
-69
-69
-68
-64
-58
-49
-42
-35
-33
-30
-29
-28
-24
-19
-10
-2
6
11
15
17
15
15
12
11
10
8
7
6
6
5
3
1
-4
-10
-18
-22
-14
12
63
145
253
377
485
541
520
417
258
86
-57
-147
-178
-170
-147
-120
-99
-87
-80
-77
-78
-79
-79
-77
-73
-68
-62
-54
-48
-42
-38
-35
-33
-32
-29
-23
-15
-7
1
8
13
17
16
15
13
10
7
6
5
3
3
3
3
2
0
-2
-4
-7
-9
-13
-15
-18
-20
-23
-24
-24
-23
-20
-18
-14
-10
-7
-3
-2
1
1
0
-3
-5
-10
-18
-24
-32
-37
-40
-44
-42
-40
-34
-28
-23
-18
-17
-15
-17
-14
-10
-5
0
7
13
18
21
21
20
17
16
13
12
11
10
8
6
6
5
3
2
0
-4
-5
-8
-12
-14
-14
-14
-14
-13
-14
-14
-14
-15
-17
-18
-20
-24
-27
-30
-33
-37
-40
-44
-49
-52
-54
-55
-55
-54
-50
-45
-39
-32
-28
-23
-20
-20
-23
-24
-20
-8
25
78
158
265
387
496
560
548
453
297
120
-28
-122
-154
-143
-112
-79
-54
-38
-28
-23
-20
-22
-23
-23
-24
-24
-25
-27
-27
-28
-29
-30
-32
-33
-34
-37
-39
-43
-45
-49
-53
-55
-57
-58
-58
-55
-53
-48
-40
-33
-27
-22
-19
-17
-14
-12
-9
-4
2
10
15
20
21
21
20
17
16
16
17
21
25
27
32
35
37
38
37
35
32
27
22
17
12
7
3
-2
-5
-9
-12
-13
-15
-19
-22
-24
-27
-29
-32
-35
-39
-43
-47
-52
-54
-58
-59
-60
-60
-58
-54
-48
-42
-34
-28
-24
-20
-18
-15
-10
-4
5
13
22
28
31
31
28
26
23
22
20
17
17
15
12
11
8
6
5
2
1
-2
-3
-4
-7
-8
-8
-8
-9
-10
-13
-14
-15
-17
-19
-20
-23
-25
-28
-32
-37
-43
-50
-59
-65
-63
-44
-4
65
163
281
393
466
468
390
246
81
-60
-148
-172
-148
-107
-63
-32
-13
-3
1
2
2
2
1
0
0
-2
-3
-4
-5
-5
-7
-8
-10
-12
-13
-14
-15
-18
-19
-23
-25
-27
-29
-29
-30
-30
-32
-33
-34
-35
-38
-39
-42
-43
-47
-50
-53
-54
-55
-54
-52
-47
-42
-35
-30
-27
-22
-17
-9
1
13
28
43
55
62
66
65
61
56
51
46
41
37
32
28
23
20
16
12
8
6
2
0
-3
-7
-10
-13
-17
-19
-22
-23
-25
-28
-30
-32
-34
-35
-37
-39
-42
-45
-48
-50
-54
-57
-59
-63
-64
-67
-67
-64
-59
-53
-47
-39
-34
-32
-32
-29
-25
-20
-13
-3
6
13
20
20
20
18
16
15
13
12
12
11
10
7
6
1
-3
-8
-13
-14
-4
25
77
160
268
387
485
528
495
381
220
51
-80
-155
-175
-160
-134
-108
-89
-79
-77
-75
-75
-75
-75
-73
-70
-65
-59
-52
-45
-39
-35
-34
-33
-32
-28
-23
-14
-5
5
11
16
18
18
18
15
13
12
11
11
10
7
6
5
5
2
0
-4
-7
-9
-12
-13
-14
-15
-18
-19
-20
-19
-18
-15
-12
-8
-4
-2
2
2
2
0
-5
-10
-17
-24
-30
-35
-42
-44
-48
-48
-47
-44
-39
-34
-29
-27
-27
-27
-25
-22
-17
-9
-2
3
8
11
12
12
11
10
10
8
8
7
6
5
3
2
1
0
-2
-3
-4
-5
-9
-12
-14
-15
-17
-18
-19
-20
-22
-22
-24
-25
-27
-28
-29
-32
-33
-35
-39
-43
-47
-50
-55
-58
-60
-62
-59
-55
-50
-43
-37
-30
-25
-22
-19
-17
-15
-13
-12
-5
8
40
90
166
267
383
486
542
523
425
267
96
-47
-134
-164
-150
-120
-88
-62
-42
-30
-25
-23
-22
-23
-24
-24
-25
-27
-27
-28
-29
-29
-30
-33
-35
-39
-42
-45
-48
-52
-55
-59
-62
-63
-62
-59
-54
-48
-39
-30
-24
-19
-17
-15
-15
-14
-12
-5
0
6
10
11
12
12
12
11
11
11
11
13
16
20
25
28
32
33
35
33
31
27
22
17
12
8
3
0
-4
-7
-9
-12
-14
-18
-23
-28
-30
-34
-37
-40
-44
-48
-52
-57
-62
-64
-68
-69
-70
-70
-68
-64
-59
-52
-44
-38
-32
-28
-25
-22
-20
-14
-8
1
7
15
20
21
22
21
20
17
15
13
11
10
10
7
7
6
6
5
2
0
-2
-4
-5
-7
-7
-8
-8
-9
-10
-13
-15
-18
-20
-24
-27
-29
-30
-33
-35
-42
-50
-58
-64
-58
-34
16
97
208
332
440
496
476
372
213
46
-88
-164
-182
-158
-118
-78
-43
-18
-3
3
7
7
6
5
2
2
2
2
1
1
0
-2
-2
-3
-5
-7
-8
-9
-10
-12
-13
-15
-17
-18
-20
-22
-24
-25
-27
-27
-28
-29
-32
-34
-38
-43
-48
-54
-59
-63
-67
-68
-68
-65
-60
-54
-45
-37
-28
-19
-10
-3
5
15
23
35
45
52
56
56
53
50
43
37
31
25
20
16
12
8
6
3
1
0
-2
-4
-8
-10
-13
-15
-17
-18
-18
-19
-19
-20
-20
-22
-23
-24
-25
-27
-29
-30
-32
-34
-37
-40
-45
-50
-54
-58
-62
-63
-63
-59
-54
-47
-39
-32
-28
-24
-23
-20
-18
-12
-5
2
11
18
23
26
27
26
23
21
18
17
15
12
11
7
6
5
0
-5
-10
-13
-4
22
76
158
272
396
501
552
522
410
245
72
-65
-147
-170
-158
-129
-104
-85
-75
-70
-70
-70
-72
-73
-73
-70
-67
-62
-55
-48
-40
-34
-30
-29
-28
-24
-20
-14
-7
0
5
10
12
12
12
11
8
6
6
3
3
3
3
2
2
0
-3
-5
-8
-12
-14
-18
-20
-23
-24
-24
-23
-22
-20
-18
-15
-12
-8
-5
-4
-4
-4
-7
-9
-14
-18
-25
-30
-35
-39
-42
-42
-40
-35
-30
-27
-22
-20
-19
-18
-17
-14
-9
-3
3
10
15
17
18
17
16
13
11
8
7
5
3
2
1
-3
-5
-8
-9
-9
-9
-9
-10
-12
-12
-13
-14
-14
-14
-14
-14
-15
-17
-18
-20
-23
-25
-28
-30
-34
-39
-43
-47
-50
-53
-54
-54
-53
-49
-45
-42
-40
-40
-40
-38
-20
16
80
176
298
425
522
556
503
373
201
35
-84
-143
-147
-119
-84
-54
-33
-20
-14
-12
-10
-10
-12
-12
-13
-14
-17
-18
-19
-20
-22
-23
-24
-24
-25
-27
-29
-30
-32
-34
-37
-39
-43
-45
-48
-50
-53
-55
-55
-55
-52
-48
-42
-35
-28
-24
-22
-22
-20
-19
-15
-9
-2
5
12
20
25
28
32
35
37
41
42
45
46
46
43
41
37
33
27
22
17
11
6
0
-4
-8
-10
-13
-14
-15
-18
-19
-22
-25
-28
-32
-34
-38
-40
-43
-45
-49
-53
-57
-60
-63
-64
-65
-64
-63
-60
-57
-50
-44
-37
-32
-27
-25
-23
-22
-18
-13
-4
3
11
17
21
22
21
21
18
17
15
12
10
8
7
7
6
3
2
0
-2
-4
-5
-7
-7
-8
-8
-9
-10
-12
-14
-15
-18
-23
-32
-39
-44
-39
-18
23
93
191
303
403
460
445
350
200
35
-99
-182
-204
-185
-149
-114
-84
-62
-45
-32
-20
-10
-2
5
8
11
11
11
11
10
10
8
7
5
3
2
0
-2
-3
-4
-5
-7
-8
-9
-12
-13
-15
-18
-18
-19
-19
-20
-20
-20
-23
-24
-28
-33
-38
-43
-48
-52
-55
-59
-62
-63
-62
-59
-54
-47
-37
-24
-13
0
7
12
16
17
17
18
21
25
28
33
37
37
37
33
30
25
20
17
13
12
10
7
5
2
0
-3
-5
-8
-10
-12
-14
-15
-17
-17
-18
-19
-19
-20
-22
-22
-23
-24
-25
-28
-29
-30
-33
-34
-37
-40
-44
-49
-53
-58
-60
-63
-63
-62
-58
-53
-48
-44
-39
-35
-33
-30
-28
-25
-20
-14
-7
2
10
15
17
18
17
16
15
13
12
11
11
11
8
3
-4
-9
-10
1
30
86
171
283
403
501
540
501
382
216
47
-83
-158
-179
-163
-135
-108
-88
-77
-69
-68
-68
-70
-73
-75
-75
-75
-73
-69
-64
-58
-52
-45
-39
-35
-33
-32
-29
-25
-20
-13
-5
2
6
12
13
15
13
12
12
11
10
8
7
6
5
2
1
-4
-7
-10
-15
-19
-22
-23
-24
-23
-20
-18
-14
-10
-5
-2
2
5
5
5
5
2
-3
-7
-14
-22
-32
-39
-47
-52
-57
-58
-57
-54
-50
-44
-39
-34
-32
-29
-29
-29
-27
-24
-18
-9
1
8
16
18
21
21
21
20
18
15
13
12
11
10
8
7
5
1
0
-4
-3
-5
-5
-7
-8
-8
-8
-10
-10
-13
-14
-17
-20
-23
-25
-27
-29
-30
-32
-34
-37
-40
-44
-50
-54
-57
-59
-59
-59
-58
-57
-55
-52
-42
-18
23
93
192
316
436
522
541
475
337
167
12
-94
-142
-139
-113
-79
-49
-28
-15
-9
-5
-5
-7
-9
-10
-10
-12
-13
-13
-14
-17
-17
-18
-18
-18
-19
-20
-22
-24
-25
-28
-29
-32
-33
-35
-38
-40
-43
-45
-49
-50
-53
-54
-54
-52
-48
-43
-38
-32
-29
-27
-25
-25
-22
-18
-9
-2
10
20
28
36
41
45
47
48
47
47
45
42
40
36
32
27
22
16
11
6
2
-2
-4
-5
-8
-10
-14
-17
-20
-22
-24
-27
-29
-30
-32
-33
-33
-34
-35
-38
-39
-42
-44
-47
-49
-50
-50
-50
-50
-47
-43
-38
-32
-25
-20
-17
-14
-13
-9
-4
2
10
18
26
30
31
30
27
25
22
20
18
17
17
16
13
12
10
8
7
6
3
2
1
-2
-3
-5
-7
-8
-9
-9
-10
-12
-12
-14
-15
-18
-24
-32
-42
-47
-44
-23
21
93
193
311
416
473
457
363
211
48
-85
-164
-185
-167
-130
-93
-60
-34
-17
-3
7
12
13
13
11
8
6
3
2
1
-2
-3
-4
-7
-8
-9
-10
-12
-10
-13
-14
-15
-17
-17
-19
-22
-24
-25
-27
-28
-28
-29
-29
-30
-33
-37
-40
-45
-50
-55
-59
-63
-67
-68
-68
-65
-62
-54
-44
-33
-23
-13
-5
2
10
18
27
37
46
53
57
57
55
51
43
38
32
26
22
18
16
13
12
8
6
2
0
-3
-4
-7
-9
-12
-14
-15
-17
-18
-18
-19
-20
-20
-22
-24
-25
-27
-28
-30
-32
-35
-38
-40
-45
-50
-54
-58
-59
-60
-58
-53
-48
-42
-34
-30
-28
-25
-24
-23
-19
-14
-5
2
12
20
25
26
26
23
21
18
16
15
13
12
11
10
8
6
0
-5
-10
-10
3
38
100
192
308
428
517
542
481
347
173
10
-107
-164
-170
-148
-119
-97
-82
-75
-73
-74
-77
-77
-77
-75
-72
-67
-62
-54
-49
-43
-39
-35
-33
-29
-24
-18
-10
-3
2
8
12
13
15
13
11
10
8
8
7
7
7
6
6
3
0
-5
-8
-13
-15
-20
-22
-24
-25
-27
-28
-27
-25
-23
-19
-17
-13
-9
-7
-4
-3
-3
-5
-8
-13
-18
-24
-29
-34
-39
-40
-42
-42
-38
-33
-29
-24
-22
-22
-23
-23
-23
-20
-15
-7
1
8
12
13
12
10
7
6
6
5
5
5
3
3
2
1
0
-2
-3
-5
-7
-8
-9
-10
-12
-12
-14
-15
-15
-18
-18
-20
-23
-24
-27
-30
-33
-37
-39
-43
-45
-49
-52
-55
-57
-59
-59
-58
-55
-50
-45
-39
-33
-29
-25
-24
-22
-18
-12
-4
5
12
20
26
28
27
22
13
8
8
23
61
125
217
332
445
522
535
467
327
157
0
-110
-162
-164
-138
-107
-79
-60
-48
-40
-37
-34
-35
-35
-38
-40
-44
-47
-49
-52
-53
-55
-59
-62
-64
-65
-64
-62
-57
-49
-42
-34
-29
-25
-24
-22
-19
-15
-9
-2
6
13
18
21
22
21
18
16
12
8
6
3
1
0
-2
-3
-3
-2
0
0
2
5
8
12
15
17
18
17
16
13
11
7
3
0
-7
-12
-17
-23
-30
-35
-40
-45
-50
-53
-58
-63
-67
-68
-69
-67
-64
-59
-54
-49
-44
-42
-39
-37
-33
-27
-19
-10
-2
7
15
20
22
23
23
21
18
16
13
12
11
10
8
7
5
3
1
0
-2
-4
-7
-9
-10
-12
-13
-13
-14
-15
-17
-18
-20
-22
-23
-25
-27
-28
-30
-34
-37
-39
-43
-47
-49
-52
-54
-58
-60
-63
-63
-57
-37
1
63
153
268
392
493
536
500
387
226
66
-57
-123
-137
-118
-87
-58
-38
-22
-12
-8
-4
-3
-3
-4
-4
-5
-7
-8
-9
-10
-12
-13
-14
-15
-17
-18
-19
-20
-23
-24
-27
-28
-32
-33
-35
-35
-38
-40
-43
-45
-48
-50
-53
-53
-54
-54
-52
-47
-43
-38
-33
-30
-29
-29
-28
-23
-17
-7
5
17
28
38
46
51
53
52
50
46
41
37
31
26
22
17
11
7
2
-2
-4
-7
-8
-9
-13
-14
-17
-19
-22
-23
-25
-27
-28
-29
-30
-32
-32
-33
-34
-35
-38
-40
-43
-47
-50
-54
-58
-60
-63
-62
-60
-57
-50
-43
-38
-33
-28
-24
-20
-15
-10
-4
5
12
18
22
25
25
22
20
18
17
15
13
12
11
10
7
6
5
0
-5
-12
-17
-15
-2
35
101
197
317
441
531
552
491
352
175
7
-113
-173
-180
-159
-129
-105
-89
-80
-77
-75
-74
-74
-72
-67
-62
-54
-48
-40
-35
-32
-29
-28
-24
-19
-13
-7
2
8
13
16
16
16
13
10
8
6
3
2
1
-2
-2
-2
-3
-4
-5
-8
-10
-13
-15
-18
-22
-23
-25
-27
-27
-25
-23
-20
-17
-13
-10
-7
-4
-3
-3
-5
-8
-12
-14
-19
-25
-29
-33
-35
-35
-34
-30
-25
-22
-18
-17
-14
-13
-10
-8
-2
5
11
16
18
18
18
16
15
12
10
8
7
6
6
5
3
2
1
0
-2
-4
-5
-8
-10
-12
-14
-14
-15
-15
-15
-17
-17
-18
-19
-19
-22
-24
-27
-29
-34
-37
-40
-44
-48
-52
-53
-54
-54
-53
-49
-44
-38
-32
-28
-24
-22
-19
-17
-12
-8
-4
-2
3
15
37
80
147
245
361
473
546
548
467
320
143
-10
-113
-154
-148
-117
-84
-59
-40
-30
-25
-23
-23
-23
-23
-24
-25
-25
-27
-28
-30
-33
-35
-38
-42
-45
-49
-53
-55
-59
-60
-62
-62
-59
-55
-49
-43
-37
-29
-23
-19
-15
-12
-9
-4
1
7
13
18
21
20
17
15
10
7
5
5
5
5
6
8
13
17
22
26
30
31
30
27
25
21
17
12
7
3
1
-2
-5
-8
-10
-13
-15
-18
-22
-27
-32
-38
-44
-50
-55
-62
-65
-68
-70
-70
-69
-65
-59
-53
-47
-40
-35
-32
-29
-27
-23
-17
-8
1
10
18
23
26
27
25
22
20
18
18
18
17
17
15
12
10
7
5
2
-2
-3
-5
-5
-8
-10
-13
-14
-17
-18
-19
-20
-22
-23
-25
-28
-32
-35
-37
-40
-44
-48
-52
-55
-58
-59
-59
-57
-53
-48
-40
-35
-32
-33
-35
-34
-23
7
63
150
265
392
501
556
530
423
261
91
-45
-124
-147
-130
-99
-70
-47
-30
-20
-14
-12
-12
-13
-15
-18
-20
-22
-23
-23
-24
-24
-25
-28
-30
-34
-38
-42
-43
-45
-45
-47
-48
-48
-52
-55
-58
-62
-62
-63
-62
-58
-53
-47
-39
-33
-28
-27
-25
-25
-25
-23
-19
-14
-7
0
6
10
13
16
18
22
26
30
33
36
36
36
33
31
28
25
21
17
13
8
3
2
0
-4
-8
-10
-12
-14
-17
-20
-23
-28
-30
-33
-35
-37
-40
-43
-47
-49
-52
-55
-58
-62
-64
-68
-69
-70
-70
-67
-60
-53
-44
-38
-33
-29
-28
-24
-20
-14
-4
5
12
20
23
25
22
20
16
13
11
10
8
8
8
8
7
5
3
0
-5
-13
-20
-20
-8
23
83
173
291
415
512
551
506
382
212
41
-92
-167
-185
-172
-144
-119
-102
-92
-88
-85
-84
-83
-79
-73
-65
-58
-52
-44
-39
-35
-33
-30
-28
-25
-19
-12
-3
3
8
12
13
13
11
8
7
6
5
5
5
5
6
6
5
3
2
0
-3
-7
-10
-14
-18
-20
-22
-22
-20
-19
-18
-17
-14
-12
-8
-5
-3
-3
-4
-7
-10
-17
-23
-29
-35
-40
-45
-48
-48
-47
-43
-39
-33
-28
-24
-23
-22
-19
-17
-12
-5
1
7
13
17
21
20
21
20
20
18
18
17
16
13
11
7
3
2
1
0
-2
-2
-2
-3
-3
-5
-7
-9
-10
-13
-13
-14
-14
-15
-17
-18
-20
-23
-25
-30
-33
-37
-39
-43
-45
-49
-52
-52
-52
-50
-48
-43
-38
-32
-29
-25
-23
-22
-18
-13
-7
1
10
18
25
27
28
27
25
21
18
17
16
15
13
12
11
10
8
7
6
6
5
5
3
0
-7
-14
-18
-14
6
51
126
231
351
460
520
505
407
247
72
-75
-170
-205
-198
-172
-142
-117
-95
-80
-67
-57
-49
-42
-35
-32
-29
-27
-24
-18
-12
-5
2
10
15
16
17
16
13
11
8
6
5
3
1
0
-2
-4
-7
-8
-9
-9
-9
-10
-9
-10
-12
-14
-17
-20
-25
-28
-30
-34
-37
-39
-42
-44
-45
-45
-44
-42
-39
-35
-32
-29
-27
-24
-22
-19
-18
-14
-12
-10
-7
-5
-4
-4
-3
0
3
10
17
23
30
32
32
31
27
25
21
17
13
11
8
6
3
1
0
-2
-4
-4
-5
-5
-7
-7
-8
-8
-9
-9
-10
-12
-14
-15
-18
-19
-20
-22
-23
-24
-27
-28
-32
-34
-39
-43
-47
-49
-53
-54
-55
-54
-52
-47
-40
-34
-29
-25
-24
-22
-20
-15
-9
-2
7
15
18
17
13
11
21
47
98
178
287
407
507
553
518
405
240
66
-68
-144
-162
-142
-108
-78
-55
-42
-33
-29
-28
-28
-28
-29
-30
-33
-35
-37
-39
-42
-43
-47
-49
-53
-57
-60
-63
-65
-65
-63
-59
-53
-45
-38
-32
-27
-24
-22
-17
-13
-7
1
8
16
21
23
23
21
17
12
8
5
1
0
0
-2
-2
0
0
1
5
8
13
17
20
22
22
21
18
16
12
8
3
0
-5
-9
-13
-17
-20
-24
-29
-34
-39
-44
-52
-57
-62
-65
-65
-67
-64
-62
-57
-50
-44
-38
-32
-28
-25
-22
-17
-10
-3
6
13
21
26
28
28
27
25
21
20
17
16
15
13
11
10
8
7
5
3
1
-2
-3
-5
-7
-8
-10
-12
-14
-15
-17
-18
-18
-20
-23
-25
-28
-32
-37
-40
-44
-48
-50
-53
-55
-58
-59
-58
-55
-50
-45
-42
-40
-39
-35
-23
7
65
152
267
393
498
547
515
401
237
70
-59
-130
-147
-125
-94
-63
-42
-28
-19
-14
-13
-13
-14
-15
-17
-19
-20
-22
-24
-24
-24
-25
-27
-28
-29
-32
-34
-37
-39
-42
-44
-47
-49
-50
-53
-55
-58
-59
-60
-60
-59
-57
-52
-45
-39
-34
-30
-29
-29
-29
-28
-24
-17
-8
2
11
17
22
26
28
30
31
33
37
41
43
45
45
43
40
35
30
23
18
15
11
8
3
0
-4
-7
-9
-12
-14
-18
-20
-24
-28
-32
-35
-39
-42
-45
-47
-49
-50
-53
-57
-60
-64
-67
-68
-67
-63
-59
-54
-48
-40
-34
-29
-27
-24
-22
-19
-13
-7
2
11
17
22
23
25
23
22
20
18
17
16
16
15
13
12
10
7
5
3
1
0
-2
-3
-4
-5
-4
-5
-7
-9
-13
-15
-19
-22
-24
-29
-35
-43
-50
-52
-39
-7
53
143
260
378
467
493
436
306
140
-18
-132
-185
-188
-160
-127
-95
-69
-49
-33
-20
-9
0
6
10
10
7
5
3
2
1
0
-2
-3
-4
-5
-7
-7
-8
-10
-12
-15
-18
-20
-24
-25
-28
-30
-30
-30
-29
-28
-28
-28
-32
-34
-38
-42
-47
-53
-58
-63
-67
-70
-74
-75
-75
-73
-68
-60
-50
-38
-24
-12
0
7
10
12
15
17
21
25
30
31
31
28
25
20
16
13
11
8
7
7
5
3
0
-2
-4
-7
-9
-12
-13
-14
-15
-15
-14
-14
-13
-15
-15
-15
-17
-17
-18
-19
-22
-23
-27
-28
-32
-34
-38
-40
-44
-48
-53
-55
-57
-57
-55
-54
-49
-45
-40
-34
-30
-27
-23
-20
-18
-13
-8
1
8
16
22
26
27
26
23
22
20
18
16
13
7
2
-2
2
22
66
140
243
367
487
562
565
480
327
148
-9
-115
-162
-163
-138
-110
-87
-69
-60
-54
-52
-52
-54
-57
-60
-64
-68
-70
-72
-72
-69
-64
-59
-53
-45
-42
-37
-34
-30
-28
-23
-18
-9
-3
5
11
13
16
15
15
12
10
10
7
7
5
3
1
-2
-4
-8
-10
-13
-15
-17
-18
-20
-19
-17
-14
-10
-7
-2
3
7
10
10
10
8
6
1
-5
-13
-18
-27
-34
-39
-45
-49
-52
-54
-53
-50
-48
-43
-37
-30
-28
-25
-24
-23
-20
-17
-10
-3
6
13
20
23
25
23
22
20
18
17
16
16
13
12
8
6
2
0
-3
-4
-5
-5
-7
-7
-8
-8
-9
-10
-10
-13
-14
-17
-20
-23
-24
-27
-28
-30
-34
-38
-42
-45
-48
-50
-53
-55
-57
-55
-53
-52
-50
-49
-49
-42
-20
20
88
190
316
443
537
562
501
366
192
31
-83
-135
-137
-112
-78
-49
-30
-18
-13
-9
-9
-10
-12
-13
-14
-14
-15
-17
-17
-18
-18
-19
-20
-22
-24
-24
-27
-28
-30
-33
-35
-38
-42
-44
-48
-49
-53
-55
-55
-55
-54
-52
-49
-44
-39
-34
-30
-28
-27
-27
-27
-24
-19
-14
-7
2
11
18
23
28
32
35
38
41
42
42
42
40
35
31
26
21
16
11
7
2
-2
-4
-7
-9
-9
-12
-12
-14
-17
-20
-25
-28
-29
-32
-33
-34
-37
-39
-42
-44
-47
-50
-53
-55
-58
-59
-59
-58
-55
-52
-47
-39
-34
-29
-25
-24
-22
-18
-10
-3
6
16
23
28
30
28
27
25
22
21
18
16
15
13
11
8
7
5
3
2
0
-4
-10
-18
-22
-17
5
50
125
232
355
468
535
527
432
275
96
-57
-155
-193
-187
-160
-132
-110
-95
-87
-80
-74
-68
-60
-53
-45
-40
-37
-34
-32
-28
-24
-18
-9
0
7
13
17
18
16
13
10
7
3
3
1
0
0
-2
-4
-5
-5
-7
-7
-7
-8
-9
-12
-14
-18
-20
-23
-24
-27
-28
-28
-28
-28
-27
-24
-22
-18
-15
-13
-12
-10
-12
-14
-17
-19
-22
-24
-24
-23
-22
-18
-15
-15
-14
-14
-13
-9
-4
2
8
15
18
20
20
17
13
11
8
6
3
2
1
1
0
0
-2
-3
-4
-5
-7
-7
-7
-8
-8
-9
-10
-12
-14
-17
-19
-22
-24
-25
-29
-30
-32
-32
-34
-35
-38
-43
-48
-53
-57
-59
-59
-58
-54
-50
-45
-40
-35
-32
-28
-25
-23
-20
-15
-9
-3
3
6
7
8
15
35
76
143
240
356
465
533
530
447
297
123
-27
-127
-165
-158
-128
-97
-70
-53
-42
-34
-30
-29
-29
-29
-30
-33
-34
-37
-39
-40
-42
-43
-45
-48
-52
-55
-59
-63
-64
-64
-63
-60
-55
-49
-43
-35
-29
-25
-22
-19
-17
-12
-7
0
7
12
16
18
18
17
15
12
10
8
7
7
8
10
11
13
17
20
22
25
26
26
27
25
22
18
15
11
7
3
0
-3
-7
-10
-13
-18
-20
-23
-27
-30
-37
-43
-49
-57
-64
-68
-72
-74
-74
-73
-72
-68
-63
-55
-48
-40
-34
-29
-27
-23
-19
-14
-7
1
8
13
17
20
21
22
21
21
18
17
17
15
13
12
8
6
3
0
-3
-5
-8
-9
-10
-12
-12
-13
-14
-14
-15
-17
-18
-19
-22
-24
-27
-30
-34
-38
-42
-44
-48
-50
-53
-55
-57
-57
-55
-53
-49
-45
-44
-44
-43
-35
-13
28
101
203
331
457
547
567
501
361
185
23
-89
-142
-144
-119
-87
-58
-37
-23
-15
-10
-10
-10
-10
-12
-14
-17
-20
-22
-23
-23
-23
-23
-24
-25
-28
-30
-33
-35
-38
-40
-43
-47
-49
-52
-55
-59
-60
-63
-63
-63
-62
-59
-54
-50
-45
-40
-37
-35
-34
-34
-37
-35
-32
-25
-17
-8
1
7
13
20
26
31
33
37
38
38
37
33
30
26
22
17
12
7
3
2
1
0
-2
-5
-8
-12
-14
-18
-20
-25
-27
-29
-30
-32
-34
-35
-37
-39
-40
-42
-43
-45
-48
-50
-53
-57
-60
-63
-62
-60
-55
-50
-44
-38
-30
-25
-23
-20
-19
-17
-12
-4
5
13
20
25
27
28
26
23
21
20
17
16
12
10
7
5
3
1
1
0
-3
-8
-14
-20
-17
5
50
123
228
353
472
547
547
461
308
127
-32
-140
-188
-189
-165
-138
-115
-99
-89
-84
-80
-75
-70
-64
-57
-50
-44
-38
-34
-32
-29
-27
-22
-15
-7
1
8
13
16
18
18
16
13
11
8
6
5
3
3
1
0
0
-2
-4
-5
-8
-9
-12
-15
-19
-20
-23
-24
-27
-28
-29
-30
-29
-28
-23
-18
-14
-9
-7
-7
-7
-9
-13
-18
-23
-28
-32
-34
-34
-34
-32
-29
-27
-23
-22
-20
-18
-18
-14
-9
-4
3
8
13
17
18
18
18
17
15
12
11
10
7
7
7
6
6
5
3
2
2
1
0
-2
-4
-8
-9
-12
-12
-14
-15
-18
-19
-22
-23
-24
-25
-28
-29
-32
-34
-38
-42
-45
-49
-53
-55
-57
-55
-53
-48
-42
-35
-30
-25
-22
-20
-18
-14
-9
-2
6
12
15
13
12
18
38
81
152
253
375
487
555
548
457
302
126
-25
-124
-163
-155
-127
-95
-69
-50
-38
-33
-30
-29
-30
-32
-33
-33
-35
-37
-39
-40
-43
-45
-48
-52
-54
-57
-59
-62
-63
-63
-60
-57
-52
-44
-39
-33
-27
-23
-20
-17
-14
-8
0
7
15
20
22
21
17
15
10
6
3
2
1
1
1
2
3
6
11
15
20
25
27
30
30
27
25
22
18
15
10
6
3
0
-5
-7
-9
-13
-17
-20
-25
-29
-35
-40
-47
-50
-55
-59
-62
-63
-62
-59
-54
-48
-42
-37
-32
-28
-24
-22
-17
-10
-4
5
15
22
27
30
30
27
27
25
22
22
21
20
18
16
13
11
7
5
1
0
-4
-5
-5
-7
-8
-9
-9
-8
-9
-12
-13
-15
-19
-22
-24
-27
-29
-32
-34
-37
-40
-44
-48
-52
-53
-54
-54
-52
-48
-43
-40
-39
-39
-35
-22
10
68
157
275
401
506
552
517
400
235
66
-62
-132
-144
-122
-88
-57
-35
-23
-15
-12
-10
-12
-13
-14
-15
-17
-18
-18
-19
-20
-22
-24
-25
-28
-29
-32
-34
-35
-38
-39
-43
-45
-47
-49
-53
-54
-57
-59
-59
-59
-57
-53
-48
-42
-37
-32
-29
-27
-25
-25
-24
-20
-14
-8
-2
3
8
12
16
18
22
26
28
31
33
35
35
32
31
27
25
21
17
15
10
5
1
-2
-3
-5
-7
-9
-12
-14
-17
-20
-23
-27
-29
-33
-37
-40
-43
-47
-49
-52
-54
-57
-59
-60
-62
-62
-60
-58
-54
-47
-42
-37
-30
-28
-25
-22
-15
-9
0
11
18
25
28
30
28
27
25
21
18
17
16
13
12
11
8
6
5
2
1
0
-3
-9
-15
-19
-12
11
57
132
236
355
465
526
512
413
255
77
-73
-168
-202
-193
-164
-135
-113
-98
-89
-82
-74
-67
-59
-52
-45
-40
-37
-34
-32
-28
-23
-15
-9
-2
3
8
11
11
10
8
6
3
2
1
0
0
-2
-3
-5
-5
-5
-7
-7
-8
-9
-13
-15
-18
-20
-22
-23
-24
-27
-28
-29
-30
-30
-29
-27
-24
-22
-19
-17
-15
-15
-17
-19
-22
-24
-28
-28
-29
-28
-27
-24
-22
-19
-19
-18
-18
-14
-10
-4
2
8
11
13
13
13
11
10
10
10
10
8
7
6
5
2
0
-3
-4
-5
-7
-7
-9
-9
-9
-12
-14
-15
-19
-23
-27
-29
-29
-29
-29
-28
-28
-29
-32
-35
-39
-43
-48
-53
-58
-60
-62
-62
-60
-57
-53
-45
-39
-33
-28
-24
-23
-20
-17
-12
-7
-3
1
3
10
28
65
125
215
325
438
518
535
472
336
165
6
-108
-160
-164
-137
-103
-74
-53
-39
-30
-27
-25
-25
-27
-27
-28
-29
-30
-32
-33
-34
-35
-38
-40
-44
-48
-52
-57
-59
-63
-64
-64
-62
-58
-53
-47
-39
-32
-25
-20
-18
-17
-15
-13
-8
-3
3
10
13
16
17
17
16
15
13
12
11
11
13
17
21
26
28
31
32
32
31
28
25
22
18
15
10
7
3
1
-3
-7
-12
-17
-22
-27
-32
-35
-40
-44
-48
-52
-55
-58
-62
-64
-67
-69
-70
-69
-67
-63
-57
-49
-42
-37
-33
-30
-28
-25
-22
-15
-7
3
12
20
25
26
25
23
20
16
15
12
11
8
7
6
5
3
2
1
-2
-3
-4
-5
-7
-7
-8
-9
-10
-13
-15
-17
-19
-22
-23
-24
-27
-29
-32
-34
-38
-42
-45
-49
-55
-64
-69
-69
-55
-19
41
133
252
377
477
518
480
362
198
33
-88
-149
-155
-125
-87
-52
-25
-9
0
2
3
2
1
1
1
0
-2
-3
-5
-7
-8
-9
-10
-12
-13
-14
-14
-15
-17
-17
-19
-20
-22
-24
-28
-30
-32
-34
-35
-38
-39
-42
-45
-49
-53
-55
-60
-63
-64
-64
-63
-59
-54
-48
-42
-35
-30
-25
-20
-13
-2
10
23
37
47
55
58
58
55
50
45
38
32
26
21
16
12
8
5
2
1
-2
-3
-7
-9
-12
-14
-17
-18
-20
-22
-22
-22
-23
-23
-24
-25
-27
-28
-30
-33
-34
-35
-37
-39
-42
-44
-48
-52
-55
-59
-59
-58
-55
-50
-44
-37
-30
-25
-22
-19
-18
-14
-8
-2
6
13
21
25
26
26
25
22
20
17
15
15
13
13
12
11
8
6
0
-5
-13
-14
-5
25
81
168
281
406
506
548
508
390
220
48
-85
-160
-180
-165
-139
-113
-95
-83
-77
-75
-75
-74
-73
-70
-65
-59
-53
-45
-40
-35
-32
-29
-27
-23
-18
-13
-7
1
7
10
11
11
10
8
6
3
2
2
2
2
2
2
1
0
-3
-5
-8
-12
-15
-19
-23
-25
-27
-28
-28
-28
-27
-24
-20
-17
-13
-8
-5
-4
-3
-4
-5
-10
-14
-20
-27
-33
-35
-39
-40
-39
-37
-33
-28
-24
-20
-18
-17
-15
-12
-8
-4
3
10
15
17
20
20
18
17
15
13
11
8
6
5
3
1
1
-2
-3
-5
-7
-9
-10
-12
-13
-13
-13
-14
-14
-14
-14
-15
-15
-18
-18
-22
-23
-25
-28
-32
-34
-38
-42
-45
-49
-52
-53
-53
-50
-47
-42
-35
-33
-32
-34
-34
-29
-7
40
118
226
355
476
555
560
477
326
148
-8
-109
-149
-143
-110
-77
-49
-30
-19
-14
-12
-12
-12
-13
-14
-15
-17
-18
-19
-20
-22
-23
-25
-27
-28
-29
-30
-33
-35
-38
-40
-43
-45
-48
-50
-53
-54
-55
-55
-54
-52
-47
-40
-33
-27
-23
-19
-18
-18
-15
-14
-8
-2
3
10
15
20
23
26
30
32
35
40
43
47
48
50
47
45
40
35
30
23
17
10
5
0
-4
-8
-12
-13
-17
-18
-20
-23
-25
-28
-29
-32
-34
-37
-40
-45
-49
-54
-58
-59
-62
-64
-64
-63
-59
-55
-49
-42
-35
-30
-27
-25
-24
-22
-19
-14
-7
1
8
15
17
18
18
18
16
15
16
13
12
11
8
6
5
3
2
1
-2
-3
-4
-5
-7
-7
-8
-10
-12
-14
-15
-15
-17
-18
-20
-27
-34
-43
-49
-45
-27
12
81
176
288
392
452
442
355
206
43
-93
-177
-200
-183
-148
-112
-82
-57
-38
-22
-8
2
8
11
12
10
8
8
7
7
6
6
5
2
0
-2
-4
-4
-5
-5
-7
-8
-9
-12
-13
-17
-18
-20
-23
-24
-25
-25
-25
-27
-28
-30
-34
-39
-44
-48
-52
-55
-58
-60
-60
-59
-57
-52
-44
-35
-25
-15
-7
2
8
12
17
21
26
31
37
42
46
47
46
41
37
31
26
21
17
15
12
11
8
5
1
-3
-7
-10
-13
-14
-17
-17
-18
-18
-19
-19
-20
-22
-24
-27
-29
-30
-33
-33
-34
-34
-35
-37
-39
-43
-47
-52
-55
-59
-60
-62
-62
-62
-58
-54
-48
-43
-37
-34
-30
-28
-25
-20
-14
-7
1
8
13
18
22
23
22
20
17
15
13
12
12
11
11
7
2
-7
-13
-13
-4
23
76
160
268
391
493
546
517
408
245
72
-67
-152
-178
-167
-140
-112
-90
-77
-70
-68
-69
-70
-73
-74
-74
-73
-70
-65
-59
-52
-45
-39
-35
-33
-33
-32
-30
-25
-19
-12
-3
3
7
10
12
12
11
8
8
7
7
6
3
2
0
-3
-5
-8
-12
-17
-22
-25
-28
-28
-29
-28
-25
-22
-18
-14
-9
-5
-3
0
0
-3
-4
-9
-14
-19
-24
-28
-34
-40
-47
-50
-54
-54
-53
-50
-47
-40
-35
-30
-29
-28
-27
-25
-23
-18
-10
-2
6
11
15
17
20
20
18
16
13
12
11
8
7
6
5
3
2
0
0
-2
-4
-5
-7
-8
-8
-8
-8
-9
-12
-13
-17
-18
-19
-20
-23
-24
-25
-27
-29
-32
-35
-40
-44
-49
-54
-60
-68
-72
-69
-52
-14
48
140
257
382
483
528
492
377
216
52
-73
-140
-150
-128
-93
-62
-37
-23
-13
-8
-5
-7
-7
-7
-7
-8
-8
-9
-10
-12
-13
-14
-15
-17
-18
-18
-18
-19
-19
-19
-20
-22
-23
-25
-28
-29
-32
-34
-37
-40
-43
-45
-49
-52
-55
-59
-60
-59
-57
-53
-47
-42
-39
-35
-33
-30
-25
-18
-9
2
17
31
42
50
55
56
53
50
45
40
35
28
23
17
12
7
2
-2
-7
-8
-10
-12
-13
-14
-15
-15
-18
-18
-19
-20
-22
-22
-22
-23
-23
-25
-27
-28
-29
-30
-33
-35
-38
-40
-43
-47
-50
-53
-54
-55
-53
-49
-45
-40
-34
-29
-24
-22
-19
-17
-12
-7
2
10
17
22
25
26
25
23
21
17
16
13
12
12
11
8
7
6
5
2
1
0
-2
-5
-9
-17
-23
-24
-13
17
75
162
276
400
498
540
497
373
202
28
-105
-182
-203
-188
-159
-132
-109
-94
-83
-73
-63
-54
-45
-39
-34
-30
-28
-25
-22
-15
-8
0
7
13
17
18
17
16
13
11
8
7
6
6
5
5
3
5
3
3
1
0
-2
-4
-5
-9
-13
-17
-20
-24
-27
-29
-32
-33
-33
-32
-29
-28
-27
-24
-22
-19
-17
-15
-14
-14
-14
-13
-13
-10
-9
-5
-3
0
0
1
0
1
3
8
13
20
26
31
32
31
27
23
17
12
10
7
6
5
3
2
1
-2
-4
-5
-5
-7
-7
-8
-9
-10
-13
-15
-17
-19
-20
-19
-20
-20
-22
-22
-24
-27
-29
-33
-37
-39
-45
-50
-54
-58
-60
-63
-63
-63
-59
-55
-49
-44
-38
-33
-30
-28
-24
-22
-15
-9
-2
7
15
20
23
23
23
21
20
18
18
17
16
12
7
0
-5
-7
5
36
92
180
295
415
512
551
508
388
221
52
-77
-150
-170
-155
-129
-102
-82
-69
-62
-60
-62
-64
-67
-70
-73
-74
-74
-73
-69
-63
-57
-49
-42
-37
-33
-32
-30
-29
-25
-20
-12
-3
5
11
15
16
15
15
11
10
10
8
7
8
8
6
3
0
-5
-10
-14
-18
-22
-23
-25
-25
-25
-25
-24
-22
-17
-13
-7
-2
2
5
6
3
1
-4
-9
-15
-22
-28
-33
-39
-43
-48
-50
-50
-47
-40
-34
-28
-22
-19
-18
-20
-22
-22
-18
-13
-7
2
7
11
13
15
13
13
12
11
10
8
7
8
7
6
3
1
-2
-4
-5
-7
-7
-5
-4
-4
-3
-4
-5
-8
-10
-13
-15
-18
-20
-24
-25
-28
-29
-30
-34
-38
-43
-49
-55
-58
-60
-62
-60
-59
-55
-52
-47
-42
-37
-32
-27
-23
-19
-14
-8
-2
6
13
21
25
26
25
22
18
16
13
13
12
12
8
3
-2
-7
-7
8
45
110
206
326
450
540
562
501
366
190
23
-98
-162
-173
-153
-124
-99
-80
-70
-63
-62
-62
-63
-65
-68
-70
-70
-70
-68
-64
-58
-53
-47
-40
-37
-33
-30
-28
-24
-19
-13
-4
1
6
10
11
11
10
7
6
5
3
3
2
1
0
-3
-7
-9
-13
-17
-19
-22
-24
-27
-29
-30
-30
-29
-27
-25
-20
-15
-9
-4
0
2
2
1
-3
-7
-13
-18
-23
-29
-34
-39
-42
-45
-47
-45
-43
-39
-32
-27
-23
-20
-19
-18
-18
-15
-10
-3
3
10
15
18
20
20
20
18
17
16
16
15
13
12
11
8
5
2
0
-3
-5
-5
-5
-5
-5
-4
-4
-3
-5
-7
-9
-10
-13
-14
-17
-20
-24
-27
-30
-33
-37
-39
-43
-47
-49
-52
-54
-54
-54
-53
-53
-52
-50
-44
-28
7
68
157
276
405
510
556
520
403
238
68
-60
-132
-145
-124
-92
-59
-35
-19
-10
-8
-8
-8
-9
-10
-12
-13
-13
-14
-14
-17
-18
-19
-20
-22
-23
-23
-24
-25
-27
-28
-29
-32
-33
-35
-39
-42
-45
-48
-50
-54
-54
-55
-54
-52
-48
-44
-39
-35
-32
-29
-29
-29
-27
-23
-17
-8
0
10
17
25
31
35
38
41
41
42
42
40
37
33
30
25
21
16
10
5
1
-3
-5
-7
-10
-13
-17
-19
-23
-24
-25
-27
-29
-30
-32
-33
-34
-35
-37
-39
-42
-44
-47
-49
-52
-53
-54
-54
-53
-50
-45
-40
-34
-28
-23
-20
-18
-14
-12
-7
0
7
16
21
27
28
28
26
23
22
20
18
17
15
13
13
11
10
7
6
5
3
2
1
0
-2
-3
-4
-5
-7
-7
-9
-10
-13
-14
-15
-18
-24
-34
-42
-45
-39
-15
33
111
216
333
432
478
448
342
186
25
-100
-170
-184
-163
-127
-92
-62
-38
-19
-5
3
10
13
13
12
10
7
5
3
2
1
-2
-3
-4
-4
-4
-4
-4
-5
-5
-7
-8
-9
-10
-12
-14
-15
-18
-19
-20
-22
-23
-25
-25
-28
-32
-35
-39
-45
-50
-57
-60
-64
-65
-65
-64
-60
-55
-48
-38
-27
-17
-8
0
6
12
20
27
36
45
51
55
56
53
50
45
37
32
27
23
20
16
12
11
7
3
1
-2
-4
-7
-9
-12
-13
-15
-18
-20
-22
-23
-24
-25
-27
-28
-29
-30
-30
-32
-33
-35
-37
-39
-43
-47
-49
-53
-57
-59
-60
-62
-60
-59
-54
-48
-42
-37
-32
-28
-25
-23
-19
-13
-5
2
10
15
18
18
17
15
12
10
10
8
8
8
10
8
7
5
2
0
-7
-14
-22
-19
-3
36
105
202
325
446
535
558
496
358
182
16
-104
-165
-175
-158
-132
-110
-95
-88
-83
-80
-79
-77
-73
-68
-62
-55
-48
-42
-37
-33
-30
-28
-24
-18
-12
-5
2
6
10
11
10
8
6
3
1
0
0
0
1
1
1
0
-2
-3
-7
-10
-15
-19
-24
-28
-32
-34
-35
-37
-37
-37
-35
-34
-32
-28
-23
-19
-15
-14
-14
-15
-18
-20
-25
-30
-35
-40
-44
-47
-47
-43
-39
-34
-28
-24
-23
-23
-23
-22
-19
-14
-7
1
7
12
16
17
16
13
11
8
6
6
6
6
6
6
6
3
2
-2
-4
-7
-9
-12
-14
-17
-18
-20
-20
-20
-20
-19
-19
-19
-20
-23
-24
-27
-28
-30
-35
-38
-43
-47
-50
-54
-57
-58
-59
-58
-55
-50
-45
-38
-32
-29
-30
-35
-35
-28
-3
48
130
242
373
497
578
582
501
347
163
1
-108
-155
-154
-127
-94
-64
-43
-29
-22
-19
-18
-19
-20
-22
-23
-23
-24
-25
-27
-28
-29
-30
-32
-34
-34
-37
-38
-40
-42
-44
-48
-50
-53
-55
-57
-58
-58
-55
-53
-47
-39
-33
-25
-20
-18
-17
-18
-18
-15
-12
-5
2
7
13
17
18
20
21
22
25
28
32
36
40
42
42
41
38
35
30
25
17
12
8
3
1
-2
-4
-5
-7
-8
-10
-13
-17
-19
-22
-25
-28
-30
-33
-35
-38
-42
-44
-47
-49
-52
-53
-53
-53
-50
-47
-40
-34
-27
-20
-15
-12
-9
-7
-4
0
5
12
18
26
32
36
38
38
38
35
31
28
25
23
22
21
21
18
17
16
15
12
10
7
5
3
2
1
-2
-2
-4
-7
-9
-12
-14
-17
-19
-20
-23
-25
-29
-33
-37
-42
-44
-47
-49
-49
-47
-44
-39
-33
-27
-20
-15
-12
-10
-8
-5
-2
3
11
18
26
31
33
33
31
28
25
22
20
17
15
13
12
12
11
10
8
7
6
5
3
2
0
-2
-2
-2
-3
-4
-5
-7
-7
-9
-10
-13
-15
-17
-22
-24
-28
-33
-35
-40
-44
-47
-49
-50
-49
-45
-39
-32
-24
-18
-14
-12
-10
-8
-4
2
8
17
23
30
33
36
35
35
32
31
28
26
23
23
21
18
16
12
7
0
-7
-3
13
55
127
231
357
476
551
550
465
315
140
-10
-109
-152
-150
-130
-108
-89
-77
-70
-69
-70
-73
-74
-75
-74
-72
-68
-64
-58
-53
-48
-43
-39
-37
-33
-29
-25
-19
-13
-5
0
5
7
10
8
7
5
3
2
0
0
0
0
-3
-5
-7
-9
-12
-14
-19
-25
-32
-39
-47
-53
-58
-63
-67
-69
-70
-73
-72
-72
-69
-68
-63
-59
-55
-50
-45
-42
-39
-37
-34
-33
-30
-28
-25
-20
-15
-9
-4
0
2
3
2
2
3
7
12
20
27
33
36
36
35
33
30
26
25
22
20
18
18
17
16
15
13
13
12
11
10
7
5
2
1
1
1
1
1
0
0
-2
-4
-8
-12
-14
-17
-19
-22
-25
-30
-35
-39
-45
-50
-54
-57
-58
-58
-54
-49
-42
-35
-29
-25
-23
-20
-17
-13
-8
-3
5
12
18
22
25
26
25
22
21
18
17
16
15
13
12
7
1
-4
-5
2
30
82
166
278
401
502
547
515
401
238
67
-65
-144
-168
-155
-129
-104
-85
-73
-67
-65
-65
-67
-68
-69
-70
-72
-69
-67
-62
-54
-47
-40
-35
-32
-30
-28
-25
-22
-14
-7
1
8
13
15
16
13
11
10
7
7
6
6
5
3
2
0
-3
-7
-9
-13
-17
-19
-23
-25
-29
-32
-33
-34
-33
-32
-29
-25
-22
-17
-13
-9
-7
-5
-5
-10
-15
-23
-32
-40
-47
-53
-57
-58
-57
-53
-49
-43
-38
-32
-28
-27
-25
-24
-23
-19
-13
-5
0
6
11
13
15
16
16
16
16
16
16
15
13
12
10
6
3
0
-2
-4
-7
-8
-10
-9
-9
-8
-8
-7
-7
-8
-9
-12
-14
-18
-22
-24
-28
-29
-32
-33
-35
-38
-42
-45
-50
-53
-55
-55
-54
-50
-45
-39
-33
-28
-25
-28
-32
-32
-20
13
75
168
291
425
536
590
558
443
275
98
-42
-123
-147
-132
-100
-70
-47
-32
-20
-15
-14
-13
-15
-15
-17
-17
-17
-18
-18
-19
-20
-23
-24
-27
-29
-32
-34
-37
-38
-39
-42
-43
-44
-48
-52
-54
-55
-57
-57
-52
-45
-39
-30
-23
-18
-15
-17
-18
-18
-17
-14
-10
-7
-2
3
6
10
11
12
15
17
21
25
28
32
35
36
35
33
30
26
21
17
12
7
3
-2
-5
-8
-9
-10
-13
-14
-17
-20
-24
-28
-32
-34
-37
-39
-42
-44
-47
-49
-52
-54
-55
-58
-58
-58
-55
-52
-47
-40
-33
-27
-22
-18
-15
-13
-10
-8
-2
6
13
22
28
32
33
32
31
27
23
21
17
15
13
10
7
6
5
2
1
0
-2
-4
-5
-8
-9
-10
-10
-10
-12
-13
-14
-15
-18
-19
-22
-23
-25
-28
-30
-34
-37
-40
-45
-52
-59
-64
-65
-50
-15
45
136
253
378
478
520
482
366
206
46
-73
-132
-137
-110
-75
-45
-24
-12
-5
-3
-3
-3
-3
-4
-4
-5
-7
-8
-9
-10
-12
-13
-14
-15
-17
-18
-19
-20
-23
-25
-27
-28
-30
-32
-33
-34
-34
-35
-35
-37
-38
-40
-43
-47
-49
-52
-54
-55
-55
-55
-52
-47
-42
-38
-34
-33
-30
-28
-22
-14
-3
11
25
37
47
53
56
55
52
48
45
40
35
31
28
23
20
16
12
8
6
5
2
1
-2
-4
-8
-10
-14
-17
-18
-20
-22
-24
-27
-29
-32
-34
-37
-38
-39
-40
-43
-45
-52
-57
-62
-65
-67
-67
-64
-60
-54
-48
-39
-33
-28
-25
-23
-22
-19
-14
-8
0
8
16
21
22
22
18
16
12
11
10
10
8
8
7
6
3
0
-5
-12
-14
-9
13
61
138
245
370
483
550
540
447
293
118
-29
-124
-163
-159
-137
-112
-94
-83
-78
-77
-77
-78
-78
-77
-74
-69
-63
-57
-49
-43
-38
-35
-33
-32
-29
-24
-18
-8
0
6
10
13
13
13
11
8
6
5
2
1
1
1
0
0
-2
-3
-7
-9
-13
-15
-19
-23
-25
-28
-29
-30
-30
-29
-27
-24
-20
-15
-12
-8
-7
-5
-8
-10
-15
-20
-27
-32
-37
-42
-45
-48
-48
-48
-43
-38
-32
-28
-24
-23
-24
-24
-22
-18
-13
-5
2
7
11
13
13
13
11
10
7
6
5
5
3
2
2
1
-2
-3
-4
-5
-7
-8
-9
-10
-13
-15
-18
-18
-19
-19
-19
-20
-22
-24
-27
-29
-33
-37
-40
-43
-47
-49
-52
-54
-57
-58
-59
-59
-57
-52
-47
-40
-34
-29
-27
-24
-22
-20
-19
-18
-13
1
28
78
153
258
378
492
565
563
478
327
151
-5
-113
-158
-154
-125
-93
-64
-44
-32
-25
-23
-23
-25
-27
-28
-29
-29
-29
-30
-32
-33
-34
-35
-38
-39
-42
-44
-48
-52
-55
-59
-62
-63
-63
-62
-57
-50
-43
-35
-29
-24
-20
-19
-19
-20
-18
-15
-10
-5
1
5
8
8
8
6
5
5
6
7
11
13
17
18
22
25
26
27
26
23
21
18
15
12
8
5
2
-2
-5
-9
-13
-17
-20
-24
-28
-29
-33
-35
-39
-43
-47
-52
-55
-60
-64
-68
-69
-69
-68
-63
-57
-49
-42
-34
-29
-24
-22
-19
-17
-13
-8
0
6
15
21
25
27
27
26
25
22
18
16
13
11
8
7
6
5
3
2
1
-2
-2
-3
-4
-7
-8
-9
-10
-12
-13
-14
-15
-17
-18
-19
-22
-24
-27
-30
-34
-38
-42
-48
-58
-67
-72
-67
-43
7
90
203
336
458
532
530
441
288
116
-32
-124
-154
-139
-102
-64
-35
-18
-7
-3
-2
-3
-3
-3
-3
-4
-4
-5
-7
-8
-9
-10
-10
-10
-12
-13
-14
-15
-17
-19
-20
-23
-25
-28
-30
-33
-34
-37
-38
-39
-39
-40
-42
-44
-49
-52
-57
-62
-64
-65
-65
-63
-60
-55
-50
-45
-40
-37
-32
-27
-18
-8
7
22
36
46
52
56
55
51
46
40
35
30
26
22
20
17
13
10
6
2
-2
-3
-5
-7
-9
-12
-14
-17
-19
-20
-22
-22
-23
-24
-24
-25
-25
-27
-28
-29
-33
-37
-39
-44
-48
-52
-54
-58
-60
-62
-60
-59
-54
-48
-40
-32
-25
-22
-18
-17
-14
-10
-5
2
10
17
22
25
25
25
22
21
18
17
15
13
13
12
11
8
3
-5
-10
-10
1
35
95
188
307
433
533
572
528
406
236
65
-67
-140
-160
-147
-120
-98
-80
-70
-67
-67
-68
-69
-70
-70
-69
-65
-60
-54
-48
-40
-35
-33
-30
-28
-24
-19
-13
-7
3
10
15
16
17
16
12
10
8
6
5
3
3
1
0
-2
-3
-4
-7
-10
-13
-18
-22
-24
-28
-29
-30
-30
-29
-28
-25
-22
-19
-15
-12
-8
-5
-4
-5
-8
-12
-18
-24
-29
-35
-40
-44
-47
-47
-44
-39
-35
-30
-27
-24
-23
-22
-20
-18
-13
-7
0
6
11
15
16
16
15
13
12
10
8
7
6
5
3
1
0
-2
-3
-5
-7
-8
-9
-12
-14
-15
-17
-17
-17
-18
-18
-20
-22
-24
-27
-29
-32
-33
-35
-37
-39
-43
-47
-50
-54
-57
-58
-58
-57
-54
-49
-43
-37
-30
-28
-25
-25
-28
-30
-29
-18
11
65
143
252
378
496
571
575
492
343
166
7
-102
-149
-148
-123
-92
-65
-47
-35
-29
-27
-27
-27
-27
-27
-28
-29
-29
-30
-32
-32
-33
-34
-37
-38
-40
-42
-44
-47
-50
-54
-58
-62
-64
-65
-64
-62
-58
-50
-43
-34
-28
-22
-18
-17
-15
-15
-13
-9
-5
0
3
7
8
10
8
7
6
7
10
15
20
26
30
32
33
33
32
28
25
21
16
12
8
5
2
0
-3
-4
-7
-9
-12
-15
-18
-22
-27
-30
-34
-38
-40
-44
-48
-52
-57
-60
-63
-64
-64
-62
-58
-53
-47
-40
-33
-29
-24
-22
-19
-14
-10
-5
2
10
17
25
30
33
33
32
30
27
22
20
16
12
8
5
3
2
2
2
1
1
0
-3
-4
-7
-8
-9
-10
-12
-13
-15
-18
-19
-22
-23
-23
-25
-28
-30
-34
-38
-42
-47
-50
-55
-60
-67
-69
-67
-48
-12
50
140
256
381
482
530
498
391
235
75
-48
-115
-129
-110
-80
-53
-33
-19
-12
-8
-7
-8
-9
-12
-13
-14
-15
-15
-15
-17
-18
-19
-20
-22
-23
-24
-25
-27
-28
-30
-33
-35
-38
-40
-43
-45
-48
-49
-52
-54
-55
-58
-59
-62
-62
-63
-63
-62
-60
-58
-53
-49
-45
-43
-40
-38
-34
-27
-18
-5
5
16
26
33
40
42
45
43
42
38
36
32
27
23
20
16
11
8
5
3
1
-3
-4
-7
-9
-12
-13
-15
-19
-22
-24
-25
-28
-30
-32
-33
-35
-37
-39
-42
-44
-47
-49
-52
-55
-58
-60
-60
-62
-58
-55
-49
-40
-34
-28
-24
-23
-20
-17
-13
-7
1
8
16
21
25
25
23
21
18
16
13
12
11
10
8
7
6
3
2
0
-5
-12
-17
-13
5
45
112
211
332
447
525
533
457
315
141
-15
-122
-172
-173
-150
-124
-103
-89
-82
-80
-79
-78
-75
-72
-67
-59
-52
-44
-39
-35
-33
-30
-27
-23
-17
-8
0
6
12
16
17
15
13
11
7
6
5
3
3
2
1
2
1
0
-3
-4
-8
-10
-14
-18
-22
-24
-27
-28
-29
-29
-29
-28
-25
-23
-19
-15
-12
-8
-7
-7
-8
-10
-15
-19
-24
-29
-33
-34
-35
-33
-30
-25
-20
-15
-13
-13
-12
-12
-8
-3
2
8
15
18
21
21
18
16
13
10
8
7
6
5
5
3
3
2
1
0
0
-2
-4
-7
-8
-12
-14
-17
-18
-19
-20
-20
-22
-22
-24
-24
-27
-29
-30
-33
-37
-42
-45
-49
-53
-57
-58
-57
-54
-50
-45
-42
-35
-30
-27
-24
-22
-19
-17
-14
-10
-3
13
45
97
175
276
391
491
545
522
420
260
87
-54
-139
-163
-147
-113
-79
-53
-35
-25
-20
-19
-18
-19
-19
-20
-22
-24
-25
-27
-28
-30
-32
-34
-38
-42
-45
-49
-52
-55
-58
-60
-62
-62
-59
-57
-52
-44
-38
-32
-24
-19
-15
-14
-10
-7
-2
3
8
12
15
16
15
13
12
11
10
8
8
11
13
16
20
23
26
28
30
28
28
26
23
18
13
8
5
1
-2
-4
-7
-9
-12
-15
-20
-23
-27
-32
-37
-42
-47
-52
-57
-62
-67
-70
-72
-73
-74
-72
-69
-63
-55
-48
-40
-34
-30
-28
-25
-22
-15
-8
2
10
17
22
25
23
23
22
21
18
18
17
16
15
12
10
8
7
5
2
1
-2
-3
-5
-8
-10
-12
-12
-13
-14
-15
-18
-20
-22
-23
-25
-27
-29
-33
-37
-40
-44
-48
-50
-53
-54
-54
-53
-49
-45
-42
-40
-39
-35
-20
10
65
151
266
391
496
545
515
405
243
78
-52
-123
-140
-122
-92
-62
-39
-24
-15
-12
-10
-12
-13
-13
-14
-14
-13
-13
-13
-13
-14
-17
-19
-22
-24
-28
-29
-32
-34
-37
-40
-42
-47
-49
-53
-54
-58
-59
-60
-60
-59
-57
-55
-50
-45
-39
-34
-32
-30
-30
-30
-30
-29
-24
-18
-9
0
7
13
18
22
26
28
31
35
37
37
36
32
30
26
22
20
16
12
10
6
3
2
0
-3
-7
-10
-15
-19
-22
-24
-27
-28
-29
-30
-32
-33
-37
-40
-44
-48
-52
-55
-58
-60
-62
-63
-63
-62
-60
-57
-52
-47
-42
-37
-30
-28
-24
-22
-18
-12
-3
6
13
20
25
26
23
22
20
17
15
12
11
10
10
8
8
6
5
2
0
-4
-10
-17
-24
-23
-8
28
95
191
312
435
523
545
481
345
170
5
-117
-179
-192
-174
-149
-125
-109
-98
-90
-87
-82
-77
-69
-63
-55
-49
-44
-40
-39
-35
-30
-24
-18
-9
-2
3
6
8
10
10
8
7
6
6
5
5
3
3
5
3
3
3
2
1
-2
-4
-8
-13
-15
-19
-22
-24
-25
-28
-29
-29
-28
-27
-24
-20
-18
-15
-14
-13
-13
-15
-19
-24
-28
-33
-35
-37
-35
-32
-29
-25
-22
-19
-17
-15
-15
-13
-9
-4
2
8
13
17
20
21
20
18
16
15
13
12
12
11
8
8
7
6
3
2
1
0
-2
-4
-5
-7
-7
-8
-9
-10
-13
-13
-14
-14
-14
-15
-18
-22
-25
-29
-33
-38
-40
-44
-48
-50
-53
-54
-54
-53
-49
-45
-38
-33
-29
-25
-23
-20
-18
-14
-8
-2
8
16
22
26
27
26
25
22
21
20
18
18
17
16
15
13
12
11
10
8
7
5
3
1
-3
-7
-14
-17
-12
10
57
132
235
352
457
512
491
388
228
53
-89
-178
-209
-198
-169
-138
-110
-88
-73
-59
-48
-40
-34
-30
-27
-25
-22
-18
-12
-5
2
10
15
17
17
16
11
8
5
3
2
1
0
-2
-4
-5
-7
-9
-9
-9
-9
-9
-10
-12
-13
-15
-19
-22
-25
-28
-32
-35
-38
-42
-44
-45
-48
-49
-50
-50
-49
-48
-45
-42
-37
-33
-28
-22
-17
-13
-7
-4
0
1
1
2
2
3
7
13
20
26
32
35
36
33
31
26
21
17
13
10
7
6
3
2
1
0
-2
-2
-2
-3
-4
-5
-5
-7
-8
-10
-12
-14
-15
-18
-20
-22
-24
-25
-27
-28
-29
-30
-33
-37
-40
-44
-49
-53
-55
-57
-57
-54
-50
-45
-39
-34
-30
-27
-24
-22
-18
-12
-4
3
12
20
25
25
22
15
11
13
32
72
140
236
351
458
525
518
431
280
106
-43
-138
-172
-160
-128
-93
-67
-49
-39
-34
-33
-34
-34
-35
-37
-38
-39
-42
-44
-48
-52
-55
-59
-62
-64
-64
-64
-63
-59
-54
-48
-40
-35
-30
-27
-24
-20
-15
-9
-2
7
17
25
30
31
30
26
22
17
13
10
6
5
3
1
0
-2
-2
-2
1
3
5
8
13
17
20
21
21
20
16
13
8
5
2
-2
-7
-10
-15
-20
-25
-30
-34
-40
-45
-50
-53
-54
-54
-53
-50
-45
-40
-34
-29
-25
-23
-22
-18
-13
-5
3
12
21
28
32
33
32
31
28
26
25
23
22
21
20
18
17
16
15
15
13
13
11
10
6
3
0
-4
-5
-8
-9
-12
-14
-17
-19
-20
-23
-24
-28
-30
-35
-39
-44
-48
-52
-54
-55
-55
-54
-49
-44
-37
-30
-25
-22
-19
-17
-14
-9
-2
6
15
21
27
30
30
27
25
21
18
18
17
16
16
15
13
12
10
7
6
3
2
3
3
1
0
-3
-5
-7
-9
-8
-9
-10
-12
-13
-15
-17
-18
-20
-24
-29
-34
-40
-47
-52
-54
-55
-53
-49
-43
-35
-28
-22
-17
-14
-13
-13
-10
-7
0
8
16
23
28
32
32
31
30
27
25
23
22
21
20
20
17
13
8
1
-4
-4
11
48
112
207
326
440
513
518
441
297
128
-23
-125
-169
-168
-144
-118
-95
-79
-70
-67
-65
-68
-70
-72
-73
-72
-69
-65
-60
-55
-48
-43
-38
-34
-32
-30
-28
-24
-18
-10
-2
5
11
13
15
15
15
13
12
10
10
10
8
7
5
1
-3
-7
-10
-15
-19
-23
-29
-34
-38
-43
-47
-50
-53
-54
-55
-57
-57
-57
-57
-54
-50
-45
-40
-34
-29
-27
-25
-25
-27
-28
-29
-29
-28
-24
-20
-17
-12
-7
-3
1
3
5
5
7
10
15
18
22
25
26
26
27
25
23
22
21
20
18
17
16
15
12
10
7
6
5
3
3
5
5
5
5
5
3
1
-2
-4
-7
-10
-13
-15
-18
-20
-24
-27
-30
-34
-38
-44
-48
-53
-58
-60
-62
-62
-59
-55
-48
-40
-33
-27
-23
-20
-19
-15
-12
-4
2
10
17
21
23
23
22
21
20
18
16
15
12
10
6
1
-5
-8
-2
18
63
136
236
353
457
512
495
398
246
78
-62
-149
-180
-172
-144
-115
-92
-75
-65
-60
-60
-63
-67
-70
-73
-74
-73
-70
-64
-58
-50
-42
-35
-29
-25
-24
-24
-22
-19
-14
-8
0
7
13
18
21
21
20
17
15
15
15
13
12
11
8
6
2
0
-2
-4
-9
-12
-15
-19
-22
-24
-25
-25
-24
-22
-18
-14
-10
-8
-4
-3
-2
-2
-4
-7
-13
-18
-27
-34
-40
-48
-53
-57
-58
-57
-53
-48
-43
-37
-32
-28
-25
-25
-23
-20
-15
-8
-2
7
13
18
22
23
23
23
22
22
21
18
17
16
13
12
8
7
3
0
-4
-7
-8
-9
-9
-9
-8
-8
-8
-9
-12
-13
-15
-17
-18
-22
-23
-25
-28
-30
-33
-37
-39
-43
-47
-50
-54
-55
-54
-52
-47
-40
-35
-32
-30
-34
-35
-28
-5
42
120
227
356
475
550
551
466
315
138
-14
-110
-148
-140
-109
-75
-49
-29
-18
-13
-12
-12
-12
-12
-13
-13
-14
-15
-15
-17
-18
-18
-20
-22
-23
-25
-27
-29
-32
-34
-35
-38
-40
-43
-45
-48
-50
-50
-49
-48
-44
-39
-32
-25
-19
-17
-15
-15
-14
-14
-13
-8
-3
3
10
15
17
18
20
20
21
23
27
31
35
37
38
37
36
33
30
26
21
17
12
8
3
1
-4
-5
-8
-9
-12
-14
-18
-23
-25
-28
-30
-33
-35
-38
-40
-42
-44
-47
-50
-53
-54
-55
-57
-55
-53
-48
-43
-35
-29
-24
-19
-17
-15
-12
-9
-2
7
16
25
30
33
33
31
27
23
20
17
15
13
12
11
8
6
5
1
-2
-3
-4
-7
-8
-8
-9
-9
-10
-13
-14
-15
-17
-18
-18
-20
-23
-27
-29
-32
-34
-39
-47
-55
-63
-65
-54
-23
33
120
233
353
445
476
426
302
137
-19
-130
-178
-170
-130
-84
-45
-17
0
6
8
8
7
5
3
3
2
1
0
-2
-3
-4
-5
-5
-5
-7
-8
-9
-10
-12
-14
-14
-17
-18
-20
-20
-22
-23
-23
-23
-24
-25
-27
-32
-34
-39
-43
-47
-52
-54
-55
-54
-53
-49
-44
-39
-33
-29
-24
-20
-15
-7
2
15
30
42
52
58
60
58
56
50
43
38
33
28
25
22
18
16
13
10
6
3
0
-3
-5
-9
-12
-15
-18
-20
-23
-25
-28
-30
-33
-34
-37
-38
-39
-40
-43
-45
-48
-52
-55
-59
-63
-65
-67
-68
-67
-63
-59
-53
-45
-39
-34
-29
-28
-25
-23
-19
-13
-4
3
12
18
22
23
23
21
20
17
15
13
12
11
10
7
5
0
-4
-9
-8
3
35
91
178
290
408
503
538
495
372
206
40
-85
-155
-170
-153
-127
-100
-84
-74
-70
-70
-72
-74
-74
-74
-72
-68
-62
-55
-47
-40
-35
-32
-29
-28
-25
-22
-15
-8
0
7
12
16
17
16
12
10
7
7
7
7
7
7
7
5
5
1
-3
-5
-9
-12
-14
-18
-20
-23
-25
-27
-27
-25
-23
-19
-14
-10
-5
-3
0
0
-2
-5
-12
-18
-25
-32
-38
-43
-47
-50
-52
-49
-44
-38
-32
-25
-22
-22
-22
-22
-20
-17
-12
-4
3
8
12
16
16
17
16
15
12
10
8
7
7
6
5
2
1
0
0
-3
-4
-8
-10
-14
-15
-18
-18
-17
-17
-15
-17
-19
-22
-24
-28
-32
-34
-37
-39
-40
-43
-47
-50
-54
-58
-62
-64
-64
-63
-58
-52
-44
-37
-32
-29
-30
-35
-38
-37
-22
13
76
168
290
418
526
576
545
428
258
81
-60
-143
-169
-153
-120
-88
-62
-44
-32
-25
-22
-20
-23
-24
-27
-27
-27
-27
-27
-27
-27
-29
-30
-33
-34
-35
-38
-39
-40
-42
-47
-49
-53
-58
-62
-64
-64
-64
-60
-55
-47
-38
-29
-23
-19
-19
-19
-19
-19
-14
-8
-2
5
7
11
12
13
16
20
23
27
30
32
35
36
37
37
36
35
31
25
21
15
8
3
0
-4
-8
-10
-12
-12
-13
-14
-17
-20
-24
-29
-33
-37
-40
-43
-45
-48
-50
-52
-55
-58
-60
-63
-63
-62
-58
-53
-45
-38
-33
-27
-23
-22
-19
-19
-17
-14
-8
-2
6
15
20
23
25
25
22
20
17
16
15
12
12
11
10
8
6
5
2
1
1
-2
-3
-4
-7
-8
-8
-9
-10
-13
-17
-24
-33
-38
-34
-15
26
96
193
313
425
496
497
412
261
82
-74
-178
-219
-212
-175
-135
-100
-74
-58
-47
-39
-33
-25
-17
-8
0
7
11
13
12
11
8
7
5
5
3
2
1
1
0
-2
-2
-2
-3
-4
-4
-5
-5
-7
-7
-8
-9
-10
-13
-17
-19
-23
-27
-32
-34
-38
-42
-44
-48
-52
-54
-57
-58
-58
-55
-50
-44
-35
-25
-17
-7
0
5
8
8
8
8
11
13
20
25
28
31
31
28
25
20
15
11
7
5
2
0
0
-2
-3
-4
-5
-5
-5
-7
-7
-8
-9
-10
-10
-12
-12
-12
-13
-14
-17
-18
-20
-22
-24
-25
-28
-30
-32
-34
-37
-39
-44
-49
-53
-57
-58
-59
-58
-54
-49
-43
-37
-32
-28
-25
-23
-20
-18
-12
-7
1
8
15
20
21
22
21
20
18
17
16
15
13
12
8
5
-3
-9
-10
-4
22
73
157
268
393
502
557
533
426
262
86
-59
-147
-175
-165
-139
-112
-90
-77
-68
-65
-68
-69
-73
-74
-75
-75
-73
-68
-63
-55
-48
-43
-38
-35
-33
-32
-27
-20
-13
-5
2
8
13
15
16
15
13
12
11
11
12
11
11
10
6
3
0
-3
-5
-7
-10
-12
-14
-15
-17
-18
-18
-18
-17
-15
-14
-13
-10
-7
-3
0
0
-2
-4
-8
-12
-15
-20
-25
-29
-32
-34
-33
-29
-25
-20
-15
-12
-8
-7
-7
-5
0
5
11
18
25
28
27
26
22
18
15
12
8
7
6
6
5
5
3
2
1
0
-2
-4
-5
-5
-8
-8
-9
-9
-8
-8
-8
-8
-9
-12
-13
-15
-19
-20
-23
-27
-29
-33
-38
-43
-48
-52
-55
-57
-54
-50
-45
-38
-32
-28
-24
-22
-19
-15
-9
-2
8
17
23
28
30
28
26
22
20
17
16
15
13
12
12
10
8
7
5
0
-7
-13
-17
-10
10
56
130
233
353
461
522
506
408
248
73
-70
-159
-188
-177
-148
-122
-102
-90
-83
-80
-77
-74
-69
-64
-58
-50
-44
-40
-37
-34
-32
-28
-23
-15
-7
0
6
10
11
10
8
6
3
3
2
2
1
1
0
0
-2
-3
-3
-4
-7
-9
-12
-15
-19
-22
-25
-27
-29
-32
-33
-33
-33
-33
-32
-30
-28
-25
-22
-18
-15
-12
-10
-9
-9
-9
-9
-8
-7
-4
-2
2
5
8
8
10
10
13
18
26
32
37
41
42
41
36
31
26
21
16
12
10
7
5
3
2
1
0
-2
-3
-4
-5
-7
-7
-8
-9
-9
-10
-10
-12
-12
-13
-13
-13
-13
-14
-17
-19
-23
-27
-30
-35
-39
-44
-48
-49
-50
-49
-47
-42
-35
-29
-25
-22
-19
-18
-14
-10
-3
3
13
21
27
31
32
31
28
26
25
23
22
21
18
17
13
11
10
7
5
3
2
0
-2
-3
-3
-3
-4
-5
-7
-8
-10
-12
-14
-17
-19
-22
-24
-27
-30
-34
-37
-40
-43
-45
-47
-47
-45
-42
-37
-30
-24
-18
-14
-12
-12
-9
-7
-3
5
12
21
27
32
33
33
32
30
28
26
26
23
22
21
18
17
16
13
12
10
8
7
5
3
2
0
0
-3
-4
-5
-5
-7
-8
-9
-13
-17
-20
-23
-27
-29
-34
-37
-39
-42
-44
-45
-44
-43
-38
-33
-27
-22
-17
-14
-12
-10
-9
-4
3
12
21
30
36
40
41
40
38
36
36
32
28
23
16
11
15
35
76
147
250
368
477
537
525
432
278
112
-27
-115
-148
-142
-118
-94
-75
-63
-55
-53
-53
-54
-57
-59
-63
-67
-70
-74
-74
-75
-75
-73
-69
-64
-58
-50
-44
-39
-35
-34
-32
-28
-22
-14
-4
3
10
15
16
17
17
16
13
11
8
6
3
1
-4
-9
-14
-20
-25
-32
-37
-42
-47
-52
-55
-58
-60
-62
-64
-63
-62
-60
-58
-53
-48
-42
-37
-30
-27
-23
-22
-19
-19
-19
-20
-20
-20
-19
-18
-14
-12
-9
-4
-2
1
2
2
2
5
8
16
23
31
35
38
40
38
36
33
30
26
23
22
22
21
21
20
18
17
17
16
15
13
11
11
10
8
7
5
3
1
-2
-4
-7
-9
-12
-14
-15
-18
-19
-23
-27
-32
-37
-43
-47
-52
-53
-54
-53
-50
-45
-39
-33
-27
-24
-20
-19
-17
-13
-7
0
8
17
22
26
27
26
25
22
20
17
16
15
