73
72
68
67
65
61
58
55
51
48
45
37
32
26
22
21
20
20
21
22
23
28
33
38
41
40
37
37
45
72
122
201
310
432
546
608
595
497
335
153
1
-92
-120
-104
-69
-35
-12
5
13
16
17
16
16
17
17
18
16
16
15
15
15
15
15
13
10
6
1
-3
-5
-8
-10
-12
-13
-17
-18
-20
-22
-23
-22
-18
-13
-7
0
7
11
15
15
15
15
16
21
26
33
40
43
46
47
47
47
48
51
53
56
58
61
62
60
58
55
48
42
37
30
22
16
11
7
5
3
5
5
3
2
1
-2
-4
-9
-13
-17
-19
-20
-20
-18
-19
-20
-24
-28
-32
-34
-35
-34
-32
-28
-23
-15
-12
-8
-4
-4
-3
-2
0
2
8
17
27
36
45
47
47
45
42
40
37
36
35
32
31
28
27
27
26
26
23
20
17
16
15
12
12
12
11
5
-2
-9
-10
0
30
86
172
286
405
498
531
481
351
176
2
-130
-199
-212
-189
-154
-118
-89
-65
-48
-38
-32
-28
-25
-22
-15
-8
0
7
15
20
22
25
25
22
20
17
16
13
13
13
12
11
11
8
7
7
6
6
6
6
6
6
7
7
6
3
1
-4
-10
-14
-20
-24
-27
-30
-32
-32
-34
-34
-34
-34
-30
-27
-22
-18
-13
-9
-2
5
11
17
21
23
22
20
18
21
25
30
36
41
43
43
40
36
32
28
26
23
21
16
11
6
1
-2
-4
-5
-4
-4
-4
-4
-5
-7
-8
-9
-9
-10
-10
-9
-10
-13
-17
-19
-22
-23
-24
-24
-24
-25
-27
-29
-33
-37
-42
-45
-48
-50
-49
-45
-42
-35
-28
-23
-18
-15
-14
-12
-8
-3
3
12
21
28
35
38
38
37
35
31
28
27
26
25
22
20
18
16
16
15
13
12
8
2
-4
-12
-10
3
40
105
202
323
438
517
525
447
301
126
-34
-144
-193
-197
-174
-147
-124
-108
-95
-85
-79
-73
-65
-58
-53
-45
-40
-37
-33
-30
-27
-22
-14
-5
1
6
10
12
11
8
6
5
2
2
2
2
1
-2
-5
-8
-12
-12
-12
-12
-12
-13
-15
-18
-20
-22
-24
-25
-27
-28
-30
-34
-35
-35
-35
-33
-30
-29
-25
-22
-19
-15
-14
-14
-14
-14
-13
-13
-12
-8
-5
-3
-3
-4
-4
-4
0
5
11
17
22
27
30
28
27
25
21
18
16
13
11
10
7
5
2
1
1
1
0
-3
-4
-5
-8
-9
-10
-12
-12
-13
-15
-18
-19
-22
-24
-25
-27
-28
-29
-32
-34
-35
-38
-42
-47
-52
-55
-57
-58
-55
-53
-49
-44
-38
-34
-30
-28
-27
-23
-18
-13
-5
2
10
12
13
10
8
10
27
63
127
220
333
446
522
530
458
318
151
0
-105
-152
-150
-125
-95
-69
-52
-40
-33
-30
-30
-32
-34
-35
-37
-39
-40
-42
-43
-45
-49
-53
-57
-60
-64
-67
-67
-67
-65
-62
-55
-49
-43
-37
-32
-29
-28
-24
-22
-14
-5
5
12
20
23
23
22
20
18
16
13
10
6
2
0
-2
-2
1
3
7
8
13
17
21
21
21
18
16
13
11
8
6
2
1
-3
-5
-9
-13
-17
-22
-25
-32
-37
-43
-48
-52
-54
-57
-58
-58
-57
-53
-47
-42
-37
-33
-32
-29
-27
-23
-15
-8
0
6
11
15
17
18
17
15
13
11
7
6
3
5
5
5
5
3
3
2
1
-2
-3
-5
-7
-8
-9
-12
-13
-15
-17
-19
-22
-23
-25
-27
-32
-38
-48
-55
-60
-52
-22
31
116
223
338
430
463
420
306
150
-4
-117
-174
-182
-157
-119
-83
-53
-28
-12
0
5
6
6
5
3
2
2
2
2
2
2
1
-2
-5
-8
-12
-13
-14
-14
-14
-14
-14
-15
-17
-19
-19
-22
-23
-23
-24
-23
-24
-23
-24
-27
-32
-38
-44
-50
-54
-57
-59
-59
-57
-52
-44
-35
-28
-20
-13
-7
1
7
17
27
36
45
52
56
58
57
53
48
42
35
28
22
18
15
13
10
8
5
2
0
-3
-5
-8
-12
-14
-15
-18
-19
-22
-23
-24
-25
-28
-29
-30
-32
-32
-32
-33
-34
-37
-42
-45
-49
-54
-59
-64
-67
-68
-67
-63
-57
-49
-42
-35
-30
-28
-28
-27
-24
-18
-10
0
7
15
20
22
22
21
18
16
12
11
10
8
10
8
8
6
0
-5
-10
-13
-5
17
65
142
247
366
468
520
495
390
232
65
-69
-148
-173
-159
-132
-108
-90
-79
-75
-74
-74
-74
-73
-70
-67
-62
-54
-48
-44
-40
-39
-37
-35
-32
-25
-18
-9
-2
3
10
12
15
16
15
12
10
8
6
5
3
2
2
2
1
-2
0
-3
-5
-9
-12
-14
-15
-18
-18
-19
-19
-18
-15
-13
-10
-10
-9
-7
-5
-5
-4
-5
-8
-10
-13
-17
-20
-24
-28
-28
-28
-25
-19
-14
-10
-8
-9
-9
-8
-5
0
6
12
16
18
18
18
17
17
16
16
13
12
11
8
7
5
2
1
0
-3
-3
-4
-4
-5
-7
-7
-8
-8
-10
-14
-18
-20
-23
-24
-24
-25
-27
-29
-32
-34
-38
-42
-45
-49
-52
-54
-54
-53
-52
-49
-44
-39
-34
-30
-29
-28
-27
-24
-19
-13
-8
-3
5
17
45
91
163
261
372
468
515
488
382
226
60
-73
-149
-167
-145
-110
-78
-54
-39
-30
-27
-25
-25
-25
-25
-27
-28
-28
-29
-28
-29
-30
-35
-42
-48
-55
-60
-62
-64
-67
-67
-67
-65
-62
-57
-49
-40
-30
-24
-19
-15
-12
-9
-5
0
7
16
22
28
31
31
28
26
23
21
18
17
16
16
18
20
23
28
32
35
36
35
35
31
27
23
21
17
12
8
5
0
-4
-8
-12
-14
-18
-22
-25
-30
-34
-39
-44
-48
-50
-54
-58
-62
-65
-67
-65
-60
-53
-45
-40
-35
-35
-35
-37
-35
-30
-25
-17
-8
0
7
12
13
13
12
11
11
11
12
11
11
8
6
1
0
-3
-3
-4
-4
-5
-8
-9
-10
-12
-14
-17
-20
-25
-30
-34
-35
-25
0
48
126
231
346
445
493
468
365
208
41
-94
-175
-203
-189
-157
-123
-94
-73
-59
-50
-44
-39
-33
-25
-17
-8
0
3
7
8
8
8
8
7
7
6
5
3
2
1
0
-2
-2
-3
-3
-4
-7
-9
-10
-12
-12
-12
-12
-12
-12
-15
-19
-23
-27
-32
-37
-40
-44
-45
-47
-48
-49
-50
-49
-48
-43
-35
-28
-18
-9
1
6
10
10
7
3
1
1
2
5
10
15
17
18
17
16
13
11
10
7
6
5
2
1
-2
-5
-9
-12
-13
-12
-10
-9
-8
-8
-9
-12
-14
-17
-19
-20
-22
-23
-24
-25
-28
-29
-30
-32
-33
-35
-39
-43
-48
-53
-55
-60
-63
-64
-65
-64
-62
-57
-52
-45
-40
-37
-34
-32
-29
-25
-20
-13
-4
2
11
17
20
20
18
13
11
11
11
10
7
1
-8
-13
-12
5
43
110
206
327
452
548
582
532
407
238
72
-57
-128
-149
-138
-114
-92
-77
-68
-65
-65
-67
-69
-70
-72
-73
-74
-74
-74
-72
-67
-62
-54
-47
-40
-37
-35
-34
-34
-30
-27
-19
-10
-4
5
8
10
8
6
5
5
6
7
6
5
3
1
-3
-8
-12
-18
-22
-24
-25
-27
-27
-27
-24
-23
-20
-17
-12
-7
-3
0
1
0
-2
-3
-7
-10
-15
-19
-24
-29
-34
-37
-39
-42
-42
-42
-39
-37
-34
-30
-27
-24
-23
-20
-19
-15
-12
-5
1
8
15
18
21
20
18
17
15
13
11
10
8
7
5
1
-2
-4
-7
-8
-8
-8
-7
-5
-5
-7
-8
-9
-12
-13
-15
-17
-19
-20
-23
-24
-27
-28
-30
-34
-37
-39
-44
-47
-50
-53
-54
-55
-57
-58
-60
-57
-45
-18
30
107
216
342
463
541
545
465
320
151
3
-92
-130
-125
-99
-69
-45
-28
-18
-13
-12
-13
-13
-13
-13
-14
-15
-18
-20
-23
-24
-24
-27
-27
-28
-29
-30
-33
-34
-38
-39
-42
-44
-45
-47
-47
-48
-49
-49
-53
-54
-57
-57
-55
-52
-47
-40
-35
-32
-29
-28
-29
-30
-28
-23
-14
-4
7
17
27
33
38
41
45
45
45
45
42
40
37
32
27
22
17
15
8
5
-2
-7
-9
-10
-12
-14
-13
-15
-17
-19
-24
-28
-30
-32
-32
-30
-30
-30
-34
-38
-44
-50
-53
-55
-57
-57
-58
-58
-57
-52
-47
-42
-37
-33
-30
-29
-25
-22
-14
-7
3
11
20
25
27
26
23
20
16
13
10
10
8
7
6
5
3
2
1
-2
-5
-13
-20
-20
-8
28
93
190
310
435
526
552
495
362
190
26
-94
-155
-165
-148
-123
-102
-88
-82
-79
-79
-78
-74
-69
-62
-54
-48
-43
-39
-38
-35
-33
-28
-20
-12
-4
2
7
10
11
11
10
7
6
6
3
2
1
0
-2
-3
-4
-4
-7
-8
-8
-10
-12
-13
-15
-19
-23
-25
-28
-29
-29
-28
-27
-24
-20
-17
-14
-10
-8
-5
-5
-5
-8
-12
-15
-19
-23
-25
-27
-25
-23
-19
-15
-13
-10
-8
-7
-4
1
5
11
16
20
22
21
20
16
11
7
5
2
2
1
0
0
-2
-3
-5
-7
-8
-10
-13
-15
-18
-22
-23
-25
-28
-28
-29
-29
-30
-30
-30
-32
-33
-37
-40
-45
-49
-52
-55
-58
-62
-64
-65
-64
-60
-55
-49
-44
-39
-37
-34
-33
-30
-27
-22
-17
-10
-8
-4
2
13
41
91
165
267
386
493
556
545
452
300
127
-19
-114
-150
-143
-115
-85
-62
-45
-35
-30
-29
-28
-29
-30
-32
-33
-34
-37
-39
-40
-42
-43
-45
-49
-53
-58
-62
-65
-68
-68
-67
-64
-60
-54
-48
-40
-33
-28
-24
-22
-20
-18
-14
-7
2
11
15
18
17
13
11
8
7
6
6
6
6
7
8
11
13
17
20
22
26
30
31
31
27
22
16
11
7
5
1
-2
-5
-10
-15
-19
-23
-25
-29
-32
-34
-39
-44
-50
-57
-63
-68
-74
-75
-75
-73
-68
-62
-54
-48
-43
-38
-34
-32
-28
-23
-17
-10
-2
5
10
13
16
18
20
20
21
21
20
17
12
10
8
5
3
2
2
1
-2
-4
-7
-9
-10
-13
-14
-17
-19
-22
-24
-25
-25
-25
-27
-28
-29
-33
-35
-39
-43
-48
-52
-54
-55
-54
-53
-50
-47
-42
-37
-32
-28
-29
-34
-37
-32
-10
32
106
212
342
473
575
608
556
426
252
83
-43
-112
-127
-112
-85
-62
-43
-32
-27
-24
-24
-25
-25
-27
-27
-27
-27
-27
-27
-27
-28
-29
-30
-33
-35
-38
-40
-43
-47
-49
-55
-59
-63
-67
-68
-67
-67
-64
-60
-55
-48
-40
-34
-30
-28
-27
-28
-27
-27
-22
-15
-8
-2
2
5
5
6
6
8
11
15
17
21
23
27
30
31
31
30
28
26
22
18
15
11
6
3
1
-2
-3
-4
-8
-12
-15
-19
-23
-25
-28
-30
-33
-38
-40
-45
-49
-52
-54
-55
-58
-59
-60
-60
-55
-52
-45
-39
-34
-30
-28
-25
-24
-20
-15
-8
2
12
18
25
27
27
27
25
23
21
17
15
12
11
10
8
8
7
5
2
0
-3
-4
-7
-13
-20
-25
-24
-5
33
101
200
321
441
523
536
466
323
151
-9
-123
-179
-187
-168
-143
-119
-102
-88
-77
-67
-59
-52
-45
-42
-40
-38
-37
-30
-22
-13
-3
3
8
11
12
11
10
6
5
3
3
2
1
0
-2
-3
-3
-3
-3
-3
-5
-7
-9
-10
-13
-15
-17
-20
-23
-24
-28
-32
-35
-38
-40
-42
-40
-39
-37
-33
-29
-27
-24
-23
-22
-22
-22
-20
-18
-14
-10
-8
-7
-8
-9
-9
-9
-5
0
6
13
18
20
20
16
12
8
6
3
1
1
0
0
1
1
0
-2
-3
-4
-4
-5
-7
-8
-9
-10
-12
-12
-12
-13
-14
-18
-20
-23
-24
-25
-28
-29
-30
-32
-34
-37
-42
-47
-50
-55
-58
-59
-59
-58
-54
-49
-43
-37
-33
-29
-28
-25
-22
-15
-8
0
8
15
18
21
22
22
21
20
17
15
13
12
11
11
11
11
11
8
3
-4
-10
-10
2
37
102
198
320
440
527
548
487
353
183
25
-88
-145
-157
-140
-119
-99
-87
-80
-77
-75
-74
-74
-73
-69
-63
-55
-49
-44
-42
-39
-37
-33
-27
-19
-12
-3
3
10
11
12
8
5
0
-4
-5
-5
-5
-7
-5
-5
-4
-5
-5
-7
-8
-12
-14
-18
-20
-24
-27
-29
-32
-33
-33
-32
-32
-30
-30
-29
-28
-27
-23
-20
-18
-15
-15
-17
-18
-22
-24
-27
-27
-24
-22
-17
-12
-7
-4
-3
-2
0
1
5
11
16
21
23
23
21
18
15
12
10
8
6
5
3
2
1
0
0
0
0
-2
-3
-5
-8
-10
-13
-14
-15
-17
-17
-18
-19
-19
-20
-22
-22
-24
-25
-28
-30
-33
-37
-40
-44
-48
-50
-50
-50
-48
-43
-38
-33
-29
-25
-23
-22
-20
-18
-15
-12
-7
3
23
62
125
215
325
440
525
546
490
357
186
23
-93
-148
-150
-124
-90
-62
-43
-32
-28
-25
-25
-25
-25
-27
-28
-28
-29
-30
-32
-33
-34
-37
-39
-42
-44
-48
-50
-54
-57
-59
-60
-62
-59
-57
-53
-48
-40
-35
-29
-25
-22
-19
-15
-13
-7
1
7
12
15
16
13
11
8
7
6
7
7
10
11
11
13
16
18
20
21
22
21
18
16
13
8
5
0
-7
-12
-15
-22
-25
-29
-32
-35
-39
-43
-47
-50
-54
-58
-62
-65
-70
-74
-77
-77
-75
-72
-65
-60
-53
-47
-42
-39
-37
-37
-33
-28
-20
-13
-5
1
6
10
12
13
13
13
12
8
8
8
8
8
8
8
6
3
1
-3
-5
-8
-9
-10
-10
-12
-13
-13
-15
-17
-19
-23
-28
-34
-40
-48
-47
-32
3
66
158
273
385
463
478
413
280
117
-32
-137
-185
-185
-162
-128
-98
-75
-55
-39
-27
-17
-7
2
8
11
12
11
11
10
10
8
7
5
1
-2
-3
-4
-4
-3
-2
0
0
-2
-3
-7
-9
-13
-14
-17
-18
-18
-19
-19
-20
-23
-24
-27
-32
-37
-42
-47
-50
-54
-57
-58
-58
-54
-49
-40
-29
-18
-8
0
6
11
15
17
20
22
25
28
32
36
36
36
32
27
23
21
17
13
11
8
6
3
1
-2
-4
-5
-7
-9
-10
-13
-14
-15
-17
-17
-18
-18
-18
-18
-19
-20
-22
-24
-27
-29
-30
-34
-37
-39
-43
-48
-52
-55
-59
-60
-62
-60
-60
-58
-53
-48
-44
-39
-34
-32
-30
-29
-27
-22
-14
-5
2
11
17
20
21
20
16
13
11
11
11
11
11
10
5
-2
-9
-9
2
35
95
185
301
423
523
563
526
410
247
80
-52
-129
-155
-148
-127
-105
-88
-75
-69
-67
-67
-69
-72
-74
-75
-75
-74
-72
-67
-59
-52
-45
-40
-38
-38
-37
-35
-32
-25
-18
-9
-2
5
10
12
13
13
12
10
8
7
6
6
5
3
1
-2
-4
-8
-12
-14
-17
-19
-22
-24
-25
-27
-25
-22
-17
-12
-7
-4
-3
-2
-2
-4
-8
-9
-15
-20
-27
-32
-37
-42
-44
-47
-48
-47
-44
-39
-35
-29
-27
-25
-27
-27
-25
-23
-19
-14
-7
1
7
13
17
21
21
22
22
20
20
17
15
13
11
8
5
1
0
-2
-4
-5
-5
-5
-7
-7
-7
-7
-7
-8
-10
-12
-13
-17
-18
-19
-20
-23
-25
-28
-30
-34
-39
-43
-48
-53
-58
-64
-70
-69
-59
-29
23
107
218
343
456
520
508
421
276
115
-17
-98
-125
-113
-87
-57
-34
-20
-12
-7
-5
-5
-5
-5
-7
-8
-9
-12
-14
-17
-18
-19
-20
-20
-22
-22
-23
-24
-25
-27
-28
-29
-29
-29
-29
-32
-33
-35
-38
-39
-42
-44
-47
-49
-53
-57
-58
-58
-53
-48
-42
-35
-30
-28
-25
-22
-15
-8
1
13
25
37
47
55
57
57
55
51
47
43
40
36
31
27
22
16
12
8
5
2
-2
-4
-8
-10
-14
-17
-18
-20
-22
-23
-23
-24
-25
-25
-27
-28
-28
-29
-32
-34
-37
-40
-42
-45
-48
-50
-53
-54
-53
-49
-43
-37
-30
-27
-23
-22
-18
-15
-9
-2
5
13
18
22
23
22
21
18
16
16
15
13
12
10
7
6
3
1
0
-2
-3
-3
-3
-3
-4
-7
-8
-10
-13
-14
-15
-15
-15
-17
-20
-27
-35
-45
-50
-44
-22
25
100
205
320
421
470
445
343
192
33
-90
-162
-178
-160
-128
-95
-67
-43
-24
-9
0
7
11
12
12
10
7
5
3
2
1
0
0
-3
-5
-9
-10
-13
-14
-15
-15
-17
-17
-18
-19
-22
-22
-24
-25
-25
-24
-24
-25
-27
-29
-32
-35
-39
-44
-49
-55
-60
-63
-65
-67
-64
-59
-53
-43
-35
-25
-17
-9
-2
6
15
25
35
45
53
57
58
56
51
43
38
33
31
27
23
21
17
13
8
5
2
-2
-4
-7
-12
-15
-18
-22
-23
-23
-24
-25
-27
-28
-28
-29
-29
-30
-32
-33
-35
-38
-42
-44
-48
-52
-57
-62
-65
-68
-69
-68
-64
-57
-49
-42
-37
-33
-30
-28
-25
-23
-17
-10
0
6
12
16
17
16
16
15
15
16
15
15
13
13
11
8
3
-3
-10
-14
-8
15
63
142
251
372
477
533
512
411
256
87
-48
-132
-159
-149
-123
-100
-83
-74
-70
-70
-72
-74
-75
-75
-74
-69
-62
-54
-45
-39
-34
-32
-30
-29
-28
-24
-19
-12
-4
1
7
11
13
13
13
12
11
11
10
10
8
8
7
6
1
-2
-5
-9
-12
-14
-17
-19
-22
-23
-25
-25
-25
-24
-22
-17
-13
-9
-5
-3
-3
-5
-8
-12
-17
-22
-27
-34
-40
-45
-49
-52
-49
-47
-42
-35
-30
-27
-25
-25
-27
-25
-23
-18
-10
-3
3
7
10
8
8
8
8
8
8
8
7
5
1
-2
-5
-7
-8
-9
-10
-12
-13
-13
-13
-13
-13
-12
-12
-12
-14
-17
-18
-22
-24
-27
-29
-32
-34
-37
-40
-43
-45
-47
-49
-52
-54
-57
-58
-58
-58
-58
-57
-52
-33
2
63
156
275
400
500
538
497
378
217
58
-60
-124
-135
-117
-87
-59
-38
-24
-15
-10
-8
-7
-7
-8
-9
-13
-15
-19
-20
-22
-20
-20
-19
-19
-20
-23
-25
-27
-27
-25
-24
-25
-29
-34
-39
-44
-47
-50
-53
-55
-58
-58
-57
-54
-50
-44
-38
-33
-29
-28
-28
-27
-25
-22
-17
-10
0
8
17
27
36
45
51
55
56
56
52
48
43
38
33
28
23
16
11
3
0
-4
-8
-9
-12
-13
-17
-19
-22
-23
-24
-24
-27
-28
-30
-34
-37
-40
-42
-43
-43
-43
-43
-44
-47
-50
-54
-57
-59
-59
-58
-55
-52
-47
-40
-38
-35
-34
-33
-30
-28
-22
-13
-4
5
10
15
16
16
13
12
10
8
7
6
6
5
3
2
0
-2
-3
-4
-4
-5
-5
-8
-9
-10
-12
-13
-17
-23
-30
-32
-23
5
60
146
261
383
483
526
486
368
200
26
-109
-187
-209
-194
-164
-133
-104
-82
-63
-52
-42
-35
-32
-29
-25
-19
-14
-8
0
3
7
10
10
8
7
6
6
3
2
2
0
0
0
0
0
0
-2
-2
-2
-3
-3
-4
-7
-10
-12
-14
-17
-20
-23
-28
-33
-38
-42
-44
-45
-45
-45
-44
-43
-43
-40
-38
-34
-29
-23
-17
-9
-3
1
5
6
5
3
2
1
2
5
10
16
22
27
28
27
25
20
15
10
7
3
1
-2
-3
-3
-4
-4
-5
-7
-8
-9
-9
-9
-9
-9
-9
-10
-10
-12
-12
-13
-14
-17
-20
-24
-27
-28
-29
-32
-33
-34
-38
-43
-45
-50
-54
-55
-58
-58
-57
-52
-45
-39
-33
-29
-27
-27
-25
-23
-18
-9
-2
8
16
22
25
25
22
20
17
15
13
13
13
13
13
12
11
8
5
-2
-8
-14
-18
-7
22
80
168
283
407
506
543
501
382
217
51
-75
-148
-168
-157
-133
-112
-95
-85
-79
-78
-75
-73
-69
-64
-58
-52
-45
-42
-39
-38
-35
-33
-29
-22
-13
-4
3
10
13
15
15
13
13
11
10
8
10
8
7
7
7
6
3
1
-2
-5
-8
-10
-13
-14
-17
-18
-20
-23
-25
-27
-28
-25
-23
-19
-15
-12
-8
-5
-4
-3
-4
-5
-8
-10
-13
-15
-18
-19
-19
-17
-14
-12
-9
-8
-8
-8
-8
-5
-2
3
8
13
18
20
21
21
20
18
16
13
12
10
7
6
3
2
1
0
0
0
0
-2
-3
-4
-5
-7
-8
-8
-9
-10
-13
-17
-19
-22
-24
-25
-25
-28
-30
-35
-40
-44
-49
-53
-55
-57
-57
-57
-53
-49
-44
-38
-33
-28
-24
-22
-20
-18
-13
-5
3
12
20
23
25
25
23
21
18
17
16
13
12
10
7
6
6
5
3
2
0
-2
-2
-3
-3
-4
-4
-5
-7
-9
-9
-10
-13
-14
-17
-18
-20
-23
-25
-28
-30
-34
-39
-47
-57
-63
-63
-48
-7
60
158
280
400
486
505
443
313
153
8
-88
-128
-120
-89
-57
-32
-15
-5
-2
-2
-2
-2
-2
-3
-3
-5
-7
-8
-9
-10
-12
-13
-14
-17
-18
-19
-20
-20
-22
-23
-24
-25
-27
-28
-29
-33
-35
-38
-40
-43
-44
-47
-50
-54
-59
-63
-65
-67
-65
-64
-60
-55
-52
-48
-47
-45
-44
-40
-34
-24
-13
-3
10
22
32
40
45
48
50
50
47
45
42
38
35
32
28
26
22
20
15
11
6
2
-2
-4
-5
-7
-8
-10
-13
-15
-19
-23
-25
-28
-29
-30
-33
-34
-37
-39
-43
-47
-50
-53
-55
-57
-57
-55
-52
-45
-38
-33
-29
-27
-25
-24
-20
-14
-8
1
8
16
22
26
28
28
26
25
23
23
21
20
17
15
12
10
8
7
7
5
3
1
0
-2
-3
-3
-7
-12
-19
-25
-24
-9
26
91
183
298
408
483
490
415
272
102
-50
-155
-199
-195
-167
-132
-102
-77
-59
-47
-40
-38
-38
-35
-30
-23
-13
-3
5
11
15
16
15
13
12
10
7
5
3
2
2
1
1
0
0
0
0
-2
-4
-7
-8
-8
-9
-9
-12
-12
-14
-17
-19
-22
-23
-25
-29
-34
-38
-43
-47
-49
-50
-50
-48
-44
-39
-32
-25
-19
-13
-7
0
2
5
5
5
3
2
5
10
13
20
25
28
28
27
26
22
20
15
12
10
6
5
1
-2
-4
-7
-8
-9
-10
-13
-13
-14
-13
-14
-14
-15
-18
-19
-22
-24
-25
-28
-30
-33
-35
-35
-38
-39
-42
-44
-47
-50
-52
-55
-57
-58
-57
-54
-49
-44
-40
-37
-34
-33
-32
-29
-24
-18
-9
0
6
12
16
18
18
18
17
16
15
12
10
8
7
5
5
5
3
5
5
5
3
2
1
-2
-4
-8
-13
-18
-23
-18
1
42
112
210
325
425
478
458
361
207
41
-95
-179
-207
-194
-164
-130
-103
-80
-64
-52
-43
-38
-34
-32
-28
-22
-14
-7
1
6
10
12
12
12
11
11
11
10
10
8
6
5
2
1
1
0
-2
-3
-5
-7
-7
-7
-7
-8
-9
-12
-13
-17
-19
-23
-28
-32
-35
-39
-42
-43
-44
-47
-48
-48
-47
-43
-39
-34
-28
-22
-14
-8
0
3
6
7
5
5
3
3
6
12
18
25
30
32
31
30
26
22
17
13
10
6
2
1
0
-2
-4
-7
-9
-10
-12
-14
-14
-15
-17
-19
-20
-20
-22
-22
-23
-24
-24
-25
-27
-29
-29
-32
-33
-33
-34
-35
-38
-42
-48
-55
-60
-63
-64
-63
-59
-54
-48
-42
-38
-34
-33
-30
-29
-25
-22
-14
-7
0
7
13
17
18
18
17
16
15
13
12
11
11
10
7
5
2
0
-2
-7
-12
-17
-15
1
38
105
202
322
442
525
541
473
337
167
10
-103
-159
-170
-155
-134
-113
-98
-88
-82
-79
-77
-74
-69
-63
-55
-47
-39
-34
-30
-29
-27
-27
-23
-17
-9
-2
3
7
10
11
10
8
6
5
3
3
2
1
1
1
1
1
-2
-2
-3
-4
-7
-9
-12
-14
-18
-19
-20
-22
-24
-25
-28
-29
-28
-27
-23
-18
-14
-10
-9
-8
-10
-14
-19
-23
-25
-28
-28
-28
-25
-23
-20
-18
-15
-17
-15
-15
-14
-10
-7
0
6
10
13
15
15
13
12
11
10
8
7
6
5
2
2
2
1
1
-2
-4
-7
-10
-12
-12
-13
-14
-14
-15
-15
-15
-17
-18
-18
-20
-23
-24
-25
-29
-30
-33
-37
-40
-44
-48
-50
-53
-55
-57
-57
-53
-48
-43
-37
-35
-37
-39
-37
-22
13
76
172
295
422
523
562
518
395
226
61
-64
-129
-143
-122
-92
-62
-42
-28
-20
-17
-15
-15
-17
-18
-18
-19
-20
-20
-22
-23
-24
-27
-29
-30
-32
-32
-33
-34
-37
-39
-42
-44
-47
-49
-52
-54
-55
-55
-52
-49
-44
-38
-30
-24
-18
-15
-13
-12
-12
-9
-7
-2
3
10
15
18
20
21
23
26
30
33
38
42
45
45
43
41
36
31
26
21
17
13
8
3
0
-4
-7
-9
-9
-9
-12
-13
-15
-18
-20
-24
-29
-33
-37
-40
-43
-47
-52
-54
-59
-60
-60
-59
-57
-53
-48
-42
-35
-29
-25
-23
-22
-20
-17
-12
-5
5
12
20
25
27
26
26
23
22
20
18
17
16
13
12
10
7
5
1
0
-3
-4
-5
-7
-9
-9
-12
-13
-15
-18
-19
-20
-22
-23
-24
-27
-27
-29
-32
-34
-38
-42
-45
-49
-52
-53
-53
-49
-45
-39
-34
-30
-32
-33
-33
-23
2
55
136
247
375
487
551
538
441
287
118
-20
-103
-129
-115
-88
-59
-38
-24
-17
-13
-12
-12
-13
-14
-15
-17
-18
-19
-19
-20
-20
-20
-23
-23
-24
-28
-32
-35
-38
-42
-45
-48
-50
-53
-55
-57
-58
-58
-57
-52
-47
-40
-34
-28
-23
-20
-20
-20
-19
-18
-14
-8
-3
2
6
8
11
12
15
16
17
21
22
27
30
32
33
35
35
33
31
30
26
21
18
13
11
8
5
2
2
0
-3
-5
-7
-10
-15
-19
-23
-28
-32
-37
-40
-44
-48
-52
-57
-60
-64
-65
-67
-64
-60
-57
-53
-48
-43
-39
-37
-32
-25
-18
-10
1
10
18
26
30
32
32
28
25
20
15
11
10
7
5
3
1
0
-2
-3
-4
-5
-8
-12
-18
-24
-28
-25
-7
30
96
191
303
413
483
486
406
262
91
-59
-162
-204
-203
-179
-150
-128
-112
-98
-87
-77
-67
-58
-52
-48
-45
-44
-40
-35
-27
-17
-7
1
8
12
13
13
11
8
6
3
2
1
0
-2
-3
-5
-7
-8
-8
-8
-8
-9
-10
-12
-14
-15
-15
-18
-19
-22
-24
-28
-32
-34
-37
-37
-37
-35
-32
-28
-24
-22
-19
-20
-19
-19
-19
-18
-17
-15
-14
-13
-12
-12
-13
-14
-14
-13
-10
-5
1
6
11
13
15
15
12
11
10
8
7
7
6
5
3
1
0
-2
-3
-4
-7
-8
-9
-10
-13
-14
-15
-17
-18
-19
-20
-22
-24
-27
-29
-30
-33
-33
-34
-35
-38
-40
-44
-49
-53
-58
-60
-64
-63
-59
-54
-47
-40
-35
-32
-29
-29
-28
-25
-20
-13
-3
7
15
22
25
26
26
25
23
18
12
6
1
5
25
67
137
236
353
463
530
526
441
292
123
-23
-118
-157
-153
-128
-100
-78
-62
-53
-49
-48
-48
-50
-53
-57
-60
-63
-67
-70
-72
-72
-70
-68
-64
-59
-52
-45
-38
-33
-30
-28
-27
-25
-20
-15
-9
-2
5
11
15
17
18
20
18
17
15
11
7
7
7
7
7
6
5
2
0
-3
-3
-3
-2
1
3
5
8
12
15
16
15
12
8
3
-2
-8
-14
-20
-27
-33
-39
-44
-48
-52
-53
-53
-54
-54
-54
-53
-49
-44
-38
-33
-32
-30
-29
-28
-24
-19
-12
-4
2
7
12
15
16
16
13
13
11
10
7
5
2
0
-3
-3
-3
-3
-3
-3
-2
0
-2
-2
-3
-5
-8
-13
-15
-19
-22
-24
-25
-28
-30
-32
-33
-37
-39
-42
-44
-47
-49
-52
-55
-62
-67
-70
-63
-39
6
81
185
310
426
501
505
428
288
125
-17
-108
-142
-132
-102
-70
-44
-24
-13
-7
-3
-2
-2
-3
-4
-5
-7
-8
-9
-9
-10
-10
-12
-12
-13
-13
-13
-14
-15
-17
-19
-23
-24
-28
-32
-34
-37
-38
-40
-42
-43
-45
-48
-50
-52
-53
-53
-53
-49
-45
-39
-35
-30
-28
-25
-24
-22
-17
-8
2
16
30
42
50
55
57
57
53
51
46
40
32
26
18
15
8
5
1
-2
-4
-7
-9
-10
-14
-15
-18
-19
-20
-20
-22
-23
-23
-24
-25
-27
-28
-29
-29
-30
-32
-35
-38
-40
-44
-49
-53
-55
-59
-60
-62
-60
-55
-50
-44
-39
-33
-29
-25
-20
-17
-9
-2
7
15
20
23
25
26
23
22
21
18
17
15
13
12
12
11
8
7
3
-2
-8
-14
-15
-9
16
67
147
258
383
493
548
526
418
256
82
-60
-145
-174
-164
-139
-115
-97
-85
-79
-77
-74
-73
-69
-63
-57
-49
-43
-37
-33
-30
-29
-27
-23
-17
-10
-2
6
11
15
15
15
13
11
10
7
5
3
0
-2
-4
-4
-4
-4
-5
-7
-9
-12
-14
-15
-17
-19
-20
-22
-23
-24
-24
-24
-23
-22
-19
-17
-13
-12
-9
-8
-9
-10
-13
-15
-19
-22
-25
-27
-27
-25
-23
-19
-17
-15
-13
-12
-9
-7
0
6
12
17
21
22
21
18
16
12
8
6
3
2
1
0
-2
-3
-4
-5
-7
-8
-9
-10
-13
-13
-15
-18
-19
-22
-23
-25
-25
-25
-25
-27
-27
-28
-30
-34
-37
-40
-44
-48
-52
-54
-57
-58
-58
-57
-54
-49
-43
-38
-32
-28
-25
-24
-22
-17
-10
-5
-2
3
8
18
41
82
147
240
353
461
528
526
443
295
121
-29
-127
-163
-152
-119
-85
-59
-42
-32
-27
-24
-24
-24
-25
-27
-28
-29
-30
-32
-33
-34
-37
-39
-42
-44
-48
-50
-53
-55
-58
-58
-58
-55
-50
-44
-37
-30
-23
-18
-14
-12
-8
-3
2
8
15
20
22
23
21
18
16
13
12
11
12
12
13
15
18
21
25
28
32
35
37
37
36
33
28
25
18
13
8
6
2
1
-2
-3
-5
-12
-15
-20
-27
-30
-37
-44
-50
-57
-62
-65
-67
-68
-67
-64
-59
-53
-47
-40
-37
-34
-32
-28
-23
-15
-5
3
13
20
22
22
20
17
15
13
13
12
11
11
8
7
3
1
0
-2
-3
-3
-4
-7
-8
-12
-14
-15
-15
-14
-15
-17
-18
-20
-23
-27
-29
-33
-35
-38
-40
-43
-45
-49
-52
-54
-54
-50
-47
-40
-35
-32
-34
-38
-37
-25
3
60
145
260
385
491
543
520
415
261
97
-33
-109
-132
-119
-90
-63
-42
-28
-20
-17
-18
-18
-19
-18
-18
-18
-18
-19
-20
-22
-22
-23
-24
-27
-28
-32
-34
-37
-38
-40
-44
-48
-52
-55
-58
-59
-60
-62
-62
-59
-57
-52
-45
-39
-32
-27
-23
-20
-19
-19
-20
-19
-15
-10
-3
5
11
16
20
21
23
26
30
33
36
37
38
37
36
33
31
28
25
21
16
12
6
3
-2
-5
-9
-12
-13
-14
-15
-18
-19
-23
-27
-30
-35
-39
-43
-45
-48
-50
-54
-59
-64
-67
-69
-70
-69
-67
-64
-59
-54
-49
-43
-38
-34
-33
-30
-29
-23
-15
-5
5
12
18
21
22
23
21
20
20
17
16
15
13
11
8
6
3
1
-3
-9
-17
-20
-14
8
55
132
237
360
470
532
520
427
275
106
-38
-130
-165
-160
-135
-113
-95
-89
-88
-88
-87
-85
-82
-77
-70
-64
-57
-49
-44
-40
-39
-37
-33
-27
-19
-10
-3
3
8
11
15
16
17
16
15
11
10
8
7
6
3
1
-3
-5
-8
-10
-14
-15
-17
-17
-18
-20
-23
-27
-29
-28
-24
-17
-7
2
7
7
2
-4
-10
-15
-18
-20
-24
-28
-33
-37
-38
-39
-38
-35
-33
-30
-29
-27
-24
-20
-17
-13
-9
-4
7
23
37
46
43
30
12
-4
-14
-15
-12
-5
-2
2
6
10
15
18
20
17
13
12
16
21
25
20
3
-23
-45
-62
-67
-63
-55
-47
-42
-38
-35
-33
-33
-34
-37
-40
-45
-50
-54
-58
-60
-63
-63
-62
-59
-58
-57
-53
-47
-37
-28
-23
-22
-22
-22
-15
-7
1
3
5
13
35
78
146
220
295
357
385
367
305
201
75
-37
-118
-157
-153
-125
-92
-62
-44
-39
-43
-49
-53
-52
-45
-39
-34
-32
-30
-30
-33
-32
-33
-37
-39
-44
-50
-54
-58
-60
-62
-60
-57
-52
-44
-35
-27
-22
-15
-12
-8
-4
1
7
12
20
26
31
35
37
37
35
31
28
23
20
17
15
15
15
17
21
23
28
32
36
38
40
41
40
38
36
33
28
26
22
18
12
8
5
-2
-7
-12
-15
-19
-24
-29
-34
-39
-45
-50
-53
-57
-58
-57
-54
-52
-45
-39
-32
-27
-24
-22
-19
-14
-8
1
10
18
26
31
31
32
31
30
27
25
22
20
17
15
12
10
7
6
5
1
0
0
-3
-4
-7
-8
-10
-12
-12
-13
-13
-15
-18
-22
-24
-27
-29
-30
-32
-34
-37
-40
-45
-52
-58
-65
-70
-72
-58
-27
27
110
218
338
441
493
470
370
220
62
-59
-125
-135
-113
-79
-50
-30
-19
-13
-12
-9
-9
-9
-9
-9
-10
-12
-15
-18
-22
-25
-28
-29
-30
-32
-32
-33
-33
-33
-35
-35
-37
-37
-37
-35
-37
-38
-39
-42
-44
-45
-49
-50
-52
-53
-52
-52
-50
-48
-44
-40
-35
-33
-29
-27
-23
-18
-9
0
11
23
35
43
48
52
53
55
52
51
48
45
40
33
28
23
18
13
11
8
6
3
1
-2
-4
-8
-10
-14
-17
-20
-23
-27
-29
-32
-34
-35
-37
-39
-42
-43
-45
-49
-53
-57
-60
-65
-68
-69
-69
-67
-63
-58
-50
-45
-40
-35
-33
-29
-24
-17
-7
2
10
17
22
23
23
21
18
15
11
10
8
8
8
8
7
5
0
-8
-14
-12
2
40
105
201
320
438
522
540
473
336
165
5
-108
-163
-169
-150
-124
-104
-90
-84
-80
-79
-80
-80
-79
-77
-73
-68
-62
-54
-48
-43
-39
-38
-35
-33
-28
-20
-10
0
6
10
12
11
8
7
7
6
5
3
2
3
3
5
6
5
3
1
-2
-5
-8
-12
-15
-19
-20
-20
-19
-18
-17
-15
-14
-12
-8
-2
2
5
5
1
-5
-13
-17
-23
-28
-34
-40
-47
-50
-52
-49
-43
-35
-29
-23
-19
-19
-19
-19
-18
-17
-10
-3
6
12
16
18
18
17
15
13
12
11
11
10
10
7
5
-2
-7
-12
-17
-18
-19
-19
-19
-17
-17
-15
-15
-15
-17
-18
-19
-22
-23
-25
-28
-29
-30
-33
-35
-39
-44
-49
-53
-57
-59
-59
-58
-57
-53
-47
-40
-37
-35
-38
-40
-38
-18
25
101
207
336
460
543
555
482
337
165
8
-98
-145
-145
-119
-88
-62
-42
-29
-22
-19
-18
-18
-18
-18
-18
-19
-20
-22
-23
-25
-27
-27
-28
-28
-28
-28
-30
-32
-34
-38
-43
-47
-52
-57
-59
-62
-64
-65
-64
-62
-57
-50
-44
-39
-34
-32
-30
-29
-29
-29
-25
-20
-14
-5
1
8
16
21
27
32
36
38
41
43
43
42
41
37
32
27
22
17
12
7
3
-3
-5
-8
-10
-13
-15
-17
-18
-20
-24
-27
-30
-33
-35
-37
-38
-39
-42
-44
-48
-50
-53
-54
-57
-58
-59
-60
-59
-59
-58
-55
-50
-45
-39
-34
-30
-29
-27
-24
-19
-10
-3
7
17
25
27
27
25
21
18
16
13
12
11
8
7
5
2
-2
-2
-2
-2
-3
-4
-8
-15
-22
-25
-17
10
61
142
253
377
487
546
527
426
263
87
-60
-155
-193
-189
-165
-139
-117
-100
-90
-80
-73
-64
-55
-48
-40
-34
-29
-27
-24
-20
-14
-8
1
8
12
16
18
18
17
16
12
11
8
8
7
7
6
5
3
2
1
1
1
-2
-4
-8
-12
-15
-18
-20
-23
-25
-28
-29
-32
-32
-32
-30
-28
-25
-24
-20
-18
-17
-17
-17
-17
-18
-20
-23
-23
-23
-22
-19
-18
-15
-15
-14
-14
-12
-8
-4
2
8
12
15
15
12
10
7
5
2
1
0
0
0
0
-2
-4
-5
-7
-7
-5
-3
-2
0
-2
-3
-5
-7
-8
-9
-9
-9
-12
-12
-13
-13
-14
-14
-17
-20
-24
-29
-34
-39
-44
-49
-50
-53
-53
-49
-47
-42
-37
-30
-25
-23
-20
-19
-15
-9
-3
6
15
25
31
33
33
32
30
26
23
21
20
17
15
11
6
0
-5
-4
11
46
107
200
317
435
522
546
486
352
181
20
-97
-154
-162
-142
-114
-90
-73
-63
-59
-58
-59
-60
-63
-64
-65
-65
-64
-62
-57
-52
-47
-42
-39
-37
-34
-32
-27
-23
-14
-5
2
7
11
12
10
8
5
2
1
-2
-2
-2
-3
-3
-5
-8
-12
-14
-18
-22
-24
-27
-28
-29
-30
-32
-30
-30
-28
-24
-22
-19
-15
-14
-12
-9
-9
-10
-14
-17
-19
-23
-28
-33
-37
-40
-42
-42
-39
-35
-29
-23
-18
-15
-13
-12
-10
-5
0
7
13
18
21
22
21
20
17
13
10
6
1
0
-2
-3
-2
-3
-3
-4
-4
-4
-7
-8
-9
-10
-10
-10
-10
-9
-8
-9
-10
-12
-14
-17
-20
-23
-25
-29
-33
-35
-39
-45
-54
-62
-67
-64
-43
-2
68
168
291
410
492
506
437
300
133
-14
-113
-149
-137
-103
-64
-34
-15
-5
-3
0
0
-2
-2
-3
-4
-4
-7
-8
-9
-10
-10
-12
-12
-13
-14
-15
-17
-18
-18
-18
-17
-18
-19
-22
-24
-25
-28
-28
-29
-33
-37
-39
-42
-44
-48
-50
-53
-54
-57
-57
-55
-52
-45
-40
-35
-30
-23
-14
-4
6
20
32
43
53
58
61
60
56
51
46
40
35
28
22
16
11
6
3
2
2
2
1
-2
-5
-8
-10
-12
-14
-15
-18
-20
-22
-24
-24
-25
-27
-29
-32
-34
-37
-39
-42
-44
-47
-50
-55
-59
-63
-65
-64
-60
-55
-48
-39
-33
-29
-25
-23
-18
-14
-5
3
10
16
20
22
22
21
18
16
15
13
11
10
7
8
6
5
2
1
0
-2
-4
-5
-8
-10
-12
-13
-12
-12
-12
-13
-14
-15
-17
-20
-24
-27
-30
-34
-39
-47
-55
-60
-57
-38
3
72
173
291
402
471
471
388
245
78
-63
-153
-183
-167
-130
-88
-52
-24
-5
5
10
11
10
7
6
5
2
1
0
-3
-4
-7
-8
-9
-10
-12
-12
-12
-12
-13
-13
-14
-17
-20
-24
-27
-29
-30
-32
-32
-30
-30
-32
-35
-39
-44
-50
-57
-63
-68
-72
-73
-73
-70
-65
-59
-50
-43
-35
-28
-23
-15
-9
0
10
21
32
42
50
55
55
52
48
43
40
36
31
28
26
22
20
16
15
11
7
2
-2
-5
-9
-13
-15
-18
-20
-23
-25
-27
-28
-30
-32
-32
-33
-33
-34
-34
-35
-37
-39
-42
-47
-52
-55
-59
-64
-65
-65
-65
-63
-58
-52
-47
-39
-34
-30
-27
-25
-23
-19
-15
-8
1
8
15
17
20
18
17
16
15
15
15
15
13
13
11
5
-3
-10
-8
8
47
116
213
335
452
532
543
472
332
160
3
-109
-162
-169
-148
-123
-100
-84
-75
-70
-70
-72
-75
-78
-79
-80
-79
-77
-73
-67
-60
-52
-45
-39
-35
-33
-30
-27
-22
-14
-7
2
10
15
18
21
20
18
16
13
11
8
6
5
3
2
1
-2
-5
-9
-13
-17
-20
-23
-24
-25
-25
-24
-22
-18
-14
-9
-5
-2
1
2
2
0
-3
-8
-14
-20
-28
-34
-40
-45
-49
-53
-57
-57
-55
-53
-48
-43
-38
-35
-33
-30
-29
-27
-22
-15
-7
1
8
15
18
21
23
22
22
22
21
20
17
15
13
11
8
7
3
2
1
0
-2
-3
-4
-4
-5
-8
-10
-13
-15
-18
-20
-20
-22
-24
-25
-28
-30
-33
-35
-39
-44
-47
-50
-53
-55
-57
-57
-54
-52
-47
-40
-34
-28
-24
-20
-18
-14
-9
-3
1
5
6
10
20
43
88
161
262
383
492
556
546
453
297
122
-25
-122
-158
-150
-122
-92
-65
-49
-37
-30
-28
-27
-27
-28
-29
-30
-32
-33
-33
-34
-34
-35
-38
-42
-45
-50
-54
-58
-62
-63
-63
-60
-58
-54
-49
-43
-38
-30
-24
-18
-14
-10
-7
-3
3
11
17
23
25
25
23
21
18
15
12
10
7
7
7
8
11
13
16
20
23
27
31
33
36
36
36
32
30
27
25
22
15
3
-10
-25
-38
-45
-47
-47
-47
-47
-49
-53
-55
-59
-62
-64
-65
-64
-62
-58
-53
-45
-39
-33
-28
-24
-22
-18
-13
-7
1
11
20
26
30
31
30
27
25
22
20
17
15
13
12
10
8
6
3
2
0
-2
-4
-5
-7
-7
-8
-9
-8
-9
-10
-13
-15
-17
-19
-20
-22
-23
-25
-28
-32
-35
-42
-48
-57
-65
-74
-75
-65
-35
20
105
216
340
446
505
485
387
235
75
-52
-122
-132
-104
-64
-28
-3
8
11
6
0
-5
-8
-9
-10
-13
-14
-17
-19
-20
-19
-19
-19
-18
-18
-17
-17
-17
-18
-19
-18
-17
-13
-8
0
5
1
-8
-25
-43
-58
-68
-74
-80
-83
-87
-89
-88
-83
-75
-67
-58
-50
-44
-38
-29
-17
-3
12
27
38
47
50
47
40
31
26
22
21
23
22
20
15
7
1
-2
-2
0
2
5
8
12
20
26
28
23
10
-10
-33
-53
-65
-72
-72
-68
-60
-53
-45
-40
-38
-38
-40
-43
-47
-49
-50
-53
-55
-57
-59
-54
-40
-20
0
17
21
8
-14
-40
-59
-68
-63
-48
-30
-14
-2
7
13
17
21
26
32
40
46
48
47
45
43
46
53
60
57
43
25
15
32
88
188
313
432
503
497
405
255
87
-49
-129
-152
-132
-95
-62
-37
-20
-10
-4
-2
-9
-28
-58
-93
-125
-144
-147
-134
-113
-90
-72
-57
-44
-30
-14
0
16
27
36
38
40
40
36
32
26
17
7
-2
-10
-18
-22
-25
-25
-24
-19
-12
-4
2
1
-4
-14
-24
-29
-25
-13
3
15
20
15
3
-8
-14
-14
-9
-5
-7
-17
-30
-43
-57
-64
-68
-68
-64
-58
-53
-45
-38
-28
-18
-8
1
7
13
18
25
31
31
25
12
-5
-24
-37
-42
-40
-34
-25
-17
-8
-2
2
5
3
3
5
6
7
10
10
12
18
30
42
45
32
3
-35
-72
-94
-97
-85
-69
-54
-47
-45
-47
-47
-47
-47
-47
-47
-49
-52
-54
-55
-55
-53
-48
-38
-28
-24
-28
-35
-40
-28
13
85
186
310
430
520
550
498
373
206
41
-82
-145
-153
-123
-82
-43
-15
-4
-5
-17
-27
-33
-33
-29
-25
-22
-18
-15
-14
-15
-22
-30
-38
-42
-42
-39
-37
-37
-39
-42
-43
-43
-43
-40
-40
-44
-52
-60
-68
-69
-64
-55
-45
-35
-29
-27
-25
-27
-28
-27
-22
-13
-2
10
20
27
31
35
37
38
38
38
35
30
26
25
27
33
41
43
41
33
22
13
6
3
2
2
0
-2
0
1
2
0
-8
-20
-33
-43
-49
-53
-55
-58
-62
-64
-67
-65
-64
-62
-60
-57
-52
-43
-33
-25
-23
-25
-29
-35
-35
-35
-33
-29
-27
-23
-17
-8
3
12
20
23
25
23
22
21
21
20
17
16
15
17
20
20
17
12
5
-4
-10
-12
-10
-7
-4
-4
-5
-10
-18
-30
-42
-50
-52
-34
3
68
162
275
385
462
477
416
288
125
-29
-143
-200
-208
-183
-145
-109
-80
-62
-52
-48
-44
-39
-30
-18
-7
6
13
17
20
17
13
10
8
10
12
15
13
10
3
-3
-8
-9
-9
-9
-10
-12
-15
-17
-17
-18
-18
-18
-18
-15
-13
-12
-15
-23
-32
-39
-44
-47
-48
-47
-48
-49
-53
-55
-57
-53
-45
-35
-25
-17
-10
-3
3
10
13
17
18
17
17
20
22
26
31
32
32
31
27
26
23
20
17
15
10
6
2
0
-3
-4
-5
-7
-9
-12
-15
-18
-20
-22
-20
-19
-19
-19
-22
-25
-27
-28
-28
-28
-29
-33
-38
-45
-53
-58
-60
-60
-60
-60
-64
-69
-73
-72
-68
-60
-52
-44
-40
-37
-33
-28
-20
-10
-2
3
8
11
12
13
15
15
16
15
12
10
6
2
0
-4
-7
-9
-5
8
45
106
197
311
426
507
528
467
333
165
6
-108
-165
-169
-148
-118
-94
-78
-68
-63
-62
-62
-63
-63
-63
-62
-60
-60
-59
-60
-59
-57
-54
-53
-52
-50
-48
-44
-35
-23
-9
5
15
22
27
30
31
31
32
35
36
38
38
36
32
25
15
3
-8
-18
-24
-29
-32
-30
-27
-24
-20
-18
-14
-9
-4
2
5
7
8
8
8
10
8
6
1
-8
-17
-25
-34
-40
-42
-44
-42
-39
-35
-30
-23
-15
-8
-3
0
2
7
11
18
27
35
38
40
37
30
23
18
15
12
10
8
7
6
6
5
5
2
0
-3
-5
-5
-4
-3
-2
0
-2
-2
-3
-7
-13
-18
-19
-17
-13
-10
-13
-23
-33
-43
-49
-50
-50
-50
-52
-53
-53
-52
-48
-43
-37
-32
-29
-27
-24
-19
-13
0
10
17
20
16
10
5
2
2
7
11
15
17
17
17
16
15
13
13
13
13
15
16
15
13
11
7
3
-3
-14
-22
-23
-14
17
75
160
270
382
470
498
450
326
161
-3
-124
-190
-204
-189
-159
-130
-105
-85
-69
-57
-50
-48
-47
-45
-44
-39
-34
-27
-17
-9
0
7
12
13
12
8
3
-2
-4
-7
-8
-8
-10
-12
-14
-17
-19
-20
-22
-22
-20
-20
-18
-17
-17
-17
-17
-17
-20
-25
-32
-37
-42
-44
-45
-45
-45
-48
-52
-54
-57
-57
-55
-50
-45
-39
-30
-24
-19
-12
-5
1
6
8
11
12
13
16
21
26
31
36
40
41
40
37
35
32
30
26
25
22
20
17
13
8
5
0
-5
-9
-12
-13
-13
-13
-12
-12
-13
-13
-13
-14
-15
-17
-17
-18
-18
-19
-19
-18
-18
-18
-20
-23
-28
-33
-37
-40
-43
-43
-42
-39
-35
-32
-29
-29
-28
-24
-8
27
90
181
300
425
525
566
525
405
236
68
-62
-133
-149
-130
-99
-69
-45
-29
-19
-14
-12
-12
-13
-14
-15
-17
-18
-19
-20
-19
-19
-20
-22
-24
-27
-29
-30
-30
-30
-30
-32
-34
-38
-42
-47
-52
-55
-57
-59
-58
-57
-55
-53
-50
-48
-43
-39
-37
-35
-35
-34
-33
-29
-23
-14
-5
3
11
17
22
27
30
33
35
35
33
30
25
18
12
8
2
-4
-8
-12
-14
-18
-20
-22
-23
-24
-24
-24
-25
-27
-28
-29
-30
-30
-30
-30
-32
-33
-34
-35
-38
-40
-44
-48
-52
-57
-60
-64
-65
-64
-60
-54
-47
-40
-37
-32
-32
-30
-27
-24
-19
-12
-3
7
16
21
23
23
22
18
16
12
11
10
8
7
7
6
6
5
3
2
0
-3
-4
-5
-8
-13
-20
-27
-29
-19
11
67
156
270
395
492
532
488
365
193
20
-114
-192
-215
-200
-172
-142
-117
-95
-79
-67
-58
-49
-42
-37
-32
-29
-28
-24
-19
-13
-5
2
10
15
16
15
12
10
7
6
6
6
7
7
6
6
6
3
1
0
-2
-3
-3
-3
-3
-4
-5
-9
-13
-15
-20
-25
-28
-30
-33
-34
-34
-33
-33
-30
-27
-24
-22
-19
-17
-15
-15
-15
-15
-15
-14
-12
-9
-7
-4
-4
-4
-4
-3
0
6
11
20
25
27
28
27
25
21
17
13
10
8
6
5
3
2
1
0
-2
-3
-4
-5
-7
-8
-8
-8
-9
-9
-10
-12
-13
-13
-14
-15
-15
-18
-19
-19
-20
-24
-27
-30
-35
-39
-44
-49
-54
-57
-59
-60
-58
-53
-48
-42
-34
-30
-27
-25
-23
-19
-14
-7
2
12
20
26
28
30
27
25
22
18
16
15
13
12
11
10
8
5
0
-8
-14
-15
-7
25
81
167
280
400
495
531
487
366
198
33
-93
-163
-179
-163
-137
-112
-93
-82
-75
-72
-70
-70
-70
-68
-64
-59
-53
-45
-39
-34
-32
-30
-28
-24
-18
-12
-3
5
12
17
20
21
21
18
17
16
16
15
15
13
11
10
7
5
1
-2
-4
-7
-8
-10
-13
-17
-19
-19
-22
-22
-23
-22
-22
-19
-17
-13
-9
-5
-3
-2
-2
-3
-7
-9
-13
-17
-20
-23
-24
-23
-20
-17
-12
-7
-4
-4
-4
-3
-2
1
6
11
17
22
25
25
23
22
21
18
16
15
12
11
10
8
7
6
5
2
1
0
-3
-4
-7
-8
-7
-8
-8
-8
-8
-10
-10
-13
-14
-17
-20
-24
-27
-29
-33
-37
-39
-43
-47
-49
-52
-54
-54
-53
-48
-43
-37
-32
-27
-23
-22
-19
-15
-10
-4
5
15
22
28
31
32
31
28
27
25
23
20
16
13
10
6
5
3
2
1
0
-2
-4
-4
-7
-8
-8
-8
-8
-9
-12
-14
-15
-18
-20
-22
-24
-24
-27
-29
-33
-37
-40
-45
-48
-50
-52
-54
-55
-55
-52
-42
-14
32
105
206
327
440
510
508
427
286
126
-12
-99
-129
-118
-90
-60
-38
-24
-14
-10
-8
-9
-10
-12
-13
-14
-15
-18
-20
-22
-24
-25
-27
-28
-29
-30
-32
-33
-34
-35
-37
-38
-39
-40
-43
-44
-47
-49
-50
-53
-55
-58
-59
-59
-58
-57
-53
-49
-44
-40
-38
-37
-37
-34
-32
-28
-19
-9
0
11
18
25
30
32
35
38
42
46
50
51
52
51
50
48
46
43
40
37
33
30
26
21
16
12
7
3
1
-3
-4
-8
-12
-14
-18
-22
-25
-29
-32
-35
-38
-40
-43
-45
-48
-50
-52
-52
-50
-48
-43
-38
-32
-27
-23
-20
-18
-14
-8
-2
7
16
22
26
27
27
25
23
21
18
16
16
13
12
10
8
6
6
3
2
2
1
0
-2
-3
-4
-4
-5
-8
-10
-13
-15
-18
-19
-22
-25
-32
-39
-47
-52
-45
-23
22
95
196
308
405
452
425
322
170
11
-112
-180
-194
-172
-137
-102
-70
-47
-28
-12
0
6
10
11
11
10
8
7
5
3
1
0
-2
-3
-4
-4
-4
-5
-7
-8
-9
-12
-13
-15
-15
-17
-18
-18
-20
-23
-25
-28
-30
-32
-34
-35
-39
-43
-47
-52
-57
-62
-67
-69
-72
-70
-68
-62
-54
-44
-33
-23
-14
-7
1
7
13
21
28
36
41
45
45
42
38
31
25
20
16
12
10
7
3
2
-2
-4
-7
-9
-12
-14
-17
-18
-19
-20
-22
-22
-23
-24
-25
-27
-28
-28
-28
-28
-29
-30
-33
-37
-39
-43
-45
-49
-53
-57
-60
-64
-67
-69
-69
-67
-62
-55
-49
-42
-35
-30
-27
-24
-22
-17
-10
-2
6
12
15
18
18
18
17
15
12
11
11
10
8
8
8
8
6
1
-7
-13
-15
-5
22
77
162
275
398
501
545
508
392
225
53
-82
-162
-187
-174
-148
-122
-100
-87
-78
-75
-74
-74
-74
-73
-69
-64
-58
-50
-44
-39
-37
-34
-32
-29
-25
-19
-12
-3
5
11
16
20
20
18
16
13
11
10
8
7
7
7
8
7
7
6
2
-2
-4
-8
-12
-13
-15
-17
-19
-19
-19
-18
-17
-15
-12
-10
-8
-8
-7
-7
-8
-9
-12
-15
-18
-23
-28
-32
-35
-38
-39
-39
-37
-33
-28
-23
-19
-18
-17
-18
-15
-12
-8
0
6
12
17
18
18
18
18
18
16
15
12
10
7
6
5
3
2
1
1
0
-3
-4
-5
-5
-7
-7
-7
-5
-5
-7
-8
-10
-12
-14
-17
-18
-22
-23
-25
-28
-30
-34
-39
-44
-49
-52
-54
-55
-54
-52
-47
-40
-34
-29
-24
-22
-19
-17
-12
-7
1
10
18
25
28
30
28
26
23
22
20
18
17
16
13
12
11
7
6
5
3
1
-3
-9
-14
-14
-3
30
91
182
298
416
502
522
461
325
153
-9
-127
-185
-193
-173
-145
-122
-102
-89
-80
-75
-69
-63
-55
-47
-40
-34
-29
-27
-25
-23
-19
-14
-8
1
10
16
21
21
18
16
12
10
7
5
3
3
3
2
2
1
1
-2
-2
-3
-7
-9
-12
-14
-15
-18
-20
-23
-25
-28
-30
-32
-33
-34
-34
-34
-33
-30
-29
-27
-24
-23
-22
-22
-23
-24
-24
-24
-22
-19
-15
-12
-8
-5
-4
-3
-3
1
5
11
17
23
27
28
27
25
22
18
16
12
10
7
6
3
2
2
1
0
-2
-4
-7
-8
-10
-13
-15
-18
-18
-19
-19
-18
-19
-19
-19
-20
-20
-22
-24
-25
-28
-32
-34
-38
-42
-45
-49
-52
-53
-53
-52
-48
-43
-37
-30
-25
-20
-19
-19
-22
-23
-15
2
40
101
191
305
425
523
567
528
411
242
70
-63
-138
-153
-132
-98
-67
-44
-30
-23
-20
-19
-20
-22
-23
-24
-25
-25
-24
-25
-27
-28
-29
-30
-33
-35
-39
-42
-45
-48
-52
-54
-57
-59
-60
-62
-59
-55
-50
-44
-37
-30
-23
-19
-17
-14
-13
-10
-5
0
6
13
17
21
18
15
8
1
-5
-12
-15
-15
-10
-3
8
20
30
35
37
35
32
27
22
17
12
8
3
0
-3
-7
-9
-12
-14
-19
-23
-27
-30
-34
-37
-40
-43
-48
-52
-55
-58
-60
-60
-59
-58
-53
-48
-42
-35
-30
-25
-22
-19
-17
-13
-7
1
11
18
27
31
33
33
31
28
25
23
22
18
16
12
8
5
2
1
0
-4
-7
-10
-13
-15
-17
-17
-18
-17
-19
-22
-24
-27
-29
-30
-33
-34
-35
-38
-42
-47
-55
-64
-69
-62
-37
12
92
198
318
421
472
446
343
188
25
-102
-172
-184
-154
-110
-68
-34
-12
1
7
8
8
7
7
5
5
3
2
1
0
-2
-4
-5
-8
-9
-10
-13
-14
-15
-17
-17
-19
-19
-20
-23
-23
-24
-24
-24
-25
-28
-29
-32
-33
-35
-37
-40
-44
-48
-53
-55
-55
-54
-50
-45
-39
-32
-24
-17
-12
-5
2
10
20
31
42
52
61
65
65
61
56
50
42
37
31
27
25
21
17
13
10
5
2
-3
-5
-10
-13
-15
-17
-19
-20
-23
-25
-27
-29
-30
-32
-33
-34
-35
-38
-40
-43
-45
-48
-52
-57
-60
-65
-68
-72
-72
-73
-72
-69
-64
-59
-52
-44
-37
-33
-29
-28
-25
-22
-18
-10
-3
5
12
16
18
18
17
16
16
15
13
12
10
8
7
2
-3
-9
-12
-8
12
56
127
227
348
462
532
531
448
298
127
-24
-125
-168
-167
-143
-115
-94
-79
-73
-70
-72
-73
-77
-77
-77
-74
-72
-67
-60
-54
-48
-42
-38
-35
-33
-29
-25
-18
-10
-2
6
11
15
17
17
17
17
16
16
15
15
13
12
10
8
6
3
1
-2
-5
-8
-12
-15
-18
-20
-23
-23
-23
-20
-17
-12
-7
0
3
5
7
6
3
0
-7
-12
-19
-24
-30
-35
-40
-44
-45
-47
-44
-42
-38
-33
-30
-28
-28
-25
-23
-19
-14
-7
0
6
11
13
15
17
17
17
16
15
13
12
10
8
8
7
6
3
1
0
-3
-4
-5
-5
-7
-7
-8
-8
-10
-14
-17
-18
-20
-20
-23
-24
-27
-30
-34
-37
-40
-43
-45
-49
-53
-55
-58
-59
-59
-57
-52
-45
-39
-32
-25
-20
-18
-15
-13
-9
-2
6
12
20
25
28
28
26
22
18
16
13
12
12
11
10
8
8
7
6
6
5
5
3
2
0
-2
-3
-4
-5
-7
-8
-9
-12
-12
-13
-15
-17
-19
-22
-27
-33
-42
-53
-58
-55
-34
12
90
197
325
438
505
497
403
250
81
-59
-144
-170
-152
-113
-74
-42
-18
-4
0
2
1
0
0
0
0
-2
-2
-3
-4
-5
-7
-8
-8
-9
-12
-13
-14
-15
-17
-18
-18
-18
-19
-22
-23
-25
-25
-27
-29
-29
-30
-32
-34
-38
-42
-45
-52
-58
-63
-67
-69
-70
-70
-68
-64
-59
-53
-47
-42
-37
-30
-23
-14
-2
12
27
40
50
56
58
60
57
55
51
47
45
40
37
35
31
27
22
18
13
10
5
1
-2
-4
-5
-7
-9
-12
-13
-15
-18
-19
-20
-22
-23
-24
-25
-27
-28
-29
-32
-33
-35
-38
-42
-44
-45
-47
-45
-43
-38
-32
-25
-20
-17
-15
-14
-14
-13
-9
-3
6
15
22
27
30
28
27
23
20
17
15
12
11
10
7
6
5
3
2
1
0
-2
-3
-5
-7
-7
-7
-8
-10
-15
-22
-29
-30
-20
8
62
145
253
367
455
482
430
300
131
-33
-154
-213
-218
-188
-149
-112
-83
-62
-49
-42
-37
-32
-27
-20
-12
-4
3
11
15
16
16
13
11
10
7
6
5
5
3
2
0
-2
-3
-5
-5
-7
-7
-5
-7
-7
-7
-7
-7
-8
-10
-12
-15
-19
-23
-28
-32
-35
-39
-43
-47
-49
-52
-53
-53
-52
-49
-44
-37
-28
-18
-8
0
6
11
12
12
13
15
17
22
27
33
36
37
37
35
30
25
20
13
10
6
2
1
-3
-5
-7
-8
-8
-10
-12
-12
-13
-14
-14
-15
-17
-19
-20
-20
-22
-23
-24
-27
-27
-29
-30
-33
-34
-35
-39
-40
-43
-48
-52
-54
-55
-57
-55
-53
-49
-44
-39
-33
-29
-27
-23
-20
-15
-10
-3
6
15
21
26
27
25
23
21
18
18
18
17
16
15
12
11
8
7
5
3
2
0
-4
-9
-14
-14
-4
26
81
163
272
385
473
502
451
325
158
-4
-124
-187
-198
-177
-147
-120
-100
-88
-78
-70
-63
-54
-47
-40
-34
-30
-28
-25
-23
-18
-10
-4
5
12
17
20
21
20
17
15
12
11
10
8
7
7
6
5
3
2
2
1
0
0
-3
-4
-7
-9
-12
-14
-17
-18
-20
-23
-24
-27
-29
-29
-30
-30
-29
-27
-25
-23
-20
-18
-17
-15
-15
-13
-12
-9
-5
-3
1
2
1
1
2
5
10
15
22
27
31
31
31
28
25
20
16
11
8
6
3
1
-3
-3
-5
-7
-5
-7
-8
-9
-10
-12
-13
-15
-17
-18
-18
-19
-20
-22
-23
-24
-25
-25
-27
-30
-32
-35
-39
-44
-50
-54
-57
-58
-58
-58
-55
-52
-48
-42
-37
-32
-29
-28
-28
-25
-22
-14
-5
3
12
20
23
25
23
21
18
15
13
12
11
12
10
7
6
3
1
1
0
-2
-2
-3
-4
-8
-13
-18
-15
-3
31
90
177
287
397
475
488
423
288
120
-38
-150
-205
-209
-185
-154
-127
-104
-85
-72
-59
-49
-40
-34
-30
-28
-25
-22
-15
-9
-2
5
11
15
17
17
16
13
11
10
7
6
6
6
5
3
3
3
3
2
2
2
2
0
0
-3
-5
-8
-10
-15
-19
-24
-27
-30
-34
-37
-39
-42
-43
-44
-44
-44
-42
-38
-34
-30
-25
-22
-17
-13
-8
-4
1
3
5
6
6
6
6
8
13
20
25
30
32
32
30
25
21
15
10
6
2
1
0
-2
-3
-3
-4
-5
-7
-9
-10
-12
-14
-17
-19
-20
-22
-23
-23
-23
-24
-24
-25
-27
-29
-30
-32
-33
-34
-37
-40
-45
-50
-57
-60
-64
-67
-67
-65
-62
-55
-49
-42
-37
-33
-32
-29
-27
-23
-17
-9
-2
6
11
15
16
17
16
16
15
13
12
12
11
11
11
10
8
8
5
0
-8
-14
-14
-2
30
90
181
296
413
498
521
461
330
160
1
-117
-177
-185
-168
-140
-115
-98
-89
-82
-79
-77
-73
-69
-64
-58
-50
-44
-38
-33
-30
-29
-28
-24
-19
-13
-4
3
10
13
17
17
17
16
13
12
11
10
10
8
8
10
8
7
6
5
2
0
-4
-7
-9
-12
-13
-15
-19
-20
-23
-24
-24
-24
-23
-20
-17
-12
-9
-7
-7
-7
-9
-13
-18
-22
-27
-30
-33
-35
-35
-33
-30
-25
-22
-18
-15
-14
-12
-12
-7
-2
5
10
15
18
20
18
17
16
15
13
11
10
10
10
8
8
7
7
6
6
2
1
-2
-3
-5
-8
-10
-12
-12
-12
-13
-13
-14
-17
-19
-20
-23
-25
-27
-32
-34
-38
-42
-47
-49
-53
-54
-54
-53
-50
-45
-40
-34
-30
-25
-23
-20
-17
-14
-9
-3
3
10
18
23
26
26
25
22
20
17
15
13
12
12
11
10
8
7
5
3
2
1
0
0
-2
-3
-4
-5
-7
-9
-10
-12
-14
-15
-19
-24
-32
-40
-44
-38
-13
37
117
223
340
433
471
431
317
158
1
-117
-177
-184
-160
-125
-93
-65
-43
-25
-10
-2
7
13
16
17
16
13
11
8
7
5
3
2
1
0
-2
-3
-3
-3
-4
-5
-7
-9
-10
-12
-13
-13
-14
-14
-14
-14
-15
-17
-18
-20
-24
-28
-33
-39
-47
-52
-57
-62
-67
-70
-72
-72
-70
-65
-58
-49
-38
-28
-18
-9
-3
5
13
23
33
43
52
57
58
58
55
51
47
41
37
33
28
23
17
12
8
3
1
-4
-7
-8
-8
-10
-13
-14
-17
-18
-19
-20
-22
-23
-24
-25
-25
-27
-28
-28
-30
-32
-34
-37
-40
-43
-47
-49
-52
-52
-52
-52
-49
-45
-42
-38
-33
-30
-28
-27
-24
-20
-13
-5
5
15
22
27
28
26
25
22
20
17
16
15
13
11
10
7
6
5
3
3
2
1
0
-3
-4
-7
-13
-19
-23
-19
0
43
113
213
333
442
506
498
406
252
76
-73
-168
-204
-195
-168
-135
-109
-89
-73
-60
-50
-44
-39
-35
-32
-28
-23
-15
-7
1
8
15
17
18
17
15
11
8
7
5
3
3
2
1
0
-2
-3
-3
-4
-3
-3
-4
-4
-5
-8
-9
-12
-15
-19
-23
-27
-30
-32
-34
-37
-39
-42
-44
-45
-47
-48
-47
-44
-40
-37
-32
-25
-19
-12
-7
-2
1
3
3
2
3
5
10
16
22
28
31
32
31
28
23
18
13
10
7
5
2
1
1
-2
-3
-3
-4
-5
-7
-8
-8
-9
-10
-12
-13
-14
-15
-17
-17
-19
-20
-23
-25
-27
-29
-30
-32
-34
-37
-40
-44
-50
-55
-59
-62
-63
-60
-57
-52
-44
-37
-32
-28
-27
-25
-23
-19
-12
-3
5
13
20
23
25
23
22
20
18
17
16
15
13
11
8
6
3
0
-4
-9
-10
0
26
77
157
266
382
477
518
481
366
203
37
-89
-160
-178
-162
-133
-108
-89
-78
-73
-72
-72
-72
-70
-68
-63
-57
-49
-42
-35
-30
-28
-27
-24
-22
-17
-9
0
7
13
18
21
21
20
18
17
16
16
15
15
15
13
12
10
8
6
5
2
0
-3
-7
-9
-12
-14
-17
-18
-18
-18
-18
-17
-15
-13
-10
-7
-4
-2
-2
-3
-5
-9
-14
-19
-24
-27
-28
-27
-24
-20
-15
-12
-7
-5
-5
-7
-9
-9
-8
-3
3
8
13
17
18
18
17
16
13
11
10
7
6
6
5
2
1
0
-3
-4
-5
-5
-5
-7
-8
-8
-10
-10
-13
-14
-14
-17
-18
-20
-24
-28
-29
-33
-35
-37
-40
-44
-47
-52
-55
-59
-60
-62
-60
-58
-53
-47
-40
-34
-29
-25
-23
-20
-17
-12
-4
3
11
18
23
27
27
26
22
20
17
13
11
8
8
7
6
5
3
3
3
3
3
2
0
-3
-5
-8
-9
-9
-10
-10
-13
-14
-17
-20
-23
-24
-25
-28
-30
-34
-38
-40
-45
-49
-55
-62
-65
-60
-40
2
71
168
287
407
493
516
457
328
166
15
-89
-135
-134
-105
-73
-44
-24
-12
-4
-3
-2
-3
-4
-4
-5
-5
-7
-7
-8
-9
-10
-12
-13
-15
-18
-20
-23
-25
-27
-29
-30
-30
-32
-33
-34
-37
-40
-43
-47
-48
-50
-52
-53
-55
-58
-60
-63
-63
-63
-63
-59
-55
-50
-47
-44
-42
-40
-38
-34
-28
-19
-8
5
13
23
32
37
41
42
41
40
37
35
32
30
27
25
21
18
16
12
11
7
5
1
-4
-8
-12
-14
-17
-19
-20
-22
-23
-25
-27
-28
-29
-30
-32
-34
-37
-39
-43
-45
-52
-57
-60
-64
-65
-63
-60
-55
-50
-43
-35
-30
-25
-22
-19
-15
-13
-8
0
3
11
17
21
23
23
22
20
17
15
12
10
7
5
5
2
1
-2
-7
-14
-14
-3
26
81
167
282
406
511
560
530
417
253
81
-55
-140
-167
-158
-134
-109
-90
-78
-73
-72
-73
-77
-79
-83
-83
-79
-73
-64
-54
-44
-38
-33
-32
-29
-27
-22
-15
-8
0
5
11
15
17
18
18
16
15
12
11
10
7
7
6
3
1
0
-3
-7
-10
-15
-19
-23
-25
-28
-29
-30
-30
-29
-28
-25
-23
-19
-15
-12
-9
-8
-8
-10
-17
-22
-27
-33
-39
-44
-49
-53
-57
-58
-57
-52
-47
-42
-37
-33
-30
-29
-28
-25
-20
-14
-5
2
10
15
17
17
16
15
13
12
11
10
8
7
5
3
1
-2
-5
-7
-8
-9
-12
-14
-15
-18
-20
-20
-23
-23
-23
-24
-25
-25
-29
-30
-33
-34
-37
-40
-43
-45
-49
-52
-55
-58
-60
-60
-60
-59
-55
-49
-42
-34
-28
-23
-20
-20
-22
-24
-22
-10
18
71
150
258
383
501
572
570
482
327
148
-8
-109
-153
-148
-120
-88
-60
-42
-29
-23
-19
-19
-19
-19
-19
-19
-20
-20
-20
-22
-22
-24
-25
-28
-30
-34
-37
-40
-43
-48
-50
-54
-57
-58
-58
-58
-55
-50
-45
-38
-30
-27
-22
-18
-17
-14
-12
-7
-3
5
11
16
20
21
21
20
17
16
13
15
17
20
22
25
27
28
30
28
27
25
22
18
15
12
7
3
1
-4
-5
-8
-10
-12
-15
-18
-20
-25
-28
-29
-32
-34
-38
-42
-44
-47
-49
-52
-53
-53
-52
-50
-48
-43
-38
-33
-28
-23
-19
-15
-12
-5
2
12
21
28
35
37
38
38
37
36
35
32
31
28
26
23
21
18
15
12
10
7
7
5
2
-2
-8
-15
-22
-22
-5
31
96
192
312
433
520
537
471
331
156
-9
-124
-183
-192
-172
-145
-120
-100
-87
-74
-63
-54
-45
-39
-34
-30
-28
-24
-19
-13
-5
3
11
17
18
18
17
13
11
8
7
6
5
3
1
-2
-4
-7
-9
-12
-14
-14
-15
-14
-15
-18
-20
-23
-25
-28
-29
-30
-32
-34
-37
-38
-40
-42
-40
-39
-38
-35
-34
-33
-32
-30
-29
-28
-24
-20
-18
-14
-10
-10
-10
-14
-17
-17
-17
-12
-5
3
11
16
18
17
15
11
7
3
1
0
0
0
-2
-4
-5
-8
-10
-13
-14
-15
-17
-17
-18
-19
-22
-23
-24
-25
-27
-29
-30
-30
-32
-33
-34
-35
-37
-38
-42
-45
-49
-53
-57
-59
-62
-65
-68
-65
-63
-58
-52
-44
-38
-33
-30
-29
-28
-25
-20
-13
-5
3
11
17
21
21
16
8
2
2
15
50
113
206
325
446
536
563
506
372
198
28
-95
-160
-170
-150
-120
-90
-70
-57
-48
-44
-42
-42
-43
-43
-43
-44
-47
-50
-55
-59
-63
-67
-69
-70
-72
-70
-69
-64
-59
-52
-44
-37
-30
-27
-25
-23
-20
-15
-8
2
10
17
21
22
20
17
12
10
7
5
3
3
2
0
-2
-4
-4
-4
-3
0
1
5
7
11
13
16
16
16
13
11
8
5
0
-3
-8
-12
-17
-19
-23
-28
-32
-37
-43
-48
-53
-57
-62
-65
-67
-67
-65
-62
-55
-48
-42
-35
-30
-28
-27
-25
-20
-14
-5
3
12
20
23
26
26
26
26
25
23
22
20
17
16
15
13
10
7
3
0
-3
-5
-5
-7
-8
-9
-9
-10
-10
-12
-14
-15
-18
-20
-22
-24
-27
-28
-29
-30
-33
-37
-39
-43
-47
-49
-49
-49
-47
-43
-42
-42
-40
-34
-19
15
75
167
288
421
528
575
536
417
248
78
-52
-123
-138
-120
-89
-59
-37
-22
-13
-8
-8
-8
-9
-9
-10
-12
-14
-15
-17
-19
-19
-19
-22
-22
-23
-25
-27
-29
-32
-34
-37
-39
-40
-44
-45
-49
-52
-53
-54
-54
-53
-52
-50
-47
-44
-39
-35
-33
-30
-30
-29
-30
-27
-22
-14
-8
1
8
13
18
21
25
26
30
31
33
33
32
32
30
27
23
20
15
11
6
2
0
-3
-7
-8
-9
-12
-14
-17
-19
-20
-23
-24
-27
-29
-30
-33
-35
-37
-39
-40
-43
-44
-48
-50
-52
-54
-57
-57
-54
-49
-44
-38
-32
-28
-25
-23
-19
-13
-8
1
11
20
27
31
32
31
27
25
22
20
17
16
15
12
11
8
6
5
3
1
-3
-8
-14
-19
-17
1
41
110
210
332
452
533
543
466
320
141
-20
-133
-184
-187
-163
-137
-114
-99
-90
-84
-79
-73
-67
-60
-53
-47
-42
-38
-35
-33
-29
-23
-15
-7
1
8
12
15
13
12
10
6
2
1
-2
-4
-4
-5
-7
-5
-5
-5
-7
-9
-12
-13
-15
-19
-22
-24
-27
-29
-30
-33
-35
-37
-37
-37
-35
-33
-30
-28
-25
-23
-23
-23
-24
-27
-29
-33
-34
-34
-33
-32
-28
-23
-20
-17
-15
-15
-13
-9
-3
5
11
16
20
21
21
20
17
15
12
10
7
6
5
3
5
5
3
2
1
0
-2
-4
-5
-8
-10
-13
-15
-17
-18
-20
-22
-22
-23
-25
-27
-28
-30
-33
-34
-38
-42
-45
-49
-52
-54
-55
-57
-57
-53
-49
-44
-39
-34
-30
-28
-27
-25
-23
-18
-13
-7
-2
3
12
32
68
130
218
331
446
531
552
488
353
180
15
-99
-153
-157
-129
-95
-65
-45
-33
-25
-22
-22
-22
-23
-24
-27
-28
-29
-30
-30
-30
-32
-34
-38
-40
-44
-48
-50
-53
-54
-54
-53
-50
-47
-42
-35
-29
-24
-18
-15
-13
-12
-12
-9
-5
0
5
8
12
12
13
15
12
11
8
7
7
6
6
7
8
12
15
17
20
22
23
23
23
21
17
13
8
5
0
-5
-8
-12
-14
-17
-20
-24
-28
-32
-35
-40
-44
-50
-55
-60
-64
-69
-74
-77
-78
-78
-75
-70
-65
-59
-52
-45
-42
-38
-35
-32
-25
-18
-8
1
10
16
18
21
20
17
16
15
13
12
11
8
6
2
0
-2
-3
-4
-5
-7
-9
-10
-12
-13
-14
-15
-17
-18
-19
-20
-22
-23
-25
-27
-29
-32
-35
-38
-42
-44
-48
-50
-54
-55
-58
-60
-62
-64
-59
-45
-13
38
118
225
347
456
521
513
426
280
115
-22
-107
-137
-125
-97
-68
-43
-27
-17
-10
-7
-5
-5
-7
-9
-12
-12
-13
-13
-14
-15
-18
-20
-22
-23
-23
-23
-23
-24
-24
-27
-29
-32
-35
-37
-39
-42
-44
-45
-48
-49
-52
-53
-54
-55
-57
-55
-53
-49
-44
-38
-33
-29
-29
-28
-25
-22
-15
-7
3
13
25
36
43
48
53
53
53
50
43
38
31
26
21
17
12
10
7
5
1
-2
-4
-7
-8
-12
-15
-18
-19
-22
-23
-25
-27
-30
-32
-34
-34
-35
-35
-37
-38
-40
-44
-47
-49
-54
-58
-62
-65
-67
-65
-63
-57
-50
-43
-38
-32
-28
-25
-24
-20
-14
-8
1
7
13
18
21
21
18
17
15
13
12
11
11
10
7
6
5
3
3
-2
-9
-14
-15
-3
28
87
176
292
415
511
546
498
375
205
37
-92
-163
-180
-164
-138
-113
-94
-83
-78
-77
-75
-75
-74
-73
-68
-62
-54
-47
-39
-34
-32
-29
-27
-23
-17
-9
-2
6
12
17
20
18
18
16
12
8
6
5
3
3
3
5
3
2
0
-3
-7
-9
-13
-15
-18
-20
-23
-24
-25
-27
-27
-24
-22
-20
-15
-12
-8
-5
-4
-5
-7
-10
-15
-20
-27
-33
-38
-43
-45
-45
-43
-39
-33
-28
-24
-22
-20
-19
-17
-13
-7
0
6
13
17
20
20
20
18
17
16
15
13
13
12
11
10
8
7
6
2
1
-3
-7
-9
-10
-13
-15
-15
-15
-15
-15
-17
-17
-19
-20
-23
-25
-27
-30
-33
-35
-38
-42
-45
-48
-52
-54
-54
-54
-52
-48
-43
-38
-32
-28
-24
-23
-24
-25
-27
-18
2
43
110
203
320
441
533
565
515
388
217
50
-75
-142
-153
-132
-99
-68
-48
-34
-27
-24
-23
-24
-25
-25
-25
-27
-27
-27
-28
-28
-30
-32
-34
-35
-38
-39
-42
-44
-48
-50
-54
-57
-60
-60
-62
-59
-57
-53
-45
-38
-30
-24
-19
-15
-14
-12
-8
-4
2
10
15
17
20
20
18
16
15
13
15
17
21
26
30
32
35
36
35
33
28
26
21
17
11
6
1
-4
-9
-12
-14
-17
-18
-20
-22
-25
-28
-30
-34
-38
-42
-47
-50
-55
-59
-63
-64
-65
-65
-64
-62
-55
-49
-42
-35
-30
-25
-23
-19
-15
-10
-3
5
13
22
27
31
33
33
33
31
30
27
26
25
22
20
17
15
12
10
7
5
2
0
-2
-3
-4
-5
-7
-7
-8
-9
-12
-13
-15
-17
-19
-24
-32
-42
-47
-43
-24
15
83
181
293
397
456
446
357
211
50
-83
-164
-187
-169
-132
-93
-59
-32
-12
1
10
15
16
15
12
10
7
6
5
3
2
1
0
-3
-4
-5
-5
-7
-8
-8
-9
-10
-12
-14
-17
-18
-19
-20
-22
-22
-23
-23
-24
-25
-27
-29
-33
-37
-42
-47
-52
-57
-59
-62
-62
-60
-55
-48
-39
-30
-20
-14
-7
0
8
18
28
38
47
52
53
52
47
41
35
27
22
17
13
11
10
7
3
1
-2
-4
-7
-10
-13
-15
-19
-22
-24
-25
-28
-29
-30
-32
-33
-33
-34
-34
-34
-35
-35
-35
-37
-38
-42
-47
-50
-55
-60
-63
-63
-62
-58
-52
-47
-39
-34
-29
-27
-25
-25
-22
-18
-10
-2
7
16
22
27
28
28
26
23
21
20
17
16
15
13
11
7
1
-4
-10
-8
7
42
103
192
307
422
505
523
462
328
160
0
-113
-168
-173
-150
-122
-98
-83
-74
-72
-72
-73
-74
-74
-73
-70
-65
-60
-53
-47
-40
-37
-34
-33
-32
-29
-24
-15
-7
3
10
16
18
20
18
16
13
12
10
10
10
8
8
8
6
3
1
-2
-4
-7
-9
-10
-13
-14
-17
-19
-20
-20
-20
-18
-15
-12
-9
-5
-2
0
0
-3
-8
-13
-19
-25
-30
-35
-38
-40
-43
-42
-39
-34
-28
-23
-18
-15
-14
-14
-13
-10
-5
1
6
11
13
13
12
11
8
7
7
6
5
5
5
5
3
2
2
1
-2
-3
-4
-7
-7
-7
-7
-8
-8
-8
-9
-10
-13
-13
-14
-17
-18
-23
-25
-28
-33
-35
-40
-45
-49
-54
-58
-62
-63
-63
-59
-57
-52
-45
-40
-34
-30
-27
-24
-20
-15
-9
-2
7
13
20
23
25
25
22
20
16
12
10
8
7
6
3
-2
-7
-10
-4
16
60
130
230
347
455
518
510
421
273
105
-40
-135
-173
-167
-140
-113
-90
-74
-65
-63
-63
-64
-68
-70
-73
-73
-70
-67
-60
-54
-47
-39
-34
-30
-28
-28
-25
-23
-17
-10
0
6
13
17
18
16
15
12
8
8
7
7
7
7
7
5
2
0
-3
-7
-12
-15
-19
-22
-25
-28
-29
-29
-29
-27
-24
-20
-17
-13
-9
-8
-5
-4
-4
-7
-10
-17
-22
-29
-37
-43
-45
-49
-49
-47
-43
-40
-35
-32
-28
-25
-25
-25
-24
-20
-15
-10
-3
5
10
13
15
15
15
13
11
10
8
7
6
5
3
1
1
0
0
-3
-4
-7
-7
-8
-9
-9
-10
-10
-12
-13
-14
-18
-19
-22
-23
-25
-28
-30
-32
-34
-38
-40
-44
-49
-54
-58
-60
-62
-60
-57
-52
-47
-45
-45
-44
-38
-19
21
88
187
310
433
521
541
476
340
168
10
-100
-149
-149
-122
-87
-57
-34
-19
-12
-8
-7
-7
-7
-9
-10
-10
-12
-12
-12
-13
-13
-14
-17
-18
-20
-23
-25
-28
-29
-32
-33
-35
-39
-42
-44
-48
-50
-52
-53
-52
-48
-45
-39
-33
-27
-20
-15
-14
-13
-12
-10
-9
-4
1
8
16
22
27
31
35
36
38
41
41
41
41
38
35
32
27
22
17
13
7
2
-2
-7
-8
-10
-12
-13
-14
-17
-18
-20
-23
-24
-27
-29
-30
-32
-34
-35
-38
-40
-43
-47
-52
-54
-57
-59
-62
-62
-59
-55
-50
-43
-37
-30
-27
-25
-22
-19
-15
-9
-2
8
16
22
27
27
27
25
22
20
17
15
12
10
7
5
3
2
1
0
-2
-5
-9
-17
-20
-17
3
47
120
221
341
451
516
510
421
268
96
-53
-150
-189
-184
-160
-132
-110
-97
-87
-83
-79
-74
-68
-60
-53
-45
-39
-35
-33
-30
-27
-22
-15
-7
0
7
12
16
16
15
12
11
7
6
3
1
-2
-2
-3
-4
-4
-4
-5
-4
-5
-8
-10
-13
-15
-17
-19
-20
-22
-22
-23
-24
-24
-24
-23
-20
-17
-14
-12
-9
-9
-10
-13
-15
-18
-19
-22
-22
-22
-20
-18
-17
-14
-13
-12
-12
-9
-5
0
6
12
18
23
23
23
21
18
15
11
8
5
3
1
0
-2
-3
-3
-3
-4
-5
-7
-8
-10
-12
-13
-15
-18
-19
-20
-22
-24
-25
-27
-27
-27
-28
-30
-32
-35
-40
-44
-48
-50
-54
-57
-58
-59
-58
-55
-50
-44
-38
-33
-29
-28
-27
-24
-19
-13
-4
2
8
10
10
15
30
62
120
207
315
427
507
525
462
326
157
-2
-112
-164
-163
-133
-99
-69
-49
-37
-30
-28
-27
-28
-29
-30
-32
-33
-33
-34
-35
-37
-39
-42
-45
-49
-53
-57
-59
-60
-60
-59
-55
-52
-44
-38
-33
-28
-24
-22
-18
-15
-9
0
8
20
28
35
36
35
31
27
23
20
16
13
12
12
12
13
15
17
21
25
28
32
35
35
33
32
30
26
21
16
10
5
-3
-7
-10
-13
-17
-19
-23
-27
-32
-34
-39
-45
-50
-55
-59
-62
-63
-62
-59
-54
-48
-42
-35
-30
-28
-25
-22
-18
-10
-2
7
16
22
26
26
23
21
17
15
13
11
11
10
8
7
5
3
2
2
0
-2
-4
-7
-8
-10
-12
-13
-14
-15
-18
-19
-22
-23
-25
-25
-28
-29
-32
-35
-40
-48
-58
-67
-68
-59
-28
25
108
216
331
422
457
415
297
138
-15
-129
-182
-178
-142
-95
-54
-25
-8
1
5
6
6
6
5
5
3
2
0
-2
-4
-5
-7
-8
-9
-10
-12
-13
-14
-14
-15
-18
-19
-22
-24
-25
-28
-28
-28
-28
-29
-30
-33
-35
-39
-43
-47
-49
-52
-53
-54
-53
-49
-44
-39
-32
-27
-20
-15
-10
-4
3
12
25
37
50
58
63
65
63
58
53
47
42
35
30
25
20
16
12
10
7
2
0
-5
-8
-10
-13
-15
-18
-20
-23
-24
-27
-28
-29
-30
-32
-32
-33
-34
-35
-39
-42
-45
-49
-54
-58
-63
-67
-70
-72
-73
-70
-67
-63
-55
-49
-42
-37
-33
-30
-28
-24
-19
-13
-4
2
8
12
15
15
15
13
12
11
11
10
8
8
8
7
5
1
-5
-13
-15
-8
17
66
143
247
367
470
523
501
400
243
76
-62
-147
-175
-167
-142
-117
-97
-84
-78
-77
-77
-77
-77
-77
-74
-70
-65
-58
-50
-44
-38
-34
-32
-29
-27
-22
-15
-8
1
8
13
17
18
18
17
16
15
12
12
12
11
12
11
8
5
1
-4
-9
-13
-15
-18
-20
-22
-22
-22
-20
-19
-18
-17
-14
-13
-9
-5
-2
1
2
2
0
-4
-10
-18
-24
-32
-37
-40
-43
-43
-40
-38
-32
-28
-25
-23
-23
-23
-24
-22
-18
-12
-5
2
8
12
15
16
17
16
16
13
12
11
10
8
8
7
7
7
6
5
2
-2
-4
-7
-9
-9
-10
-10
-12
-13
-17
-20
-22
-25
-28
-30
-33
-35
-38
-42
-43
-47
-49
-53
-57
-60
-63
-65
-65
-63
-58
-52
-45
-38
-33
-29
-25
-23
-19
-14
-7
2
11
17
20
18
13
8
8
23
60
125
217
331
441
515
522
450
308
140
-14
-122
-168
-167
-139
-105
-77
-57
-44
-35
-33
-33
-33
-33
-33
-34
-35
-35
-37
-39
-42
-45
-50
-55
-59
-62
-64
-63
-60
-55
-50
-43
-37
-30
-24
-22
-18
-15
-14
-9
-4
3
13
21
27
30
31
30
26
22
18
15
12
8
6
5
5
5
5
6
7
10
12
16
20
23
25
27
27
25
22
17
12
6
1
-4
-8
-9
-13
-15
-19
-23
-27
-33
-39
-44
-49
-54
-58
-60
-60
-59
-55
-49
-43
-35
-29
-24
-22
-20
-17
-12
-5
3
12
21
27
30
30
27
23
20
16
13
11
11
10
8
8
7
6
5
2
1
0
-2
-3
-4
-5
-8
-9
-12
-13
-14
-17
-18
-20
-23
-24
-27
-29
-30
-34
-39
-48
-58
-65
-64
-47
-7
60
156
275
388
463
468
395
255
88
-55
-148
-179
-163
-123
-79
-43
-17
-2
5
6
5
3
1
0
-2
-2
-2
-3
-3
-4
-5
-7
-8
-9
-12
-13
-14
-15
-18
-19
-19
-22
-23
-25
-25
-27
-28
-29
-30
-32
-33
-35
-38
-42
-47
-52
-55
-59
-62
-63
-62
-59
-54
-48
-42
-34
-28
-22
-15
-8
0
11
23
35
46
55
60
60
58
53
47
40
33
26
21
16
12
8
5
2
1
-2
-3
-4
-8
-10
-13
-15
-17
-18
-19
-20
-22
-23
-24
-25
-27
-28
-29
-30
-32
-34
-37
-39
-42
-47
-50
-54
-59
-63
-64
-64
-60
-57
-50
-43
-35
-29
-27
-23
-20
-17
-10
-2
6
16
23
28
30
30
27
25
23
21
18
17
15
12
11
8
7
5
0
-4
-10
-10
-2
30
83
167
277
395
488
525
481
361
195
30
-94
-162
-174
-154
-125
-100
-83
-73
-69
-67
-67
-65
-64
-60
-55
-49
-42
-34
-28
-24
-22
-20
-18
-13
-8
0
7
15
18
20
21
20
18
17
16
16
16
15
15
12
11
6
2
-2
-4
-8
-12
-15
-18
-22
-24
-27
-28
-29
-30
-30
-30
-29
-25
-22
-18
-14
-10
-8
-7
-8
-9
-13
-18
-23
-28
-30
-33
-34
-34
-33
-30
-27
-24
-22
-22
-20
-19
-14
-8
-2
5
11
13
13
12
8
6
5
3
1
0
-3
-4
-7
-8
-9
-12
-15
-20
-22
-24
-24
-24
-23
-23
-25
-27
-29
-32
-33
-33
-32
-30
-29
-30
-33
-35
-39
-43
-45
-48
-52
-55
-59
-63
-64
-64
-62
-59
-54
-48
-43
-39
-39
-42
-39
-25
6
66
153
267
391
493
541
510
400
236
66
-65
-140
-157
-135
-100
-67
-42
-25
-17
-12
-10
-9
-10
-12
-13
-14
-15
-15
-15
-15
-15
-17
-19
-20
-22
-24
-27
-29
-32
-34
-37
-40
-43
-47
-50
-52
-53
-53
-50
-45
-40
-35
-30
-24
-20
-18
-17
-15
-14
-12
-8
-2
5
12
18
23
27
30
33
36
38
42
46
50
51
50
48
45
40
36
31
26
21
16
11
7
2
-2
-5
-9
-12
-15
-18
-23
-27
-30
-34
-37
-38
-40
-42
-45
-49
-53
-57
-60
-64
-65
-67
-67
-67
-64
-62
-55
-49
-43
-37
-33
-30
-29
-28
-27
-23
-15
-7
2
10
15
18
20
18
18
17
16
15
13
12
10
7
6
5
2
1
0
-2
-3
-4
-5
-8
-9
-10
-10
-10
-12
-12
-14
-17
-20
-25
-32
-39
-47
-52
-48
-28
13
82
181
298
406
472
468
385
241
77
-62
-150
-183
-173
-145
-113
-84
-59
-39
-23
-9
2
8
13
15
13
11
8
6
5
3
2
2
1
0
-2
-4
-5
-8
-9
-10
-12
-13
-12
-12
-13
-13
-15
-17
-20
-22
-24
-27
-30
-32
-34
-38
-42
-47
-52
-55
-60
-64
-67
-67
-67
-65
-62
-55
-47
-37
-24
-13
-2
5
11
17
22
27
33
40
45
47
47
45
40
36
30
26
21
18
16
13
12
8
6
5
2
-2
-4
-7
-10
-13
-14
-17
-18
-19
-19
-19
-20
-20
-20
-22
-22
-24
-25
-28
-29
-32
-34
-35
-39
-42
-47
-49
-53
-57
-59
-60
-60
-57
-52
-47
-40
-35
-32
-30
-29
-27
-24
-18
-10
-2
7
15
20
23
23
23
22
21
18
16
15
12
11
10
8
3
1
-4
-8
0
22
68
147
255
376
483
540
522
421
261
88
-55
-147
-180
-174
-149
-124
-103
-92
-84
-80
-79
-77
-75
-72
-68
-64
-59
-53
-47
-42
-38
-37
-35
-35
-33
-32
-27
-20
-15
-10
-4
0
5
7
7
6
6
5
5
2
0
-2
-5
-8
-12
-14
-15
-17
-18
-20
-22
-24
-27
-30
-34
-37
-39
-40
-39
-39
-39
-39
-38
-35
-32
-28
-23
-18
-15
-13
-10
-8
-9
-10
-17
-25
-32
-37
-38
-37
-32
-27
-20
-17
-14
-14
-12
-9
-3
2
10
17
22
25
27
28
30
31
31
31
28
26
25
25
27
30
30
27
21
15
10
6
5
1
-2
-4
-7
-7
-7
-8
-8
-9
-12
-14
-18
-20
-23
-23
-24
-27
-30
-37
-43
-48
-52
-54
-53
-52
-50
-49
-52
-57
-63
-64
-50
-19
38
123
237
363
473
535
521
423
270
102
-35
-117
-139
-123
-93
-63
-42
-29
-20
-14
-10
-10
-9
-8
-8
-10
-14
-19
-27
-33
-37
-37
-37
-35
-37
-40
-43
-45
-49
-50
-52
-54
-55
-57
-60
-62
-63
-63
-64
-65
-65
-65
-63
-59
-53
-48
-44
-42
-39
-37
-33
-27
-18
-9
0
10
17
21
22
23
25
28
32
37
42
46
48
48
47
43
38
33
27
21
17
15
13
11
8
3
-2
-7
-12
-17
-20
-25
-30
-34
-38
-40
-40
-40
-40
-40
-43
-47
-49
-50
-50
-48
-44
-40
-38
-35
-34
-34
-33
-30
-29
-27
-22
-14
-7
1
11
20
28
35
41
45
45
42
38
33
28
26
26
26
25
21
13
6
-2
-7
-8
-5
-2
2
5
7
7
6
3
0
-4
-7
-7
-7
-5
-5
-7
-12
-22
-30
-34
-29
-8
37
107
206
316
415
467
448
351
201
41
-88
-162
-180
-162
-125
-92
-64
-44
-32
-23
-17
-14
-12
-9
-9
-8
-7
-5
-3
1
5
7
10
11
12
12
11
10
5
-2
-7
-13
-18
-22
-23
-23
-24
-22
-23
-24
-27
-32
-34
-38
-38
-39
-38
-40
-43
-47
-52
-58
-64
-69
-72
-69
-62
-50
-37
-24
-14
-7
0
8
17
28
40
48
52
55
55
55
55
56
55
55
50
45
41
33
28
25
22
20
16
11
3
-3
-9
-14
-14
-14
-13
-13
-17
-20
-25
-32
-35
-37
-39
-39
-40
-40
-42
-43
-47
-52
-58
-63
-69
-74
-77
-77
-77
-73
-67
-60
-53
-47
-42
-38
-35
-33
-30
-27
-20
-12
-3
6
11
16
17
17
16
15
13
12
12
11
10
10
6
1
-8
-14
-18
-8
17
67
146
250
367
467
517
492
388
232
66
-68
-150
-177
-167
-142
-114
-93
-80
-73
-70
-72
-73
-75
-77
-78
-75
-72
-67
-60
-53
-48
-43
-40
-38
-37
-34
-29
-22
-13
-3
7
13
17
20
18
17
15
15
13
15
15
13
11
8
5
-2
-4
-9
-13
-15
-18
-20
-23
-24
-27
-27
-27
-25
-22
-18
-13
-9
-5
-2
0
0
-2
-3
-7
-12
-18
-23
-29
-35
-40
-44
-47
-47
-44
-40
-35
-30
-25
-24
-23
-23
-22
-22
-19
-14
-8
0
7
12
17
21
22
23
22
22
20
18
16
13
12
11
8
8
8
7
6
3
2
2
0
0
-2
-4
-5
-8
-10
-14
-18
-22
-24
-28
-29
-30
-32
-33
-34
-35
-39
-44
-50
-55
-59
-62
-62
-62
-58
-53
-47
-40
-34
-32
-28
-27
-23
-19
-14
-7
2
8
15
20
21
18
11
5
1
5
25
68
141
240
357
461
522
510
418
265
92
-55
-150
-185
-178
-148
-115
-87
-67
-54
-47
-43
-42
-43
-44
-44
-45
-47
-49
-52
-55
-59
-63
-64
-65
-65
-65
-63
-62
-57
-52
-44
-38
-32
-28
-24
-20
-17
-12
-5
3
13
22
28
32
33
35
33
31
28
23
20
16
12
10
7
6
3
2
1
1
2
5
8
15
21
26
28
28
27
25
21
16
12
7
3
-2
-5
-10
-13
-18
-24
-29
-33
-38
-43
-48
-52
-54
-58
-58
-57
-53
-48
-42
-34
-29
-24
-20
-19
-18
-14
-10
-3
7
17
25
31
33
35
35
33
31
28
23
21
17
13
12
11
10
7
7
5
2
0
-3
-5
-7
-8
-9
-10
-12
-13
-14
-15
-17
-19
-22
-24
-27
-29
-32
-34
-38
-40
-44
-49
-52
-55
-59
-64
-69
-72
-67
-48
-9
58
155
276
401
495
526
476
351
186
28
-84
-139
-143
-118
-83
-53
-32
-18
-10
-5
-4
-4
-3
-3
-3
-3
-4
-5
-8
-9
-10
-12
-12
-12
-12
-12
-12
-14
-15
-17
-19
-23
-24
-28
-30
-30
-33
-34
-35
-38
-39
-42
-45
-49
-53
-55
-55
-54
-53
-48
-42
-37
-32
-29
-28
-25
-23
-18
-10
0
13
26
36
46
51
53
53
51
46
40
35
28
22
17
12
7
2
-2
-5
-8
-10
-10
-12
-12
-13
-15
-18
-19
-22
-23
-23
-24
-24
-24
-25
-25
-27
-28
-29
-30
-33
-35
-40
-43
-48
-53
-57
-60
-60
-60
-59
-57
-52
-45
-38
-33
-29
-25
-22
-18
-14
-9
0
8
17
23
27
28
27
25
22
20
17
15
13
11
10
8
7
3
-3
-9
-14
-15
-2
32
93
186
305
427
520
550
496
365
193
25
-99
-164
-177
-158
-129
-104
-87
-77
-72
-70
-70
-72
-72
-70
-68
-63
-57
-49
-42
-35
-32
-28
-27
-24
-20
-15
-8
0
7
13
17
17
16
15
11
8
7
5
5
5
3
5
3
1
0
-3
-5
-7
-10
-13
-15
-18
-20
-22
-23
-23
-22
-20
-18
-15
-12
-8
-4
-3
-2
-2
-4
-7
-10
-17
-23
-28
-34
-39
-42
-44
-43
-39
-35
-29
-24
-22
-19
-18
-18
-15
-12
-5
1
8
15
20
21
21
20
17
15
12
11
10
8
8
7
6
5
2
0
-4
-5
-8
-10
-13
-14
-15
-17
-17
-17
-18
-19
-20
-22
-24
-27
-29
-32
-34
-37
-40
-44
-48
-52
-55
-59
-62
-64
-64
-63
-60
-55
-49
-43
-38
-37
-39
-43
-42
-29
1
58
145
258
387
500
558
538
436
273
97
-47
-135
-162
-145
-113
-80
-54
-38
-28
-23
-22
-22
-22
-22
-23
-23
-24
-25
-25
-27
-28
-29
-30
-32
-33
-34
-35
-38
-40
-42
-44
-48
-50
-53
-55
-59
-59
-59
-57
-52
-45
-39
-32
-24
-20
-17
-17
-15
-14
-10
-5
1
7
13
16
18
18
20
20
22
25
28
31
35
38
40
40
38
36
32
28
23
20
15
11
7
1
-2
-4
-7
-10
-13
-14
-17
-19
-22
-25
-29
-32
-35
-38
-42
-45
-49
-53
-57
-59
-62
-63
-63
-62
-58
-52
-45
-39
-33
-28
-24
-22
-19
-14
-8
0
7
15
20
23
26
26
23
21
17
16
13
12
11
10
7
6
5
3
2
0
0
-2
-3
-4
-5
-7
-8
-8
-10
-12
-14
-15
-18
-19
-22
-28
-35
-43
-47
-42
-22
21
91
188
298
397
448
428
332
183
25
-102
-177
-195
-174
-138
-102
-70
-44
-24
-8
2
10
13
15
15
12
8
6
3
2
1
1
0
-2
-3
-4
-5
-5
-7
-7
-7
-8
-9
-10
-14
-17
-18
-19
-20
-19
-19
-18
-18
-19
-20
-25
-29
-35
-40
-45
-49
-53
-55
-58
-58
-57
-52
-45
-35
-27
-15
-7
1
7
12
17
23
30
36
43
48
52
52
48
45
38
33
30
23
20
16
12
10
7
3
1
-2
-5
-8
-12
-14
-15
-18
-20
-22
-23
-24
-24
-27
-27
-29
-32
-34
-35
-37
-37
-38
-39
-40
-44
-47
-52
-57
-62
-65
-68
-67
-65
-62
-57
-52
-45
-38
-34
-30
-27
-25
-22
-18
-13
-5
2
10
16
20
21
21
20
18
17
17
16
15
13
11
7
2
-3
-7
-3
17
60
127
225
342
453
523
525
446
300
130
-22
-123
-167
-164
-140
-112
-89
-74
-67
-63
-63
-65
-68
-70
-73
-74
-74
-73
-69
-62
-54
-45
-39
-34
-32
-29
-28
-25
-20
-14
-5
2
8
13
16
16
16
16
15
13
13
13
12
11
8
6
3
1
-2
-4
-8
-10
-13
-15
-17
-18
-17
-15
-12
-9
-5
-3
1
3
5
3
2
1
-2
-8
-13
-18
-24
-30
-34
-40
-45
-48
-49
-48
-45
-43
-37
-30
-27
-23
-22
-23
-22
-19
-14
-7
2
10
16
21
23
23
22
21
20
17
16
13
12
10
10
8
7
5
2
0
-2
-4
-4
-7
-8
-8
-8
-8
-8
-8
-10
-12
-15
-18
-20
-22
-25
-27
-28
-30
-32
-35
-39
-44
-49
-55
-60
-62
-63
-60
-55
-50
-42
-35
-29
-24
-20
-18
-15
-10
-5
0
6
13
20
23
25
25
22
20
18
16
15
13
11
10
8
8
7
6
6
5
2
0
-3
-9
-15
-20
-19
-3
38
106
203
322
440
518
527
453
306
130
-30
-144
-198
-203
-183
-155
-130
-110
-97
-87
-77
-68
-60
-52
-43
-37
-32
-29
-27
-24
-20
-14
-7
0
5
10
12
12
11
8
7
6
2
3
2
1
1
0
0
-3
-3
-4
-5
-4
-4
-5
-8
-12
-15
-18
-22
-25
-25
-22
-13
-2
11
18
16
3
-17
-39
-60
-73
-79
-78
-73
-65
-59
-53
-47
-42
-38
-33
-27
-22
-17
-12
-9
-9
-8
-7
-5
0
7
20
35
46
52
51
45
38
36
37
40
37
27
12
-8
-23
-34
-39
-39
-35
-29
-25
-22
-18
-15
-15
-15
-15
-14
-17
-19
-22
-23
-24
-24
-24
-24
-25
-27
-28
-30
-33
-34
-37
-38
-37
-34
-34
-37
-43
-49
-57
-60
-63
-64
-62
-54
-35
1
63
153
270
396
501
552
525
417
256
91
-38
-109
-125
-105
-75
-49
-33
-25
-19
-13
-8
-4
-3
-7
-13
-20
-24
-25
-23
-19
-18
-18
-20
-23
-23
-22
-18
-15
-15
-19
-25
-33
-42
-45
-47
-45
-45
-47
-47
-47
-44
-40
-35
-30
-27
-22
-18
-14
-13
-12
-12
-7
3
15
22
25
21
15
10
10
13
22
30
37
41
43
43
42
38
35
30
23
18
12
7
2
-2
-4
-7
-8
-10
-14
-17
-19
-20
-23
-25
-28
-30
-32
-35
-38
-40
-42
-44
-44
-47
-49
-50
-52
-50
-50
-50
-48
-44
-39
-34
-28
-22
-18
-14
-12
-7
2
11
23
35
41
43
42
36
30
25
20
16
15
12
12
11
10
10
8
7
5
3
1
-2
-4
-5
-7
-8
-8
-9
-10
-12
-14
-17
-19
-20
-22
-23
-25
-27
-29
-29
-32
-34
-38
-42
-48
-57
-65
-69
-67
-47
-5
61
158
276
395
481
501
441
312
151
2
-98
-140
-135
-105
-70
-43
-25
-17
-13
-10
-10
-9
-9
-7
-5
-5
-7
-8
-12
-17
-22
-27
-30
-33
-32
-33
-32
-32
-32
-33
-34
-37
-37
-39
-39
-39
-38
-37
-38
-40
-42
-45
-48
-49
-50
-54
-58
-62
-63
-60
-55
-49
-43
-39
-38
-38
-35
-32
-24
-13
1
15
27
38
47
52
55
55
52
48
45
41
37
32
30
26
25
22
18
15
11
6
1
-5
-10
-14
-15
-17
-17
-17
-18
-19
-20
-23
-24
-25
-27
-29
-33
-38
-43
-48
-52
-54
-57
-59
-62
-64
-68
-68
-67
-65
-60
-53
-43
-35
-29
-24
-22
-20
-19
-17
-12
-4
3
10
16
18
18
18
18
18
18
18
16
13
10
6
2
0
-3
-4
-8
-14
-20
-24
-20
1
48
127
238
368
490
565
565
478
325
145
-13
-120
-170
-174
-155
-130
-109
-94
-85
-82
-79
-78
-77
-72
-65
-57
-47
-38
-32
-30
-32
-37
-40
-42
-37
-28
-17
-5
5
10
12
12
11
10
7
6
5
5
5
5
5
5
5
3
1
0
-3
-5
-10
-13
-17
-19
-20
-20
-22
-20
-22
-22
-24
-27
-28
-27
-24
-20
-15
-13
-13
-14
-17
-23
-29
-35
-42
-47
-48
-49
-48
-44
-39
-34
-30
-25
-22
-20
-19
-18
-14
-10
-4
2
8
11
11
12
11
11
11
10
8
7
6
5
3
2
2
1
0
-2
-4
-5
-7
-7
-8
-9
-10
-12
-12
-12
-10
-10
-12
-12
-13
-15
-18
-20
-23
-24
-27
-29
-33
-37
-42
-47
-52
-55
-58
-58
-57
-52
-45
-38
-30
-24
-20
-18
-17
-14
-10
-5
2
10
18
25
28
30
30
28
26
23
22
20
18
17
16
15
13
10
6
1
-7
-12
-9
7
48
117
220
345
466
547
557
480
331
150
-13
-128
-182
-185
-163
-135
-110
-93
-82
-75
-74
-74
-73
-73
-70
-67
-60
-54
-48
-44
-39
-35
-33
-30
-27
-23
-18
-12
-5
2
6
10
12
13
12
11
10
7
6
5
3
1
0
-2
-3
-5
-8
-12
-14
-18
-22
-25
-29
-33
-35
-38
-39
-40
-40
-39
-37
-34
-30
-28
-23
-19
-17
-14
-14
-14
-17
-20
-25
-29
-33
-37
-38
-38
-37
-33
-28
-24
-20
-19
-19
-19
-18
-15
-10
-5
0
6
10
12
13
15
13
13
11
10
8
6
5
5
3
2
1
0
0
0
-2
-3
-5
-7
-9
-12
-13
-15
-18
-19
-19
-22
-23
-24
-25
-27
-29
-30
-34
-37
-40
-44
-49
-55
-59
-63
-64
-62
-58
-52
-43
-33
-23
-15
-8
-4
-2
-2
2
8
15
22
26
30
37
55
90
151
241
356
472
557
577
512
372
192
25
-95
-154
-157
-130
-92
-59
-35
-20
-13
-12
-13
-15
-18
-19
-22
-24
-27
-30
-35
-40
-45
-49
-54
-59
-64
-69
-73
-75
-78
-79
-78
-74
-70
-63
-54
-45
-37
-30
-25
-22
-18
-13
-8
-2
5
11
16
17
17
16
12
7
3
1
0
-2
-2
-2
0
2
5
8
12
15
17
18
18
18
16
12
10
6
2
0
-3
-5
-8
-10
-13
-15
-19
-23
-28
-34
-42
-48
-55
-62
-67
-69
-72
-72
-70
-67
-62
-54
-47
-40
-37
-34
-32
-28
-24
-18
-10
-3
6
12
18
21
21
18
17
15
12
12
12
12
12
11
10
8
7
6
5
3
3
3
3
3
3
3
3
3
2
1
1
0
-2
-4
-10
-17
-23
-24
-9
25
85
175
285
393
467
473
400
260
91
-60
-160
-199
-188
-152
-113
-78
-53
-35
-19
-7
5
11
17
18
18
16
12
10
8
7
6
5
3
2
1
0
0
-2
-4
-5
-9
-12
-15
-20
-24
-27
-29
-32
-32
-32
-30
-29
-29
-29
-29
-32
-34
-39
-43
-48
-53
-57
-60
-63
-64
-62
-58
-50
-40
-28
-14
-2
10
17
23
28
32
37
42
45
46
45
42
36
28
21
15
8
3
0
-5
-9
-13
-17
-20
-24
-28
-30
-32
-34
-34
-34
-33
-33
-33
-32
-32
-30
-30
-32
-33
-34
-37
-40
-43
-48
-52
-57
-64
-72
-79
-84
-90
-93
-94
-94
-90
-88
-83
-77
-69
-60
-52
-43
-37
-33
-28
-22
-14
-4
8
18
25
30
32
33
32
33
32
31
30
28
28
25
18
11
5
2
23
91
198
337
491
615
672
657
562
400
217
50
-78
-149
-165
-147
-118
-93
-73
-63
-58
-57
-57
-58
-59
-60
-62
-63
-62
-59
-57
-49
-43
-37
-29
-24
-20
-18
-15
-10
-4
5
13
21
27
28
30
28
26
25
26
25
26
27
27
27
23
21
17
12
7
3
0
-4
-8
-12
-14
-17
-18
-17
-17
-14
-12
-7
-3
1
5
5
5
2
-3
-7
-14
-22
-29
-35
-42
-45
-48
-48
-47
-44
-40
-34
-29
-25
-24
-22
-20
-19
-14
-7
2
10
17
23
26
28
28
28
27
26
25
23
21
21
18
20
20
18
17
17
15
13
13
13
13
13
15
15
17
17
16
16
15
12
8
5
1
-3
-5
-7
-9
-12
-14
-15
-19
-23
-25
-27
-27
-24
-18
-12
-7
-3
-3
-5
-5
6
33
85
166
273
397
506
566
550
451
295
123
-20
-108
-137
-123
-89
-54
-27
-7
7
15
18
21
21
21
20
20
17
16
15
13
11
7
2
-2
-9
-14
-20
-27
-32
-37
-43
-48
-54
-60
-67
-72
-75
-77
-77
-73
-68
-62
-58
-53
-52
-52
-53
-57
-59
-63
-65
-65
-65
-63
-59
-57
-55
-58
-60
-65
-68
-68
-65
-59
-52
-44
-37
-33
-30
-30
-35
-40
-49
-57
-64
-74
-82
-89
-95
-100
-104
-108
-109
-113
-115
-120
-125
-132
-139
-145
-152
-157
-162
-167
-172
-175
-179
-182
-185
-188
-192
-190
-188
-184
-177
-168
-159
-150
-145
-140
-138
-133
-128
-123
-114
-104
-94
-85
-78
-73
-69
-69
-69
-70
-72
-70
-68
-65
-64
-62
-60
-59
-59
-60
-63
-68
-73
-74
-67
-43
3
76
176
293
405
472
470
387
241
72
-77
-175
-214
-209
-182
-149
-123
-104
-93
-87
-82
-75
-69
-62
-53
-42
-32
-23
-15
-8
-3
1
3
8
15
22
31
40
46
51
55
56
56
56
56
56
56
56
55
53
50
48
45
42
37
32
27
21
16
13
13
13
16
18
20
20
21
22
23
27
30
32
36
36
36
32
28
23
17
10
3
-3
-8
-13
-15
-17
-15
-13
-10
-7
-3
-2
-2
0
2
6
11
18
26
32
38
42
43
45
46
47
50
51
55
57
61
65
70
73
76
77
77
75
72
70
66
63
60
57
55
52
48
45
42
38
35
31
26
21
18
13
10
6
2
-2
-8
-13
-18
-22
-25
-25
-25
-22
-17
-12
-8
-4
-3
-3
-5
-4
-4
1
7
13
20
25
35
55
91
152
242
353
465
546
561
493
353
177
12
-107
-164
-170
-147
-115
-88
-69
-57
-52
-50
-52
-53
-57
-59
-62
-65
-69
-74
-78
-82
-88
-92
-94
-99
-100
-103
-107
-108
-109
-110
-109
-107
-99
-89
-75
-59
-44
-32
-23
-17
-15
-13
-10
-7
0
5
10
12
11
10
6
2
-3
-5
-9
-10
-10
-9
-7
-5
-2
1
6
8
11
13
12
12
8
6
3
-2
-7
-10
-13
-17
-18
-20
-23
-28
-32
-35
-40
-45
-49
-53
-58
-60
-64
-67
-70
-72
-72
-70
-65
-62
-54
-47
-38
-30
-24
-19
-14
-9
-3
6
13
22
31
36
38
41
38
36
33
32
30
28
26
23
21
17
17
17
17
16
15
13
12
11
12
11
12
10
8
5
2
0
-3
-5
-9
-12
-15
-19
-22
-25
-28
-32
-35
-42
-49
-58
-65
-63
-45
-7
58
152
268
387
476
503
450
325
162
10
-95
-140
-133
-100
-62
-30
-9
2
10
11
12
11
11
10
8
7
7
7
6
6
5
2
2
1
0
-2
-4
-5
-9
-13
-17
-19
-20
-22
-22
-23
-24
-25
-28
-29
-32
-35
-38
-42
-44
-45
-45
-44
-40
-35
-32
-27
-22
-20
-19
-17
-14
-8
0
12
27
41
52
61
67
68
67
66
62
58
57
53
52
50
47
42
38
33
28
23
20
16
11
7
2
-3
-8
-12
-15
-18
-20
-23
-24
-24
-23
-23
-24
-25
-28
-32
-37
-42
-47
-52
-55
-60
-64
-67
-68
-65
-62
-57
-50
-43
-37
-32
-29
-25
-22
-15
-8
2
12
18
25
27
27
26
25
22
22
20
18
16
15
12
11
10
7
3
-2
-9
-14
-12
7
46
112
210
326
442
521
532
461
318
146
-13
-123
-172
-174
-152
-127
-104
-89
-80
-75
-74
-73
-73
-72
-68
-63
-55
-48
-42
-37
-34
-30
-29
-25
-20
-14
-5
2
10
15
18
21
20
18
16
15
12
12
12
12
11
11
8
6
3
2
-2
-4
-7
-9
-12
-14
-15
-18
-19
-19
-19
-18
-15
-13
-10
-7
-3
0
1
1
0
-4
-8
-13
-19
-25
-32
-38
-43
-45
-45
-44
-38
-33
-29
-25
-23
-22
-20
-19
-15
-10
-4
1
6
10
11
11
11
10
8
8
10
10
8
7
6
5
3
2
1
0
-4
-5
-9
-13
-15
-19
-20
-22
-22
-20
-20
-20
-19
-20
-22
-24
-27
-29
-33
-38
-43
-45
-49
-53
-55
-58
-59
-60
-62
-58
-54
-48
-42
-35
-32
-30
-34
-38
-39
-32
-8
37
112
216
342
466
552
568
500
357
181
16
-99
-154
-157
-130
-95
-67
-45
-32
-27
-24
-24
-24
-23
-22
-20
-20
-22
-23
-24
-25
-27
-28
-29
-32
-33
-34
-37
-38
-40
-43
-45
-47
-49
-53
-55
-57
-58
-57
-53
-47
-39
-32
-25
-22
-20
-22
-22
-23
-20
-17
-9
-2
6
12
17
20
22
23
26
28
30
32
35
37
40
41
41
40
37
33
27
20
13
7
1
-3
-7
-9
-12
-14
-18
-19
-23
-27
-29
-33
-37
-40
-44
-45
-48
-49
-50
-53
-54
-57
-59
-60
-62
-60
-59
-55
-52
-45
-39
-33
-28
-23
-20
-19
-18
-14
-10
-3
5
12
18
22
23
26
25
23
21
18
16
13
12
11
10
8
7
6
5
2
0
-3
-4
-4
-4
-5
-5
-7
-9
-10
-12
-14
-15
-17
-19
-24
-32
-40
-48
-49
-34
2
66
161
281
400
485
505
438
301
131
-27
-135
-185
-184
-155
-120
-88
-63
-42
-25
-12
-2
6
10
11
11
10
7
5
3
1
0
-3
-4
-7
-9
-9
-10
-10
-9
-10
-10
-12
-13
-14
-15
-18
-19
-20
-24
-25
-25
-27
-29
-32
-34
-38
-43
-47
-49
-53
-55
-59
-62
-64
-64
-63
-62
-57
-49
-39
-28
-17
-5
3
11
17
23
30
36
43
48
53
55
52
50
43
37
32
26
23
20
18
15
13
10
6
3
1
-2
-4
-8
-10
-13
-14
-17
-19
-19
-19
-19
-18
-19
-20
-22
-24
-25
-28
-30
-33
-34
-37
-39
-42
-47
-50
-53
-57
-58
-58
-55
-54
-50
-44
-39
-35
-33
-30
-28
-25
-20
-14
-5
3
12
18
25
27
27
26
23
22
20
18
16
16
13
11
8
5
-2
-8
-13
-12
7
47
117
218
340
458
538
547
472
326
151
-8
-115
-165
-167
-143
-115
-94
-80
-73
-70
-70
-72
-73
-73
-73
-72
-68
-63
-57
-50
-43
-40
-38
-37
-34
-32
-27
-19
-9
2
10
16
18
20
17
15
13
11
10
11
11
11
10
7
3
1
-3
-7
-12
-15
-19
-22
-24
-25
-27
-28
-28
-27
-24
-20
-17
-10
-5
1
5
7
7
6
3
-2
-8
-14
-22
-28
-30
-32
-32
-29
-27
-23
-18
-13
-12
-9
-9
-8
-7
-2
6
12
18
23
26
27
25
22
20
17
15
13
13
12
11
10
8
7
5
3
1
1
0
-2
-3
-4
-5
-7
-8
-9
-12
-13
-14
-17
-18
-20
-22
-24
-28
-30
-34
-38
-42
-45
-48
-50
-53
-53
-53
-50
-47
-40
-34
-29
-25
-23
-22
-20
-17
-8
0
10
20
28
33
36
35
33
30
27
25
22
21
20
17
16
13
13
11
10
8
6
6
3
2
1
0
-2
-4
-5
-8
-9
-12
-13
-15
-17
-19
-20
-22
-24
-28
-33
-37
-39
-43
-45
-45
-47
-45
-40
-37
-32
-27
-24
-22
-19
-18
-14
-9
0
8
18
26
32
37
37
36
33
31
28
26
23
22
21
20
17
16
13
12
11
11
7
1
-7
-14
-14
0
35
97
190
306
420
497
505
432
291
122
-28
-130
-174
-174
-152
-125
-107
-93
-85
-80
-75
-70
-64
-57
-49
-43
-39
-37
-34
-33
-32
-27
-20
-12
-3
6
13
16
17
16
13
11
8
7
6
6
5
2
1
0
0
-2
-5
-7
-8
-10
-13
-15
-19
-22
-25
-30
-34
-39
-44
-48
-52
-54
-57
-58
-59
-60
-60
-60
-60
-58
-54
-50
-45
-42
-35
-30
-23
-15
-9
-2
2
7
8
11
12
16
20
27
33
41
46
47
47
45
41
35
28
23
17
13
11
10
7
6
3
3
2
1
0
-2
-3
-4
-4
-5
-5
-7
-9
-10
-10
-12
-13
-13
-17
-18
-20
-23
-25
-28
-30
-33
-38
-40
-45
-49
-54
-57
-59
-59
-57
-53
-45
-40
-35
-32
-29
-27
-24
-20
-13
-4
3
11
20
23
25
25
22
20
17
15
12
11
11
11
11
10
7
2
-3
-10
-15
-10
10
51
121
220
335
443
508
503
417
272
105
-39
-134
-172
-167
-143
-118
-98
-85
-78
-75
-75
-77
-74
-73
-69
-64
-58
-50
-43
-37
-32
-29
-28
-27
-24
-20
-13
-5
3
10
15
18
20
20
18
16
13
12
11
10
8
8
8
8
6
3
1
-2
-5
-10
-14
-19
-23
-28
-30
-33
-34
-34
-34
-33
-32
-29
-25
-22
-18
-15
-14
-14
-17
-20
-25
-28
-32
-34
-37
-38
-38
-35
-32
-28
-23
-20
-18
-17
-17
-15
-14
-10
-5
0
5
8
12
12
12
12
10
8
7
6
7
7
7
8
8
7
7
3
1
-4
-8
-12
-13
-13
-13
-12
-12
-12
-13
-13
-13
-14
-15
-17
-20
-24
-28
-32
-37
-40
-45
-50
-55
-59
-62
-64
-64
-62
-59
-54
-48
-40
-34
-29
-25
-23
-20
-18
-14
-8
0
7
13
18
21
22
21
21
20
20
18
16
10
2
-8
-12
-8
15
62
140
247
368
480
542
530
433
280
107
-39
-134
-170
-164
-140
-112
-88
-73
-64
-59
-59
-60
-62
-63
-64
-65
-67
-68
-68
-68
-65
-63
-57
-49
-42
-35
-33
-30
-30
-29
-27
-20
-14
-7
0
7
13
17
20
20
20
18
17
15
13
12
10
7
3
0
-4
-8
-12
-14
-17
-20
-22
-22
-22
-20
-18
-15
-10
-5
-2
1
5
6
5
2
-3
-5
-10
-17
-22
-28
-32
-37
-40
-43
-45
-47
-48
-48
-47
-42
-37
-32
-28
-27
-25
-23
-20
-14
-7
1
8
15
18
20
21
20
18
16
13
11
10
8
7
7
6
5
3
1
0
-3
-3
-3
-4
-5
-7
-8
-9
-10
-12
-14
-17
-19
-20
-23
-24
-27
-28
-30
-34
-37
-40
-45
-49
-55
-63
-72
-74
-67
-42
7
86
193
317
433
503
501
416
268
102
-38
-123
-150
-133
-98
-62
-35
-17
-7
-2
0
-2
0
0
0
-2
-2
-3
-4
-5
-8
-9
-10
-12
-13
-14
-14
-15
-15
-17
-17
-18
-18
-18
-19
-20
-23
-25
-29
-33
-37
-39
-44
-47
-50
-54
-57
-59
-59
-57
-53
-48
-43
-38
-37
-33
-30
-27
-22
-12
-2
12
26
38
46
52
55
55
52
48
43
38
35
30
25
20
15
8
3
1
-3
-4
-4
-7
-10
-13
-15
-18
-19
-22
-23
-23
-23
-23
-23
-23
-24
-25
-27
-29
-30
-33
-35
-39
-42
-45
-49
-53
-57
-58
-57
-54
-52
-45
-40
-34
-29
-27
-24
-22
-17
-10
-3
6
16
23
28
30
30
28
27
25
22
21
20
17
16
13
11
10
7
5
3
2
1
0
-2
-3
-4
-9
-17
-24
-25
-10
23
85
177
293
408
491
508
441
302
128
-33
-148
-203
-207
-182
-150
-122
-98
-79
-65
-57
-49
-44
-40
-37
-32
-27
-19
-10
-2
6
11
15
15
13
11
8
7
5
5
3
3
2
2
0
-2
-2
-4
-4
-5
-7
-8
-9
-10
-14
-17
-19
-22
-23
-27
-28
-30
-33
-35
-38
-39
-42
-43
-43
-44
-43
-42
-39
-35
-30
-25
-20
-14
-8
-3
1
5
7
7
6
6
7
10
16
22
30
35
37
36
33
28
23
20
15
12
10
7
5
1
1
-2
-3
-5
-7
-8
-9
-10
-12
-13
-14
-17
-17
-17
-18
-19
-20
-23
-24
-27
-27
-29
-30
-33
-35
-39
-43
-47
-52
-55
-59
-62
-62
-60
-58
-52
-47
-40
-35
-32
-29
-28
-25
-22
-14
-7
2
10
16
21
22
22
21
20
20
18
17
16
15
11
7
2
-4
-7
-2
21
65
137
238
355
458
515
497
400
246
78
-58
-140
-168
-155
-128
-103
-84
-73
-67
-65
-67
-68
-70
-72
-72
-70
-67
-63
-58
-53
-48
-44
-40
-40
-39
-38
-35
-30
-22
-12
-3
5
11
12
13
12
11
12
12
12
13
12
11
10
8
6
2
0
-5
-10
-14
-18
-22
-24
-24
-24
-24
-23
-22
-19
-18
-14
-12
-8
-5
-2
0
0
-2
-4
-10
-17
-24
-32
-37
-42
-43
-44
-42
-37
-32
-27
-20
-18
-15
-15
-15
-15
-12
-7
0
5
10
12
12
12
11
10
10
7
5
2
0
-2
-4
-5
-7
-9
-9
-10
-12
-13
-14
-15
-15
-17
-18
-18
-19
-19
-20
-23
-24
-25
-28
-29
-30
-33
-37
-39
-43
-47
-49
-50
-54
-60
-68
-74
-74
-60
-27
32
122
236
356
453
496
462
351
196
38
-80
-143
-152
-125
-89
-57
-33
-18
-9
-4
-2
0
-2
-4
-7
-8
-8
-9
-9
-9
-9
-10
-12
-13
-15
-17
-18
-18
-19
-19
-19
-19
-19
-22
-23
-25
-28
-32
-34
-37
-39
-42
-44
-47
-50
-53
-55
-55
-55
-50
-45
-38
-32
-28
-25
-24
-22
-18
-13
-2
10
23
37
48
57
61
62
60
55
47
41
33
27
21
16
12
8
5
2
0
-4
-8
-9
-12
-14
-15
-15
-17
-17
-18
-20
-22
-24
-28
-29
-30
-32
-30
-32
-32
-33
-35
-38
-40
-44
-48
-53
-57
-60
-62
-62
-60
-55
-52
-45
-40
-34
-33
-30
-28
-24
-19
-10
-3
3
11
15
18
20
20
20
18
17
16
13
12
10
8
6
5
3
2
2
2
0
-4
-10
-18
-25
-27
-13
18
81
172
288
412
510
545
498
373
202
31
-103
-178
-198
-184
-158
-132
-112
-97
-88
-80
-74
-67
-58
-50
-45
-40
-38
-35
-33
-28
-22
-13
-5
1
7
11
12
12
11
10
7
6
5
2
2
1
1
1
1
2
2
1
0
-3
-5
-9
-12
-15
-18
-23
-27
-30
-35
-39
-42
-43
-43
-43
-42
-39
-37
-33
-29
-25
-23
-22
-20
-20
-22
-24
-24
-24
-22
-19
-14
-9
-7
-5
-4
-4
-3
1
5
10
16
21
22
23
21
20
17
15
12
10
8
6
6
5
5
5
5
3
2
1
0
-3
-3
-4
-5
-7
-8
-9
-9
-10
-12
-13
-15
-17
-19
-20
-23
-24
-27
-29
-32
-37
-40
-45
-49
-53
-55
-57
-54
-52
-47
-40
-35
-30
-28
-25
-23
-20
-15
-9
-3
5
12
18
22
23
23
22
21
20
18
17
18
17
15
13
11
10
7
2
-5
-12
-15
-12
7
52
125
226
345
456
522
516
428
277
106
-42
-138
-177
-173
-148
-122
-102
-88
-80
-75
-73
-70
-68
-64
-59
-53
-47
-40
-37
-33
-32
-30
-27
-22
-14
-7
1
8
15
17
18
18
16
15
12
11
10
10
8
8
8
7
5
3
1
0
-2
-4
-8
-12
-15
-19
-22
-25
-28
-29
-29
-29
-28
-27
-24
-20
-18
-13
-9
-7
-5
-4
-7
-9
-13
-17
-19
-20
-19
-18
-14
-10
-5
-3
0
1
1
2
5
11
17
22
26
27
27
26
25
22
20
17
15
12
11
11
10
8
7
6
5
3
1
1
0
-2
-2
-4
-5
-7
-8
-9
-10
-13
-15
-18
-20
-24
-27
-29
-30
-33
-35
-39
-42
-45
-48
-50
-53
-53
-52
-48
-44
-39
-34
-30
-28
-25
-25
-23
-18
-12
-3
6
15
21
26
28
30
27
26
23
21
18
17
13
12
10
10
7
5
3
2
1
0
-2
-3
-4
-3
-4
-5
-5
-7
-9
-10
-13
-15
-17
-19
-22
-24
-28
-32
-37
-40
-43
-45
-48
-48
-49
-48
-44
-39
-34
-28
-24
-20
-19
-15
-12
-7
1
11
21
28
35
37
36
33
31
28
27
26
25
23
22
20
17
15
13
11
11
10
7
2
-4
-10
-13
-5
23
80
168
282
401
491
518
466
340
172
13
-103
-163
-174
-159
-134
-113
-97
-85
-77
-73
-67
-62
-55
-50
-45
-42
-39
-37
-34
-30
-24
-15
-7
1
8
15
17
18
17
16
15
13
12
10
8
7
6
3
1
0
0
0
-2
-3
-5
-7
-10
-15
-19
-24
-29
-33
-39
-44
-47
-52
-54
-55
-58
-60
-62
-62
-62
-62
-60
-58
-55
-52
-47
-39
-32
-24
-15
-7
0
6
11
13
16
17
22
27
33
38
43
46
47
45
41
36
32
28
23
18
16
13
10
7
5
2
0
-2
-2
-3
-4
-7
-8
-9
-12
-14
-15
-17
-17
-17
-18
-17
-17
-17
-17
-19
-22
-25
-29
-34
-39
-44
-49
-53
-58
-62
-62
-62
-58
-53
-47
-40
-35
-33
-32
-32
-28
-24
-18
-10
-2
6
12
17
18
18
17
16
15
13
13
15
16
16
15
16
13
11
7
2
-5
-13
-14
-2
28
87
176
290
408
498
527
476
352
187
26
-93
-157
-170
-157
-132
-109
-94
-84
-79
-75
-74
-72
-68
-64
-59
-53
-48
-42
-38
-37
-35
-34
-30
-25
-19
-12
-3
3
7
10
10
10
8
8
8
10
8
8
7
7
6
5
3
5
3
2
0
-3
-8
-14
-19
-23
-27
-29
-33
-34
-37
-37
-37
-35
-33
-30
-27
-24
-23
-22
-22
-22
-23
-24
-25
-27
-28
-29
-30
-28
-25
-22
-18
-15
-13
-12
-12
-12
-10
-7
-3
2
7
10
12
13
15
15
13
15
15
15
13
13
12
11
10
7
7
5
3
1
-3
-4
-4
-5
-5
-7
-7
-9
-10
-12
-13
-14
-14
-15
-18
-20
-23
-27
-30
-33
-37
-40
-45
-49
-53
-55
-57
-54
-52
-47
-42
-35
-29
-24
-20
-18
-17
-13
-8
-2
5
13
21
26
28
28
27
25
22
21
17
15
12
11
10
8
8
7
6
5
3
3
2
1
0
0
-2
-3
-4
-7
-9
-12
-14
-17
-19
-22
-24
-27
-29
-33
-37
-40
-44
-47
-49
-50
-53
-55
-58
-57
-45
-19
30
105
210
333
448
523
526
450
307
143
2
-88
-123
-117
-89
-60
-37
-20
-12
-5
-3
-2
-2
-3
-4
-5
-8
-10
-12
-14
-17
-19
-22
-22
-23
-23
-24
-25
-27
-29
-30
-32
-34
-37
-39
-40
-43
-44
-47
-47
-49
-50
-54
-55
-57
-58
-57
-55
-53
-50
-47
-43
-40
-40
-40
-40
-40
-37
-30
-22
-13
-3
5
12
18
23
28
33
37
41
43
45
46
46
46
43
42
38
35
31
26
22
18
13
11
7
6
5
1
1
-2
-4
-7
-9
-12
-14
-17
-19
-22
-25
-29
-32
-35
-38
-40
-43
-44
-44
-44
-44
-42
-37
-32
-25
-19
-14
-10
-7
-4
1
5
12
21
28
35
37
38
37
35
32
31
28
26
25
22
20
17
15
12
11
8
6
5
2
1
0
-2
-2
-3
-4
-5
-7
-8
-10
-12
-14
-17
-20
-24
-28
-32
-35
-39
-43
-47
-50
-53
-52
-52
-49
-45
-39
-34
-28
-23
-19
-17
-14
-10
-7
0
8
17
25
30
33
33
32
30
26
23
21
18
16
15
11
8
6
3
1
0
-2
0
-2
-4
-5
-7
-9
-9
-10
-12
-13
-15
-17
-18
-19
-20
-23
-25
-28
-32
-34
-38
-42
-45
-47
-48
-47
-44
-42
-39
-38
-37
-33
-17
16
76
167
286
416
520
562
522
403
238
77
-42
-105
-115
-97
-70
-47
-29
-18
-12
-9
-9
-9
-10
-12
-13
-14
-17
-18
-19
-20
-23
-24
-25
-24
-25
-27
-28
-29
-32
-33
-35
-38
-40
-43
-45
-48
-50
-53
-55
-58
-58
-58
-57
-55
-50
-45
-39
-34
-32
-29
-29
-30
-32
-30
-27
-22
-17
-12
-9
-8
-9
-9
-10
-12
-12
-8
-7
-2
3
10
15
20
22
26
26
26
26
25
23
22
21
18
15
11
8
5
2
0
-3
-5
-9
-12
-15
-19
-23
-27
-32
-35
-39
-44
-47
-50
-53
-54
-54
-50
-47
-39
-33
-25
-20
-17
-12
-9
-4
1
11
21
30
38
42
43
43
42
40
37
35
32
28
26
23
21
18
16
13
11
7
6
2
1
-2
-2
-5
-7
-9
-10
-12
-13
-15
-18
-22
-25
-29
-30
-33
-35
-39
-43
-47
-50
-54
-55
-57
-57
-54
-50
-44
-38
-33
-29
-25
-24
-23
-22
-19
-17
-9
3
32
81
153
252
371
480
548
545
460
311
140
-10
-107
-144
-138
-110
-82
-59
-43
-34
-29
-28
-28
-28
-29
-30
-33
-34
-34
-35
-37
-38
-39
-42
-45
-49
-53
-57
-60
-63
-67
-69
-70
-70
-69
-67
-64
-58
-52
-45
-39
-34
-30
-28
-27
-23
-18
-12
-3
5
10
13
15
13
10
8
5
2
-2
-4
-7
-7
-8
-5
-3
0
1
2
3
5
6
6
8
8
8
7
7
5
3
0
-4
-9
-13
-19
-24
-27
-30
-34
-38
-40
-45
-49
-54
-59
-63
-65
-65
-65
-62
-59
-53
-49
-44
-42
-39
-35
-34
-32
-27
-20
-12
-2
6
13
18
22
22
22
21
20
18
16
15
13
12
12
10
8
7
6
5
3
2
1
0
-4
-8
-15
-23
-30
-29
-15
18
81
173
291
412
502
528
473
343
171
3
-124
-193
-210
-194
-165
-137
-112
-90
-74
-62
-52
-45
-42
-39
-38
-35
-30
-23
-14
-5
2
7
10
11
11
10
10
10
7
7
6
5
5
3
3
2
1
-2
-3
-3
-4
-7
-8
-10
-12
-17
-19
-23
-27
-30
-33
-37
-39
-43
-44
-47
-48
-48
-48
-48
-47
-45
-43
-40
-38
-35
-33
-30
-27
-23
-18
-14
-12
-12
-13
-15
-18
-18
-15
-10
-4
3
7
8
10
10
10
8
7
6
5
3
2
1
1
1
1
1
1
0
0
-2
-2
-2
-3
-4
-5
-8
-9
-12
-13
-14
-17
-19
-22
-24
-27
-28
-32
-33
-35
-39
-43
-45
-50
-53
-55
-58
-59
-58
-54
-49
-44
-38
-32
-28
-25
-23
-22
-18
-12
-4
2
10
17
22
25
26
26
25
23
20
15
7
1
0
10
37
90
172
282
403
506
555
523
413
252
82
-53
-134
-159
-148
-122
-94
-74
-60
-52
-47
-44
-45
-45
-48
-50
-53
-55
-58
-60
-62
-63
-63
-60
-57
-49
-42
-34
-29
-25
-24
-22
-20
-17
-10
-5
3
8
15
20
22
22
22
21
18
17
15
12
10
6
0
-3
-8
-12
-15
-19
-22
-23
-24
-24
-23
-19
-14
-9
-5
-2
1
3
3
5
2
0
-4
-8
-13
-18
-23
-28
-33
-37
-40
-44
-47
-48
-48
-45
-42
-38
-33
-30
-28
-27
-25
-23
-19
-14
-7
1
8
16
20
22
22
22
21
18
17
16
13
12
10
7
5
1
0
-3
-3
-3
-3
-3
-2
-2
-3
-5
-7
-9
-12
-14
-17
-19
-22
-24
-28
-30
-33
-35
-38
-39
-42
-45
-48
-52
-54
-57
-59
-62
-64
-64
-53
-25
22
98
203
327
441
512
512
431
288
123
-17
-105
-138
-128
-98
-65
-40
-23
-12
-7
-4
-4
-4
-5
-7
-9
-10
-12
-13
-14
-15
-17
-18
-19
-20
-22
-23
-25
-27
-29
-30
-33
-34
-35
-38
-39
-42
-43
-45
-47
-49
-50
-50
-52
-50
-48
-45
-42
-38
-33
-32
-30
-29
-29
-27
-23
-17
-7
2
12
22
28
35
38
42
43
45
43
42
41
37
33
28
25
21
16
13
8
6
3
1
0
0
-4
-7
-9
-12
-14
-18
-20
-23
-25
-28
-30
-33
-35
-38
-39
-42
-44
-47
-49
-53
-55
-58
-59
-59
-57
-53
-49
-44
-39
-34
-32
-29
-25
-20
-13
-3
5
15
21
25
26
25
22
18
16
13
12
10
8
6
5
3
2
1
-2
-3
-7
-13
-20
-25
-22
-2
42
115
216
337
447
515
510
420
267
92
-57
-155
-193
-187
-160
-133
-113
-99
-90
-85
-82
-75
-69
-63
-55
-49
-44
-40
-37
-34
-30
-23
-14
-4
3
10
15
17
16
15
13
12
10
10
7
6
3
2
0
0
-2
-3
-3
-4
-4
-7
-9
-12
-15
-18
-23
-25
-28
-29
-32
-32
-32
-32
-30
-28
-25
-23
-19
-18
-15
-14
-15
-15
-15
-17
-18
-17
-15
-14
-12
-10
-9
-8
-7
-5
-2
5
12
20
26
31
33
33
31
27
23
20
16
13
11
8
7
5
2
1
-2
-3
-4
-5
-5
-5
-7
-8
-9
-10
-14
-17
-18
-20
-23
-23
-24
-25
-27
-27
-28
-30
-33
-37
-40
-44
-48
-52
-54
-55
-54
-52
-48
-42
-35
-30
-27
-24
-23
-20
-18
-12
-3
6
15
18
17
16
18
32
65
123
208
316
426
505
522
457
323
155
-5
-115
-165
-163
-133
-98
-69
-49
-38
-32
-28
-27
-25
-25
-27
-27
-28
-30
-33
-35
-39
-43
-47
-50
-54
-57
-59
-60
-62
-60
-58
-53
-47
-39
-32
-25
-23
-19
-18
-14
-7
0
10
17
25
30
31
30
27
25
21
16
12
8
5
2
1
0
0
1
2
3
7
11
13
17
20
21
22
20
17
12
8
3
-2
-7
-13
-17
-20
-24
-27
-32
-35
-40
-45
-49
-54
-58
-60
-63
-64
-63
-60
-55
-50
-45
-40
-38
-35
-33
-30
-27
-19
-10
0
7
13
18
21
21
18
17
15
11
8
7
6
6
5
6
5
3
1
-2
-5
-8
-9
-10
-12
-13
-13
-13
-14
-15
-18
-20
-23
-25
-28
-30
-33
-37
-40
-44
-48
-52
-55
-60
-67
-70
-70
-57
-25
28
111
218
335
432
480
452
348
198
43
-75
-140
-150
-128
-90
-58
-33
-18
-10
-5
-3
-2
-2
-3
-4
-4
-5
-5
-5
-7
-8
-9
-10
-12
-13
-14
-14
-15
-17
-20
-22
-23
-27
-29
-32
-33
-34
-35
-35
-37
-38
-40
-43
-45
-47
-49
-50
-50
-49
-48
-43
-38
-34
-30
-28
-27
-24
-20
-13
-3
7
20
31
41
50
56
60
61
58
56
51
43
37
31
25
21
16
11
7
5
2
0
-3
-5
-7
-9
-12
-14
-17
-19
-22
-24
-25
-28
-29
-30
-32
-33
-34
-35
-37
-38
-40
-44
-48
-52
-57
-59
-62
-63
-62
-58
-54
-48
-42
-37
-33
-29
-28
-25
-23
-17
-12
-5
2
8
11
15
16
16
15
13
12
11
10
8
6
5
3
2
2
1
-2
-8
-15
-24
-30
-27
-7
37
110
215
337
453
526
525
442
292
118
-34
-138
-184
-185
-165
-142
-122
-108
-99
-93
-88
-83
-75
-67
-59
-52
-45
-42
-39
-38
-35
-32
-27
-19
-12
-4
2
7
10
12
12
10
8
7
6
5
2
2
1
1
0
-2
-3
-5
-9
-12
-15
-18
-20
-22
-24
-28
-29
-32
-33
-34
-35
-35
-35
-34
-30
-27
-23
-18
-15
-13
-13
-15
-17
-19
-22
-24
-24
-25
-24
-23
-19
-17
-15
-14
-14
-12
-9
-7
-2
5
11
17
21
21
21
20
17
16
15
13
13
11
11
11
11
10
8
6
3
1
1
0
-2
-2
-4
-4
-5
-7
-9
-12
-14
-17
-19
-22
-23
-25
-28
-30
-33
-35
-39
-43
-47
-53
-55
-58
-58
-57
-53
-49
-43
-37
-32
-28
-25
-23
-20
-18
-12
-5
3
12
18
21
18
13
13
25
56
113
201
312
427
511
532
472
341
171
11
-103
-159
-162
-138
-105
-77
-55
-42
-34
-30
-29
-29
-29
-30
-32
-34
-34
-35
-37
-39
-42
-47
-50
-55
-58
-60
-62
-62
-59
-54
-49
-42
-35
-29
-27
-24
-22
-20
-17
-9
-2
7
17
25
28
30
27
23
18
13
10
6
2
1
-2
-2
-2
-2
-2
0
3
7
11
15
17
20
21
21
20
16
12
8
2
-3
-7
-12
-14
-19
-22
-25
-29
-32
-37
-42
-47
-50
-55
-58
-60
-60
-59
-54
-49
-43
-37
-33
-29
-25
-23
-20
-14
-5
3
12
21
27
30
30
30
28
25
22
18
17
15
13
12
11
10
7
6
5
2
1
0
-2
-3
-5
-7
-9
-10
-12
-13
-15
-17
-19
-22
-24
-27
-28
-30
-32
-35
-39
-43
-49
-57
-65
-70
-65
-45
-4
63
161
276
390
466
476
408
273
113
-27
-119
-152
-139
-104
-68
-39
-20
-10
-4
-2
-2
-2
-2
-3
-5
-7
-8
-9
-10
-12
-12
-13
-14
-15
-17
-18
-20
-22
-24
-24
-27
-29
-29
-32
-34
-34
-37
-37
-39
-40
-42
-44
-48
-52
-54
-55
-55
-53
-49
-45
-40
-37
-33
-32
-29
-27
-22
-14
-3
8
22
32
42
50
55
56
56
53
50
45
41
36
31
27
23
20
15
11
8
6
3
1
-2
-4
-7
-10
-13
-15
-19
-22
-24
-25
-28
-29
-32
-33
-34
-35
-38
-40
-43
-45
-49
-54
-58
-59
-62
-63
-62
-57
-52
-47
-42
-37
-33
-30
-27
-20
-13
-4
5
15
22
26
27
27
23
21
17
15
13
12
11
10
8
6
3
2
1
-2
-4
-10
-15
-17
-5
23
80
163
275
390
480
513
465
342
176
13
-109
-173
-184
-167
-139
-115
-99
-89
-83
-79
-74
-69
-63
-57
-49
-43
-38
-35
-33
-30
-25
-19
-13
-4
3
11
15
17
17
15
13
10
8
6
3
3
1
0
0
-2
0
-2
-2
-3
-7
-9
-12
-15
-18
-20
-23
-25
-27
-29
-30
-30
-30
-29
-28
-24
-22
-18
-15
-13
-13
-13
-15
-18
-19
-22
-23
-23
-20
-18
-14
-12
-9
-8
-8
-7
-5
-2
5
12
20
25
26
26
23
21
17
13
11
8
6
5
3
2
2
1
0
0
-2
-3
-4
-5
-7
-8
-9
-12
-13
-15
-18
-19
-22
-23
-23
-25
-27
-28
-30
-32
-35
-38
-43
-47
-52
-55
-58
-59
-59
-55
-52
-45
-39
-34
-30
-28
-27
-24
-20
-15
-7
2
7
12
13
16
26
50
95
163
258
367
461
508
483
383
227
61
-72
-149
-169
-150
-115
-83
-58
-43
-34
-29
-28
-28
-29
-30
-32
-33
-34
-35
-37
-38
-40
-43
-47
-50
-54
-58
-60
-62
-63
-62
-59
-54
-49
-42
-37
-30
-28
-24
-23
-18
-13
-3
6
16
23
28
30
27
23
18
13
11
7
6
5
5
3
3
5
6
8
12
16
20
22
25
25
23
22
18
16
11
6
2
-3
-9
-15
-20
-24
-27
-29
-32
-34
-37
-43
-48
-54
-60
-64
-67
-67
-64
-60
-55
-50
-44
-39
-35
-34
-32
-29
-25
-20
-12
-2
6
15
21
25
25
22
18
15
11
8
7
7
7
7
6
6
5
2
1
0
0
-2
-2
-3
-5
-8
-10
-12
-14
-17
-18
-19
-20
-22
-24
-27
-30
-33
-35
-39
-43
-48
-57
-63
-67
-60
-35
10
85
188
306
412
471
458
370
225
67
-62
-138
-158
-138
-100
-64
-35
-15
-3
3
5
6
6
6
5
3
2
1
-2
-3
-5
-7
-9
-10
-12
-12
-13
-14
-15
-17
-18
-19
-20
-23
-25
-28
-29
-32
-33
-35
-37
-39
-42
-44
-47
-50
-53
-55
-57
-58
-57
-52
-47
-39
-34
-29
-25
-23
-20
-14
-5
5
17
31
43
52
57
60
58
53
50
43
37
30
25
20
15
12
8
6
3
0
-4
-9
-12
-15
-17
-18
-19
-20
-20
-22
-22
-23
-24
-25
-25
-27
-28
-29
-32
-34
-37
-39
-42
-44
-47
-50
-54
-58
-62
-65
-65
-63
-58
-50
-43
-35
-30
-27
-24
-22
-19
-14
-7
0
6
10
13
16
16
15
13
11
8
7
5
5
3
2
1
0
-2
-3
-7
-13
-20
-23
-18
6
53
131
238
362
471
532
517
421
266
96
-47
-138
-174
-172
-150
-128
-109
-97
-88
-84
-80
-77
-73
-67
-59
-52
-47
-42
-38
-37
-35
-33
-28
-22
-13
-5
2
8
12
15
15
13
12
10
8
6
5
2
1
0
0
-2
-2
-3
-4
-8
-9
-13
-17
-19
-23
-25
-28
-30
-32
-34
-34
-34
-33
-30
-27
-22
-18
-14
-14
-14
-15
-18
-20
-24
-28
-30
-32
-32
-32
-28
-25
-22
-20
-20
-19
-19
-19
-15
-12
-4
1
7
11
13
15
15
13
13
12
11
11
10
8
8
6
6
5
3
2
0
-2
-3
-5
-8
-9
-10
-14
-17
-18
-18
-19
-20
-20
-20
-23
-24
-27
-29
-32
-35
-38
-42
-44
-48
-52
-54
-55
-55
-53
-49
-44
-38
-32
-27
-23
-22
-20
-17
-12
-5
3
11
17
17
16
16
25
48
96
172
277
391
488
533
502
395
233
67
-63
-138
-157
-139
-107
-77
-53
-39
-29
-25
-24
-24
-24
-25
-27
-29
-30
-32
-33
-35
-38
-42
-45
-48
-52
-54
-55
-57
-55
-54
-50
-44
-39
-33
-28
-24
-20
-19
-17
-13
-7
2
12
22
30
32
33
32
28
23
20
16
12
10
7
6
6
6
6
8
11
16
21
26
28
31
31
30
28
25
21
17
11
5
1
-5
-9
-13
-17
-20
-24
-28
-32
-37
-42
-45
-50
-54
-58
-59
-58
-55
-50
-45
-39
-33
-29
-27
-24
-22
-19
-13
-5
2
11
18
23
26
26
25
22
20
16
13
11
8
7
6
5
3
2
-2
-2
-5
-8
-9
-10
-12
-12
-12
-13
-15
-18
-20
-24
-27
-29
-30
-32
-34
-37
-39
-42
-44
-48
-53
-59
-67
-72
-68
-49
-9
56
151
265
377
456
471
407
278
118
-24
-118
-153
-139
-102
-64
-34
-14
-3
2
3
3
5
3
2
2
0
-3
-4
-7
-8
-9
-10
-12
-14
-15
-18
-19
-19
-20
-22
-23
-23
-23
-25
-27
-29
-29
-32
-35
-37
-39
-42
-44
-48
-50
-54
-55
-55
-53
-49
-44
-38
-33
-28
-24
-22
-18
-13
-5
5
16
27
40
48
55
60
61
60
56
51
45
37
32
27
22
18
15
10
8
6
1
-3
-7
-9
-13
-15
-18
-19
-20
-23
-24
-27
-29
-32
-34
-35
-38
-39
-42
-44
-47
-49
-53
-57
-60
-63
-64
-65
-67
-65
-62
-58
-53
-47
-42
-37
-34
-32
-30
-27
-20
-12
-3
6
12
18
21
22
21
18
15
12
12
10
8
8
7
7
5
2
-3
-10
-17
-19
-13
13
62
141
248
370
477
535
517
418
263
93
-47
-137
-170
-165
-143
-119
-100
-89
-82
-79
-79
-79
-79
-75
-70
-63
-55
-48
-42
-37
-35
-34
-32
-29
-24
-18
-10
-2
5
10
13
16
15
15
15
12
11
8
7
6
3
2
1
-2
-4
-7
-8
-9
-13
-17
-20
-24
-28
-30
-32
-30
-29
-28
-27
-23
-19
-14
-12
-9
-9
-10
-14
-17
-20
-24
-28
-30
-35
-39
-43
-44
-45
-43
-37
-33
-28
-25
-23
-23
-22
-19
-14
-8
0
6
10
13
13
13
12
11
10
10
10
11
11
11
8
7
5
2
1
-2
-4
-5
-8
-10
-13
-15
-17
-19
-20
-22
-22
-22
-22
-24
-25
-28
-30
-33
-35
-38
-42
-44
-50
-55
-59
-63
-64
-64
-62
-58
-53
-47
-39
-34
-29
-25
-24
-22
-19
-17
-15
-14
-9
8
40
96
181
292
415
515
561
527
412
247
76
-58
-139
-160
-145
-117
-87
-62
-44
-33
-28
-25
-25
-25
-27
-28
-28
-29
-30
-32
-34
-37
-39
-40
-43
-44
-47
-48
-52
-53
-54
-55
-55
-55
-53
-50
-45
-40
-34
-29
-25
-23
-22
-22
-19
-15
-9
-2
5
11
15
16
16
15
13
12
11
10
10
10
11
12
16
18
21
23
25
25
23
21
18
15
12
8
7
3
0
-5
-10
-15
-20
-25
-29
-33
-38
-42
-44
-47
-48
-50
-53
-57
-60
-63
-65
-67
-67
-64
-60
-55
-50
-43
-37
-30
-27
-23
-19
-17
-10
-3
5
13
20
23
25
23
22
21
20
17
16
13
12
10
7
6
5
2
1
1
1
0
-2
-2
-3
-4
-7
-8
-10
-13
-14
-15
-17
-17
-19
-20
-23
-25
-28
-30
-35
-42
-50
-62
-72
-72
-59
-23
42
138
261
390
490
526
480
356
192
33
-82
-139
-144
-115
-79
-48
-24
-10
-4
-3
-3
-3
-3
-3
-4
-4
-3
-3
-3
-4
-4
-5
-9
-10
-13
-14
-17
-18
-18
-19
-20
-22
-24
-27
-29
-32
-34
-35
-38
-38
-38
-39
-42
-47
-49
-53
-57
-60
-63
-63
-62
-60
-58
-53
-47
-42
-35
-30
-25
-19
-9
2
17
31
45
55
60
62
61
57
52
46
38
32
26
20
17
13
11
8
6
2
0
-3
-7
-9
-10
-14
-15
-15
-17
-17
-18
-18
-19
-20
-22
-23
-24
-27
-29
-32
-34
-37
-40
-43
-47
-52
-55
-59
-62
-62
-62
-58
-52
-44
-37
-30
-25
-23
-22
-19
-17
-10
-4
5
13
20
23
25
23
21
18
16
15
15
13
12
11
10
7
5
2
-4
-10
-15
-18
-13
10
58
137
245
372
488
557
550
458
305
131
-18
-115
-155
-155
-134
-112
-93
-83
-77
-75
-75
-74
-73
-70
-67
-62
-54
-48
-42
-37
-34
-32
-28
-24
-18
-10
-3
5
11
16
17
17
16
13
12
10
8
6
3
2
0
-3
-7
-8
-9
-12
-13
-15
-18
-20
-23
-25
-25
-25
-25
-25
-23
-20
-15
-10
-7
-4
-3
-5
-8
-12
-15
-18
-19
-22
-24
-28
-32
-37
-39
-39
-38
-35
-32
-28
-23
-17
-8
6
25
43
60
67
66
52
32
8
-13
-29
-37
-39
-34
-28
-20
-14
-10
-7
-5
-5
-7
-8
-8
-9
-10
-12
-14
-15
-17
-19
-22
-23
-23
-19
-10
0
8
13
7
-7
-27
-48
-65
-78
-84
-85
-84
-83
-80
-78
-75
-69
-62
-52
-39
-28
-19
-13
-10
-9
-9
-5
0
8
17
22
23
20
20
27
52
105
186
296
412
506
542
497
378
218
65
-48
-100
-100
-69
-30
1
17
16
3
-17
-39
-59
-74
-84
-92
-93
-88
-80
-72
-64
-58
-54
-50
-47
-44
-43
-40
-37
-28
-17
-7
-2
-8
-25
-49
-72
-87
-88
-79
-62
-40
-19
2
18
30
32
32
30
25
20
11
2
-7
-13
-14
-10
-8
-7
-9
-13
-15
-13
-9
0
8
17
23
26
26
23
21
18
16
11
7
1
-2
-7
-7
-9
-13
-22
-38
-59
-79
-95
-100
-97
-85
-74
-65
-62
-58
-54
-45
-34
-20
-7
5
11
15
18
20
21
20
17
13
11
8
11
15
17
18
13
6
-3
-10
-14
-13
-5
7
23
37
45
43
33
20
10
3
0
-4
-12
-19
-24
-23
-18
-15
-22
-35
-52
-64
-69
-69
-67
-67
-68
-72
-75
-78
-77
-68
-45
-2
66
162
283
406
500
531
480
352
190
36
-72
-124
-128
-108
-82
-59
-39
-24
-14
-10
-12
-14
-15
-14
-9
-3
1
2
2
0
-4
-8
-14
-18
-22
-23
-23
-25
-30
-35
-40
-40
-39
-38
-40
-48
-55
-62
-62
-57
-50
-45
-48
-54
-62
-64
-59
-48
-33
-22
-20
-27
-38
-45
-44
-32
-17
-4
2
2
0
2
12
25
38
47
52
55
52
47
41
33
31
32
36
41
42
38
30
17
3
-12
-25
-34
-40
-42
-38
-33
-27
-24
-23
-23
-22
-22
-23
-28
-34
-40
-44
-48
-50
-55
-64
-72
-79
-83
-83
-78
-73
-65
-59
-55
-53
-50
-52
-52
-48
-39
-27
-13
-2
5
7
6
7
10
15
18
21
22
22
21
18
17
16
16
17
18
18
16
7
-7
-22
-32
-29
-5
46
130
245
377
496
566
560
468
316
142
-8
-110
-157
-160
-145
-124
-104
-90
-82
-74
-69
-69
-72
-77
-80
-78
-72
-60
-52
-47
-47
-47
-48
-44
-35
-24
-13
-3
5
10
12
13
13
13
13
13
12
10
6
5
3
3
5
6
3
1
-2
-5
-10
-18
-30
-42
-52
-57
-57
-53
-48
-43
-37
-32
-27
-19
-14
-10
-7
-5
-3
-5
-8
-15
-24
-34
-43
-49
-53
-57
-59
-60
-59
-57
-52
-45
-39
-34
-28
-22
-13
-5
5
12
17
21
21
17
15
10
2
-8
-20
-30
-35
-37
-33
-27
-23
-20
-20
-19
-19
-17
-17
-14
-14
-14
-14
-15
-14
-14
-14
-19
-28
-40
-53
-62
-64
-65
-63
-64
-69
-74
-80
-82
-82
-79
-75
-73
-70
-65
-62
-55
-48
-43
-38
-37
-37
-34
-29
-20
-14
-10
-14
-19
-18
-4
32
98
195
318
446
541
570
516
385
215
50
-73
-137
-147
-123
-83
-42
-8
13
21
21
16
17
23
36
47
51
47
36
22
7
-2
-7
-8
-5
0
5
12
18
20
20
16
15
12
12
11
6
-3
-12
-17
-17
-12
-5
3
10
15
16
17
15
11
8
3
-2
-7
-9
-10
-10
-13
-19
-27
-34
-39
-37
-25
-10
5
15
16
7
-8
-24
-38
-47
-52
-53
-53
-52
-47
-44
-42
-43
-48
-55
-60
-62
-58
-53
-53
-58
-69
-82
-88
-89
-84
-74
-64
-54
-45
-33
-15
5
25
38
45
43
43
46
57
75
95
111
122
127
126
122
115
106
95
85
73
65
56
51
45
38
33
27
20
13
7
6
8
13
21
26
25
16
1
-14
-27
-32
-34
-33
-33
-33
-35
-40
-45
-50
-54
-59
-65
-73
-82
-89
-87
-63
-15
68
183
322
460
558
585
525
388
213
51
-65
-120
-124
-102
-72
-47
-29
-18
-13
-10
-9
-8
-9
-10
-12
-13
-13
-14
-14
-14
-14
-12
-8
-4
0
2
7
13
16
16
11
-3
-18
-34
-47
-55
-60
-68
-80
-98
-123
-149
-174
-195
-209
-213
-207
-195
-178
-159
-140
-124
-112
-102
-94
-87
-77
-62
-43
-20
0
15
20
15
6
-5
-10
-12
-10
-9
-10
-12
-14
-15
-15
-15
-17
-19
-24
-30
-35
-42
-45
-50
-54
-57
-59
-58
-54
-49
-43
-38
-35
-33
-33
-32
-32
-32
-33
-34
-35
-37
-37
-37
-35
-35
-38
-40
-44
-44
-40
-33
-25
-15
-9
-4
-2
1
3
7
13
23
32
42
47
51
51
48
43
38
33
30
28
28
32
36
37
37
35
28
20
13
11
18
40
82
151
252
378
506
600
621
556
412
233
66
-53
-113
-127
-115
-102
-90
-82
-75
-68
-60
-55
-52
-50
-49
-48
-43
-37
-29
-27
-27
-29
-30
-30
-25
-15
-2
13
27
38
46
48
47
42
35
31
27
25
22
20
17
15
15
20
30
36
37
28
7
-18
-39
-55
-62
-59
-53
-48
-44
-42
-40
-38
-32
-28
-23
-20
-17
-17
-17
-18
-20
-22
-23
-23
-24
-24
-25
-25
-25
-25
-24
-24
-24
-23
-22
-22
-20
-22
-20
-19
-14
-9
-4
1
3
3
1
0
0
0
3
7
13
15
12
6
-4
-13
-24
-32
-34
-34
-33
-30
-28
-27
-27
-27
-27
-27
-28
-28
-29
-30
-33
-34
-37
-42
-47
-53
-59
-63
-64
-63
-62
-59
-58
-58
-54
-50
-45
-38
-29
-23
-17
-10
-3
5
12
17
23
28
36
53
87
143
223
331
447
540
575
531
408
237
68
-57
-123
-135
-113
-82
-54
-35
-24
-15
-10
-8
-8
-8
-9
-8
-4
1
5
7
2
-8
-19
-32
-42
-45
-47
-45
-42
-38
-37
-33
-27
-18
-4
12
25
35
38
43
47
55
58
55
40
17
-12
-39
-60
-70
-75
-77
-79
-82
-84
-87
-88
-87
-85
-82
-78
-74
-73
-74
-77
-80
-83
-85
-84
-82
-77
-72
-65
-59
-54
-52
-50
-52
-52
-52
-53
-53
-54
-55
-59
-65
-72
-83
-93
-100
-104
-103
-98
-90
-80
-70
-63
-54
-48
-43
-39
-37
-32
-23
-10
3
21
36
46
52
52
47
40
32
26
23
26
30
35
36
36
36
35
32
28
25
18
11
3
-2
-4
0
6
13
18
16
7
-3
-10
-14
-17
-18
-22
-25
-30
-37
-40
-43
-47
-49
-49
-47
-42
-35
-29
-20
-14
-9
-9
-13
-17
-14
1
36
96
183
295
412
502
535
488
368
205
43
-75
-138
-147
-120
-87
-57
-35
-22
-15
-10
-8
-8
-7
-5
-5
-7
-8
-9
-14
-20
-29
-38
-44
-48
-53
-60
-70
-83
-93
-99
-102
-100
-97
-93
-87
-78
-65
-49
-32
-15
-8
-8
-14
-24
-30
-33
-29
-24
-17
-8
3
12
22
30
35
38
42
45
47
47
48
55
70
90
112
123
117
93
62
32
15
8
15
21
25
26
26
23
21
18
13
8
2
-5
-13
-22
-30
-39
-48
-54
-60
-65
-70
-74
-78
-82
-84
-85
-85
-85
-84
-83
-83
-80
-75
-68
-60
-53
-47
-43
-39
-34
-27
-19
-9
1
11
23
35
41
42
36
22
6
-12
-24
-30
-32
-29
-27
-25
-25
-25
-23
-19
-17
-13
-13
-15
-19
-25
-32
-29
-13
22
86
182
305
433
531
563
508
372
193
20
-110
-180
-198
-182
-158
-134
-114
-98
-83
-70
-59
-52
-45
-42
-35
-28
-20
-13
-3
8
17
22
22
17
10
3
0
-4
-7
-10
-14
-15
-14
-12
-9
-7
-5
-3
-4
-5
-5
-4
-2
0
2
0
-3
-9
-15
-20
-24
-30
-35
-42
-49
-54
-55
-55
-52
-47
-42
-37
-33
-28
-24
-17
-7
3
12
16
15
12
12
15
18
22
18
15
11
11
15
21
25
23
22
20
21
21
23
27
31
35
38
42
45
47
51
56
62
65
60
45
26
8
-3
-5
-2
-2
-4
-12
-20
-25
-30
-33
-33
-35
-39
-44
-50
-58
-65
-73
-82
-90
-97
-100
-100
-94
-85
-74
-62
-50
-40
-33
-25
-17
-10
-5
-3
-2
0
2
6
8
10
8
5
0
-3
-5
-10
-17
-24
-30
-33
-33
-30
-28
-27
-32
-38
-42
-34
-5
56
146
262
388
492
542
513
408
251
83
-52
-134
-163
-157
-137
-119
-107
-100
-97
-92
-87
-82
-75
-69
-63
-58
-53
-49
-45
-40
-34
-27
-17
-5
2
11
15
17
18
18
21
23
25
27
30
33
37
43
53
66
76
80
75
60
37
15
-3
-13
-19
-23
-25
-27
-28
-28
-29
-30
-33
-35
-38
-37
-33
-29
-25
-22
-17
-14
-12
-12
-15
-19
-20
-20
-17
-17
-18
-23
-25
-25
-24
-23
-22
-22
-20
-17
-9
0
7
12
16
16
17
17
18
20
21
21
18
12
7
5
5
7
10
10
5
-3
-15
-25
-33
-34
-29
-22
-12
-8
-10
-20
-35
-49
-60
-64
-62
-59
-55
-54
-54
-54
-55
-57
-58
-59
-58
-57
-53
-47
-40
-32
-25
-20
-18
-18
-23
-25
-23
-9
25
85
171
282
407
516
580
566
468
306
120
-42
-148
-188
-179
-147
-107
-75
-53
-39
-30
-24
-17
-10
-5
-3
-2
-2
-3
-5
-5
-4
-2
1
1
-4
-14
-27
-40
-52
-58
-59
-58
-59
-63
-72
-83
-94
-100
-99
-90
-78
-68
-59
-53
-48
-43
-35
-25
-15
-4
5
13
18
22
25
26
27
28
30
30
30
30
28
27
27
25
22
18
16
12
11
7
1
-7
-19
-32
-43
-49
-53
-54
-55
-57
-57
-57
-55
-57
-57
-55
-55
-54
-55
-58
-64
-72
-79
-83
-78
-67
-49
-29
-14
-8
-13
-25
-40
-50
-53
-48
-39
-27
-15
-3
10
16
21
23
22
20
18
18
20
21
22
21
18
17
15
13
15
15
13
10
6
5
7
12
17
17
12
1
-12
-22
-24
-23
-23
-28
-38
-45
-42
-15
41
132
247
368
467
513
487
392
253
107
-9
-87
-125
-137
-135
-124
-105
-79
-52
-30
-14
-5
1
6
11
15
17
17
16
15
12
11
10
7
3
-2
-7
-10
-13
-15
-19
-23
-28
-34
-39
-44
-47
-49
-49
-48
-47
-44
-40
-35
-27
-17
-10
-13
-28
-53
-80
-102
-110
-107
-98
-89
-85
-84
-82
-75
-63
-49
-34
-23
-13
-4
3
12
22
31
37
43
48
53
60
65
66
61
47
28
8
-2
-4
5
12
16
10
-4
-20
-33
-38
-37
-34
-33
-35
-38
-39
-38
-35
-32
-28
-25
-27
-29
-32
-34
-38
-37
-37
-37
-39
-43
-45
-48
-50
-50
-48
-45
-43
-34
-22
-9
3
7
5
-7
-20
-33
-40
-40
-33
-22
-8
3
11
15
15
13
10
8
8
8
7
5
1
-7
-13
-15
-8
16
63
140
247
376
495
573
577
498
355
190
45
-53
-102
-113
-109
-100
-93
-85
-79
-74
-73
-74
-77
-79
-78
-75
-72
-69
-64
-57
-47
-35
-29
-29
-33
-39
-40
-37
-29
-20
-17
-14
-13
-12
-8
-4
-2
0
-2
-5
-5
-5
-4
-2
0
0
-3
-5
-9
-12
-14
-15
-18
-22
-28
-33
-33
-30
-25
-19
-15
-13
-12
-8
-4
-3
-2
-4
-9
-15
-20
-24
-27
-33
-39
-45
-48
-47
-42
-35
-32
-29
-28
-29
-30
-29
-28
-23
-17
-8
5
21
33
41
37
23
8
-5
-10
-8
-2
5
8
8
5
2
-2
-3
-5
-5
-7
-7
-7
-8
-8
-7
-4
-2
3
7
10
7
0
-8
-19
-28
-35
-40
-45
-49
-53
-55
-57
-57
-58
-59
-60
-62
-60
-54
-45
-33
-22
-14
-13
-19
-29
-38
-42
-32
0
57
142
255
382
501
573
575
493
347
177
25
-79
-128
-133
-113
-89
-67
-49
-38
-30
-27
-24
-22
-22
-22
-24
-28
-30
-30
-28
-28
-29
-33
-39
-44
-49
-53
-57
-62
-65
-69
-70
-68
-63
-57
-52
-48
-45
-42
-35
-29
-23
-17
-14
-10
-8
-5
-3
-2
-3
-3
-2
0
2
2
2
2
2
5
7
11
15
20
23
28
32
35
35
32
30
28
28
31
33
31
26
15
2
-10
-18
-23
-23
-22
-23
-28
-35
-44
-53
-58
-59
-59
-59
-59
-59
-59
-58
-55
-52
-47
-39
-32
-22
-14
-9
-8
-10
-14
-13
-5
8
22
32
36
33
26
20
15
13
13
15
16
16
15
15
17
20
26
31
35
35
30
20
8
3
1
1
-3
-17
-38
-59
-67
-48
1
85
197
326
442
513
511
427
280
110
-38
-135
-179
-179
-157
-129
-103
-82
-65
-54
-47
-43
-37
-28
-18
-7
3
10
11
11
10
8
6
3
-2
-5
-5
-3
2
6
7
5
-2
-8
-15
-19
-22
-23
-22
-19
-17
-13
-12
-13
-18
-24
-33
-40
-47
-54
-62
-69
-75
-80
-83
-82
-79
-74
-68
-60
-53
-45
-38
-30
-22
-14
-5
1
12
26
40
50
47
31
6
-18
-35
-40
-34
-24
-14
-8
-3
-2
1
1
2
1
2
2
3
3
2
0
0
-3
-5
-7
-7
-7
-5
-4
-5
-7
-10
-13
-13
-12
-13
-17
-24
-33
-40
-42
-42
-40
-42
-48
-55
-64
-69
-70
-68
-63
-57
-50
-43
-35
-28
-19
-13
-9
-10
-13
-14
-13
-8
-2
5
8
11
12
15
17
20
21
21
21
20
20
18
16
18
32
67
136
241
370
493
572
576
496
351
181
28
-75
-125
-133
-118
-98
-80
-68
-60
-59
-63
-70
-77
-80
-82
-79
-77
-77
-80
-82
-78
-68
-54
-42
-34
-33
-38
-44
-47
-42
-33
-20
-8
0
6
7
7
5
3
1
1
1
1
2
2
-2
-4
-9
-13
-15
-17
-18
-23
-27
-32
-37
-38
-38
-35
-34
-34
-32
-28
-22
-13
-7
-3
0
2
3
2
0
-8
-19
-33
-44
-53
-59
-60
-59
-55
-49
-39
-29
-20
-15
-14
-13
-12
-10
-5
0
7
18
31
43
57
70
80
83
76
58
33
8
-12
-25
-30
-30
-27
-24
-18
-14
-10
-9
-7
-5
-4
-5
-7
-7
-7
-8
-10
-14
-19
-24
-27
-27
-27
-27
-29
-32
-34
-37
-39
-39
-37
-33
-28
-23
-19
-17
-18
-22
-28
-37
-47
-55
-58
-47
-14
46
137
258
396
523
601
601
513
361
185
28
-73
-118
-118
-97
-72
-49
-33
-20
-13
-10
-14
-20
-28
-35
-42
-44
-48
-49
-52
-53
-55
-57
-59
-60
-63
-65
-68
-69
-72
-75
-78
-80
-82
-82
-78
-75
-70
-64
-53
-43
-28
-17
-7
0
5
6
3
1
-2
-7
-9
-12
-13
-14
-15
-13
-8
-2
5
12
18
23
27
32
35
37
37
35
31
25
18
11
5
-2
-4
-5
-5
-5
-5
-7
-8
-9
-12
-17
-23
-30
-37
-43
-47
-50
-54
-59
-63
-65
-65
-64
-62
-58
-54
-49
-43
-37
-30
-25
-22
-19
-17
-12
-4
6
15
21
23
21
17
15
12
12
10
7
5
1
-2
-4
-5
-4
-3
-3
-2
-2
-2
-2
-2
-2
-2
-3
-4
-4
-4
-5
-9
-13
-17
-18
-19
-23
-24
-22
-5
40
120
233
356
455
493
452
337
182
27
-88
-152
-167
-152
-125
-98
-75
-58
-45
-32
-19
-5
5
12
18
22
23
22
20
16
18
25
31
32
22
1
-24
-45
-55
-52
-43
-33
-27
-23
-22
-20
-19
-17
-15
-17
-18
-20
-22
-23
-24
-28
-32
-38
-45
-53
-60
-67
-72
-74
-73
-69
-62
-50
-40
-32
-27
-24
-20
-13
0
15
31
42
47
50
48
48
48
50
50
46
40
33
28
27
26
23
18
11
1
-5
-10
-13
-13
-14
-19
-28
-37
-43
-45
-44
-42
-39
-38
-37
-37
-34
-33
-32
-30
-30
-30
-30
-30
-32
-35
-39
-43
-48
-52
-50
-52
-50
-49
-48
-45
-43
-39
-35
-33
-30
-28
-23
-15
-5
5
15
23
27
30
28
27
25
22
18
16
15
15
15
13
11
3
-4
-9
-5
16
61
136
238
360
472
542
542
465
325
161
16
-80
-127
-129
-113
-92
-77
-69
-67
-69
-73
-77
-78
-78
-75
-72
-68
-62
-57
-50
-45
-40
-38
-35
-32
-25
-17
-4
7
18
25
26
26
26
26
30
32
32
30
27
25
26
26
26
26
22
18
11
5
-2
-9
-15
-20
-24
-28
-32
-33
-34
-35
-34
-34
-32
-29
-25
-22
-19
-18
-19
-22
-28
-33
-39
-47
-50
-52
-52
-48
-43
-38
-32
-27
-24
-22
-20
-20
-20
-18
-14
-9
-3
3
7
10
8
7
3
1
-3
-4
-7
-7
-8
-8
-9
-10
-14
-18
-23
-27
-29
-30
-30
-32
-34
-35
-37
-39
-40
-39
-39
-39
-38
-35
-34
-33
-33
-35
-38
-42
-45
-49
-53
-55
-57
-58
-57
-54
-50
-45
-39
-35
-33
-32
-33
-37
-42
-40
-29
1
52
132
240
362
477
550
550
468
321
148
0
-102
-143
-139
-117
-88
-64
-47
-34
-23
-17
-13
-13
-13
-15
-17
-19
-22
-23
-23
-23
-20
-18
-18
-18
-19
-22
-24
-27
-29
-32
-35
-42
-49
-58
-64
-68
-67
-59
-49
-40
-44
-59
-82
-104
-115
-105
-79
-45
-13
8
20
23
25
25
23
23
22
22
22
26
30
33
38
40
40
38
37
33
31
27
23
22
18
16
12
8
5
1
-2
-5
-10
-15
-22
-28
-32
-34
-35
-35
-35
-37
-38
-39
-40
-44
-49
-54
-54
-53
-47
-38
-27
-17
-10
-5
-4
-3
-2
1
5
10
16
20
22
26
30
33
36
37
37
33
28
22
16
12
10
6
2
-3
-8
-13
-18
-22
-28
-34
-42
-45
-42
-19
26
103
212
342
467
551
560
485
335
152
-14
-135
-198
-210
-197
-173
-152
-135
-124
-117
-110
-104
-98
-89
-82
-74
-70
-69
-69
-67
-64
-60
-53
-44
-33
-23
-14
-8
-7
-8
-12
-14
-17
-15
-12
-8
-4
-2
-2
-2
-3
-4
-8
-10
-14
-19
-25
-30
-35
-39
-43
-44
-48
-49
-50
-50
-49
-47
-44
-40
-35
-30
-25
-22
-20
-19
-20
-22
-23
-24
-27
-25
-24
-22
-19
-17
-13
-13
-10
-9
-5
-2
3
11
17
23
26
27
30
30
30
28
27
25
23
23
23
22
22
21
18
17
16
16
15
13
12
11
8
6
5
3
1
-3
-5
-9
-12
-14
-14
-17
-18
-23
-27
-30
-32
-34
-35
-37
-38
-39
-42
-44
-47
-48
-48
-45
-40
-33
-24
-15
-10
-8
-8
-8
-5
-2
7
17
28
35
37
35
30
25
21
21
22
18
8
-3
-10
-7
21
81
173
297
438
561
631
618
515
343
150
-18
-130
-178
-177
-150
-120
-92
-72
-60
-54
-53
-57
-62
-67
-74
-78
-82
-82
-80
-78
-75
-70
-67
-63
-58
-54
-49
-45
-43
-39
-35
-29
-22
-12
-4
1
5
5
2
0
-3
-4
-5
-7
-12
-17
-25
-33
-38
-40
-43
-44
-47
-49
-50
-52
-52
-50
-48
-47
-43
-38
-32
-27
-22
-18
-14
-10
-7
-4
-4
-5
-12
-19
-28
-34
-40
-47
-52
-55
-59
-59
-59
-55
-54
-52
-48
-43
-39
-34
-32
-30
-29
-27
-19
-9
2
13
21
27
28
28
27
26
23
20
18
16
15
11
10
7
5
2
1
0
0
-2
-2
-3
-4
-5
-7
-8
-10
-12
-14
-17
-20
-27
-30
-33
-35
-37
-39
-40
-42
-44
-49
-53
-57
-60
-62
-62
-60
-59
-55
-53
-50
-49
-44
-30
2
61
151
273
415
542
618
612
511
338
141
-28
-138
-180
-173
-138
-100
-70
-48
-34
-25
-23
-22
-20
-22
-20
-22
-22
-22
-23
-24
-25
-25
-24
-24
-23
-22
-23
-24
-25
-28
-30
-33
-35
-38
-40
-44
-48
-50
-53
-53
-53
-52
-50
-49
-44
-40
-37
-34
-32
-33
-33
-35
-34
-32
-28
-20
-13
-7
-2
5
10
15
18
22
25
27
27
26
25
22
18
13
8
3
0
-4
-9
-12
-14
-15
-14
-15
-17
-19
-20
-20
-20
-20
-19
-19
-19
-18
-17
-18
-18
-19
-20
-22
-25
-28
-29
-32
-35
-37
-39
-40
-39
-38
-33
-27
-22
-18
-15
-14
-13
-10
-5
3
12
22
27
30
30
27
22
20
18
16
16
15
15
12
11
8
7
5
6
6
5
3
-2
-9
-19
-24
-22
-2
45
121
231
365
493
581
593
513
357
166
-10
-134
-194
-204
-183
-154
-127
-104
-88
-75
-65
-57
-49
-42
-35
-30
-28
-27
-25
-24
-19
-13
-5
3
10
12
11
8
5
2
0
-2
-2
-2
0
1
2
5
3
1
-4
-8
-10
-13
-15
-17
-19
-22
-25
-28
-30
-34
-38
-40
-42
-42
-42
-42
-40
-40
-38
-35
-32
-28
-24
-23
-22
-20
-20
-19
-17
-14
-10
-7
-4
-2
0
-2
-4
-5
-4
0
3
10
13
17
18
18
17
15
12
11
10
7
5
2
1
0
-2
-3
-4
-4
-4
-3
-2
-2
-2
-4
-5
-7
-9
-12
-14
-17
-19
-20
-20
-22
-23
-24
-25
-28
-32
-35
-40
-45
-50
-55
-59
-60
-62
-60
-58
-54
-50
-45
-39
-35
-30
-28
-24
-19
-14
-7
3
11
18
22
25
25
22
20
15
7
1
-4
1
21
66
140
245
370
488
561
558
468
310
125
-37
-144
-188
-182
-152
-117
-87
-68
-55
-49
-48
-48
-50
-53
-54
-55
-57
-59
-62
-63
-64
-65
-65
-64
-62
-57
-50
-44
-39
-34
-30
-28
-24
-19
-12
-2
10
20
27
32
32
30
27
22
18
15
10
7
5
2
-2
-5
-10
-17
-20
-24
-27
-29
-29
-27
-23
-19
-12
-4
3
8
12
15
15
13
11
8
5
1
-4
-9
-13
-17
-20
-25
-30
-35
-40
-45
-47
-48
-47
-44
-39
-34
-29
-24
-22
-19
-17
-12
-5
2
11
18
25
30
31
32
31
28
26
23
21
20
17
16
16
13
11
8
7
5
1
0
-3
-4
-7
-8
-9
-9
-12
-13
-13
-15
-17
-19
-22
-24
-28
-32
-35
-39
-43
-47
-50
-53
-57
-58
-58
-57
-54
-49
-42
-35
-29
-24
-22
-24
-28
-30
-27
-12
26
88
182
301
428
531
572
530
406
231
53
-82
-157
-172
-149
-115
-82
-57
-39
-28
-22
-19
-20
-20
-22
-22
-23
-24
-25
-27
-28
-29
-30
-32
-34
-37
-40
-44
-47
-49
-52
-54
-57
-59
-62
-63
-62
-59
-55
-48
-39
-30
-22
-17
-14
-12
-12
-12
-12
-9
-4
2
7
11
13
13
13
12
11
10
11
13
16
20
23
26
28
30
31
31
31
28
27
23
20
16
11
7
3
0
-3
-5
-9
-12
-14
-18
-20
-24
-28
-32
-37
-40
-43
-47
-49
-53
-55
-57
-58
-58
-57
-53
-49
-44
-39
-35
-32
-29
-28
-24
-20
-14
-8
2
10
17
22
25
26
23
22
20
17
15
13
12
11
8
7
6
6
3
1
-2
-3
-5
-5
-7
-12
-19
-28
-30
-24
2
53
133
242
362
462
508
475
361
195
21
-117
-198
-220
-205
-173
-140
-113
-92
-75
-63
-53
-45
-40
-37
-34
-30
-25
-19
-12
-4
2
8
12
15
15
13
12
11
10
10
8
8
7
5
2
1
-3
-4
-5
-5
-7
-7
-7
-8
-9
-12
-15
-18
-19
-23
-25
-29
-32
-35
-38
-40
-42
-42
-42
-40
-38
-35
-33
-29
-27
-23
-19
-15
