-2.5126763e-01 -9.4640492e-02 -1.6883775e-01 -2.3279028e-02 -1.4988719e-01 5.0932540e-02 -1.1111936e-01 1.4957938e-01 7.8461804e-02 3.1652765e-01 -2.6843317e-02 6.7938140e-02 -2.1859707e-01 1.7480174e-01 -5.2455184e-01 1.0231835e+00 2.6442897e+00 -3.2185125e-02 2.0278810e-01 -1.3998865e-01 7.1281616e-02 -1.4411409e-02 1.3885256e-01 1.2548255e-01 2.8130803e-01 3.8331414e-01 6.1312369e-01 7.8261310e-01 8.6678271e-01 4.5341955e-01 -2.2733745e-03 -1.6999251e-01 -2.0771503e-01 -1.7933592e-01 -1.9470074e-01 -1.4128347e-01 -1.7194927e-01 -9.7591654e-02 -1.4433608e-01 1.8491413e-02 9.5747416e-02 2.4360174e-01 4.2181122e-02 -2.4470317e-02 -2.5352722e-01 -8.1363990e-03 -4.7709906e-01 5.0101662e-01 2.8362786e+00 1.2816071e-01 8.6067967e-02 -2.1016779e-01 1.5738179e-03 -9.8872089e-02 9.3168335e-02 4.9526108e-02 2.1448034e-01 2.4779097e-01 5.7273306e-01 6.7149511e-01 7.9050235e-01 3.4911072e-01 -9.0732173e-03 -2.4149931e-01 -2.0990400e-01 -2.5052126e-01 -1.9056169e-01 -1.8521406e-01 -1.0353225e-01 -1.6834126e-01 -7.7077289e-02 -1.3246462e-01 1.3041338e-01 1.4696971e-01 1.9933662e-01 -8.4349547e-02 -7.9117241e-02 -2.2220822e-01 -4.5125587e-02 -4.4019743e-01 2.6279814e+00 1.1124198e+00 -1.8883258e-01 5.6605419e-02 -1.9240876e-01 4.2562035e-02 -3.8662848e-02 1.1900492e-01 1.2472407e-01 3.0570986e-01 4.1778385e-01 6.8521584e-01 7.1635195e-01 6.0319144e-01 5.6824979e-02 -9.3171819e-02 -2.3388118e-01 -1.5603545e-01 -1.9425508e-01 -8.9542186e-02 -1.7905819e-01 -2.7041455e-02 -1.6449176e-01 -4.1442921e-02 -1.5086684e-01 -1.6776407e-02 -1.3709163e-01 9.8630847e-02 8.9668387e-02 2.9939622e-01 3.7795376e-02 9.1745740e-02 -2.3449716e-01 1.5558343e-01 -5.0608001e-01 8.6326710e-01 2.5765110e+00 2.8218600e-02 1.9333980e-01 -1.5198404e-01 9.5169047e-02 -2.3594480e-02 1.5957803e-01 1.0869225e-01 2.7339294e-01 3.4447913e-01 5.7372400e-01 6.7741558e-01 7.7259761e-01 4.3869996e-01 5.5539018e-02 -1.0302938e-01 -1.1252831e-01 -9.7739661e-02 -7.9938962e-02 -6.3901897e-02 -4.9572890e-02 -2.9461333e-02 -6.2881544e-02 -1.6405539e-02 -5.3846700e-02 -3.6555196e-03 -5.9335098e-02 1.4912218e-01 1.6088897e-01 3.0788466e-01 6.9561751e-02 9.6533877e-02 -1.4114761e-01 2.0861854e-01 -4.5258234e-01 1.1870139e+00 2.4160964e+00 -6.7161189e-02 3.2775388e-01 -1.2679516e-01 1.9632345e-01 6.0138774e-03 2.5466062e-01 1.4538552e-01 4.0674132e-01 3.6924698e-01 6.8963600e-01 7.0863227e-01 8.6202108e-01 3.5031687e-01 1.1439178e-01 -1.2731441e-01 -5.2527341e-02 -1.3150177e-01 8.6280948e-03 -1.1286917e-01 5.1897321e-02 -8.9026276e-02 3.9597699e-02 -7.9537308e-02 7.9275846e-02 1.3273798e-01 3.1854973e-01 1.4442579e-01 1.0246437e-01 -1.1403321e-01 9.3073493e-02 -2.3455217e-01 2.9524867e-01 2.6575257e+00 4.5498028e-01 7.4571161e-02 3.3238491e-02 -2.7880181e-03 9.8411232e-02 8.7351822e-02 2.1509252e-01 2.2121309e-01 4.3982264e-01 5.0720996e-01 7.4057508e-01 7.4116651e-01 5.2090407e-01 1.2291743e-02 -8.8405847e-02 -2.1171272e-01 -8.8262643e-02 -1.7880716e-01 -6.4552429e-02 -1.4601572e-01 -3.7436513e-02 -1.4561525e-01 1.0939848e-01 9.1046645e-02 2.6306188e-01 -7.0389533e-02 1.3134167e-02 -2.4192700e-01 6.7264632e-02 -5.5767942e-01 2.2497460e+00 1.3715905e+00 -2.0569396e-01 9.5802697e-02 -2.0926886e-01 1.0487048e-02 -7.8879686e-02 1.1584048e-01 8.9696877e-02 2.8718988e-01 3.4107901e-01 5.9605441e-01 6.9404479e-01 5.2230065e-01 4.1546767e-02 -1.5895466e-01 -2.5991395e-01 -2.3041847e-01 -2.2380678e-01 -1.8508582e-01 -1.6494477e-01 -1.6984037e-01 -6.5672169e-03 7.8514430e-02 1.7186710e-01 -1.2291273e-01 -9.9831164e-02 -2.3359556e-01 -5.9203367e-02 -5.0740649e-01 2.4828599e+00 1.0769095e+00 -2.6206133e-01 7.6344531e-02 -2.6160810e-01 3.2243710e-02 -1.1164048e-01 1.3453613e-01 8.8158007e-02 3.1583381e-01 3.7702362e-01 6.5300464e-01 6.5119730e-01 5.0596675e-01 -4.3852982e-02 -1.2154920e-01 -3.0680615e-01 -1.3755038e-01 -2.4545948e-01 -1.0919396e-01 -2.3789155e-01 5.3193149e-03 4.1424763e-03 2.7695960e-01 -1.8138696e-02 -6.3669504e-03 -2.8902841e-01 3.5459331e-03 -5.2170343e-01 5.0130159e-01 2.7567176e+00 9.2138979e-02 4.2887302e-02 -2.0287942e-01 -4.0487762e-02 -9.2567818e-02 5.8310314e-02 5.2044307e-02 2.0783926e-01 2.9971741e-01 4.8784930e-01 6.1376867e-01 6.1331657e-01 2.2996739e-01 -1.1778711e-01 -2.4016025e-01 -2.6386501e-01 -2.1693379e-01 -1.9761308e-01 -1.8211369e-01 -1.9895201e-01 -8.2987636e-02 3.2104863e-02 1.6657874e-01 1.1795593e-02 -1.0021163e-01 -2.9216574e-01 -9.2896874e-02 -4.8603925e-01 3.2180947e-01 2.7531178e+00 8.1584599e-02 -3.5541640e-03 -2.8324706e-01 -1.0412421e-01 -1.9974012e-01 -2.5509243e-02 -4.5453656e-02 1.3738763e-01 1.5621195e-01 4.0873786e-01 4.7188984e-01 5.7163255e-01 1.1384905e-01 -1.4950793e-01 -3.6742172e-01 -2.6039006e-01 -3.2338841e-01 -2.0009169e-01 -2.9473942e-01 -1.8043310e-01 -2.7514335e-01 -1.2767162e-01 -2.7883631e-01 -3.1037795e-02 -3.7841769e-02 2.0550714e-01 -9.9883189e-02 -6.4435002e-02 -3.8431676e-01 -9.5672336e-03 -6.8225832e-01 8.3762677e-01 2.3133602e+00 -1.9043174e-01 1.6710329e-02 -3.0420627e-01 -9.1508329e-02 -1.9834896e-01 -1.1127313e-02 -4.1236436e-02 1.3053260e-01 1.7724688e-01 4.1596672e-01 5.0841514e-01 5.4165836e-01 1.5124450e-01 -1.5458273e-01 -2.6634975e-01 -2.4583659e-01 -2.4089326e-01 -2.2837971e-01 -2.0379240e-01 -2.1379247e-01 -1.8635647e-01 -2.0063550e-01 -1.7511912e-01 -1.7388589e-01 -1.5752923e-01 -1.5446856e-01 1.7869649e-02 7.4084386e-02 1.6407944e-01 -7.2977403e-02 -7.8001083e-02 -2.4175436e-01 -1.6227418e-02 -5.4360514e-01 2.2246531e+00 1.1628573e+00 -2.5080479e-01 6.8131456e-02 -2.6903415e-01 1.8289010e-02 -1.3442701e-01 8.7944976e-02 1.5053277e-02 2.5131475e-01 2.5556390e-01 5.0791053e-01 5.3132626e-01 5.0780553e-01 -1.6983343e-02 -1.5249685e-01 -3.0178272e-01 -2.0358116e-01 -2.4457319e-01 -1.6725655e-01 -2.3604840e-01 -1.6447866e-01 -2.0724117e-01 -1.4531204e-01 -1.9389856e-01 -1.2093628e-01 -1.5287555e-01 4.3907950e-02 5.6085198e-02 1.5425768e-01 -1.2123570e-01 -8.3747527e-02 -2.0581044e-01 -9.5023949e-02 -3.3899525e-01 2.5345591e+00 6.1245458e-01 -1.1148604e-01 -1.3499584e-02 -1.2575603e-01 -3.5845383e-02 -2.1185445e-02 8.1177443e-02 1.4179949e-01 2.6177187e-01 3.8902449e-01 5.7607546e-01 7.1033018e-01 4.2839425e-01 3.7084369e-03 -2.0330192e-01 -2.1473884e-01 -2.3642870e-01 -2.2714382e-01 -2.0981341e-01 -2.0818815e-01 -1.4835856e-01 -1.8852256e-01 -1.5061324e-01 -2.9441551e-02 1.0460970e-01 1.0072822e-01 -1.2690528e-01 -1.7715008e-01 -1.9383346e-01 -2.4365572e-01 -1.9646872e-01 2.6581302e+00 4.1832393e-01 -1.2153410e-01 -1.1387113e-01 -1.6465118e-01 -7.9524712e-02 -5.6129931e-02 6.3231999e-02 1.1875265e-01 2.3809268e-01 4.0004026e-01 6.2628926e-01 6.5621535e-01 3.8558324e-01 -8.3892840e-02 -2.4214708e-01 -2.8216720e-01 -2.5779014e-01 -2.7417348e-01 -2.0238350e-01 -2.4002372e-01 -1.8222370e-01 -2.2405342e-01 -1.1782009e-01 -3.4463512e-02 1.2587554e-01 5.1100171e-02 -9.2395428e-02 -2.5799508e-01 -9.4510034e-02 -4.7075163e-01 3.8557220e-01 2.6718614e+00 -3.9940471e-03 3.3389860e-02 -2.3747052e-01 -4.4464552e-02 -1.4681515e-01 7.0164981e-02 -1.6058335e-02 2.2330592e-01 2.3429304e-01 5.1585483e-01 5.9870567e-01 7.3428969e-01 2.4663136e-01 -4.4131186e-02 -2.5808912e-01 -1.7300043e-01 -2.8281920e-01 -1.1795208e-01 -2.3807762e-01 -8.5346174e-02 -1.8774447e-01 -3.8214198e-02 -2.1223338e-01 1.1179244e-01 5.2244266e-02 3.5027328e-01 -4.8585181e-02 6.9203296e-02 -2.7723387e-01 1.7098253e-01 -6.8171154e-01 1.8688487e+00 2.1525401e+00 -1.7925537e-01 2.1957341e-01 -1.9403120e-01 1.3295598e-01 -3.3247480e-02 2.0683625e-01 1.2333244e-01 3.4244743e-01 3.9453716e-01 6.3916821e-01 7.1099542e-01 6.7138110e-01 1.6501963e-01 -6.1419296e-02 -1.7524015e-01 -1.4802998e-01 -1.7051209e-01 -8.1876272e-02 -1.0930158e-01 -6.3160111e-02 -8.0815329e-02 -7.6097514e-02 -6.0249914e-02 -6.2997577e-02 -5.4982804e-02 -4.5293677e-02 1.2417115e-01 2.3093754e-01 2.4069570e-01 1.4207142e-02 -4.1642087e-02 -1.1316788e-01 -4.6361143e-02 -3.2185941e-01 2.6785181e+00 9.9367330e-01 -1.0413459e-01 5.4699608e-02 -1.4059790e-01 2.5370978e-02 -2.0250036e-02 1.1817451e-01 9.6083169e-02 2.9724274e-01 3.5386042e-01 5.7410794e-01 6.0836588e-01 4.7598938e-01 -6.4723407e-03 -1.7155602e-01 -2.7166462e-01 -2.2352150e-01 -2.3586642e-01 -2.0474357e-01 -1.9565865e-01 -1.7514701e-01 -2.2535719e-01 -1.5620536e-01 -2.0421516e-01 -1.8646138e-01 -1.8700786e-01 -1.6424689e-01 -1.9665920e-01 -1.5205307e-01 -1.4756781e-01 5.7552834e-02 3.5236899e-02 6.8942516e-02 -1.1064853e-01 -1.3734105e-01 -2.0902660e-01 -2.0780751e-01 -3.4078749e-01 2.5385882e+00 7.3936187e-01 -1.5831903e-01 -8.9994693e-02 -2.1172226e-01 -7.8070829e-02 -1.0661446e-01 2.6138772e-03 2.3295323e-02 1.4786492e-01 2.6620391e-01 4.3025367e-01 5.0029169e-01 3.8325171e-01 -3.5693446e-02 -2.3194832e-01 -2.9949133e-01 -2.7076976e-01 -2.7120011e-01 -2.2535205e-01 -2.2926869e-01 -2.0442000e-01 -2.2481978e-01 -2.0829721e-01 -2.3196857e-01 -1.7237949e-01 -2.3348591e-01 -1.5367719e-01 -2.5811740e-01 -8.6361926e-02 -1.8137681e-02 7.4323257e-02 -4.3052883e-02 -9.6021378e-02 -3.0254542e-01 -6.8913578e-02 -4.8073811e-01 2.4079106e-01 2.5513773e+00 8.1266846e-02 -6.2114213e-03 -2.4261875e-01 -1.2479670e-01 -1.9292186e-01 -3.5128178e-02 -7.5620156e-02 9.5972701e-02 1.2645369e-01 3.3266750e-01 4.4129749e-01 5.3296284e-01 2.2728042e-01 -1.3782295e-01 -3.5018221e-01 -3.4029163e-01 -3.5135877e-01 -3.3153181e-01 -3.0371114e-01 -3.1240172e-01 -2.9071154e-01 -2.9126971e-01 -2.9909846e-01 -2.8494615e-01 -2.9255982e-01 -2.8889290e-01 -2.4292858e-01 -3.1159803e-01 -1.7258061e-01 -1.0780263e-01 2.4037830e-02 -1.4620710e-01 -1.7237850e-01 -4.0313959e-01 -1.3173826e-01 -6.5030005e-01 5.6860484e-01 2.2804869e+00 -2.4919975e-01 1.5116939e-02 -4.0557344e-01 -7.8656091e-02 -2.9010284e-01 -2.3971184e-02 -1.2489517e-01 1.0461471e-01 1.0143849e-01 4.3213199e-01 4.2630708e-01 5.8094440e-01 1.2615937e-01 -1.1023251e-01 -4.1235929e-01 -2.7313121e-01 -4.4658735e-01 -2.9162991e-01 -4.0926822e-01 -2.4069572e-01 -4.0165207e-01 -2.4132243e-01 -3.8952730e-01 -2.0048783e-01 -3.5444728e-01 -7.1871872e-02 -2.1505902e-01 1.0642413e-01 -2.4203987e-01 -4.9375511e-02 -4.5712280e-01 2.1155163e-02 -7.5704302e-01 1.1887036e+00 2.0535306e+00 -3.3330925e-01 4.2080921e-02 -3.0412570e-01 -7.2865943e-02 -1.8204419e-01 1.7714113e-02 -1.4162878e-02 1.5702193e-01 2.8051431e-01 4.6555185e-01 6.0144825e-01 5.8261933e-01 1.7629329e-01 -1.5191410e-01 -2.6267994e-01 -3.0208301e-01 -2.4754125e-01 -2.4165184e-01 -2.0824208e-01 -2.3464660e-01 -1.7635383e-01 -2.1860015e-01 -9.2122785e-02 -3.7580367e-02 1.2320605e-01 -2.4661815e-03 -3.6172781e-02 -2.6065750e-01 -4.0801132e-02 -4.3562134e-01 4.4418805e-01 2.6197120e+00 7.2565012e-02 3.0265406e-02 -1.9348602e-01 -7.5339066e-02 -1.0389336e-01 2.3237582e-02 3.2269489e-02 1.8445986e-01 2.7202334e-01 4.9099400e-01 6.3173867e-01 6.7002449e-01 2.7811200e-01 -1.2783213e-01 -2.5842039e-01 -3.1340180e-01 -2.5673636e-01 -3.0355155e-01 -2.2778594e-01 -2.6399477e-01 -2.1229197e-01 -2.5928335e-01 -5.2097679e-02 -4.8564624e-02 1.1572813e-01 -1.8495390e-01 -1.5355966e-01 -3.6616058e-01 -8.2456116e-02 -7.0438683e-01 2.0986856e+00 1.3283719e+00 -3.7418548e-01 6.0459906e-03 -3.6566252e-01 -6.8896765e-02 -1.9531440e-01 2.2711874e-02 -4.9393998e-02 2.1191930e-01 2.5892535e-01 5.0587707e-01 5.6745719e-01 4.1322993e-01 -1.3818724e-01 -2.7095420e-01 -4.0338271e-01 -3.4118378e-01 -3.4218181e-01 -3.0230698e-01 -2.7978357e-01 -2.7368312e-01 -2.5506481e-01 -2.6825164e-01 -1.5456840e-01 -5.7433809e-02 6.4083693e-02 -7.2683035e-02 -1.8038919e-01 -3.3841770e-01 -1.2217726e-01 -6.2577104e-01 6.6297222e-01 2.3183095e+00 -2.2197710e-01 2.9394209e-02 -3.8843294e-01 -8.0183033e-02 -2.8762069e-01 -1.8941907e-02 -1.3433435e-01 1.3522376e-01 8.3014572e-02 4.3936888e-01 4.4352795e-01 5.4188946e-01 -2.6489994e-02 -2.2233882e-01 -4.6366098e-01 -3.5457393e-01 -4.7202801e-01 -3.0629648e-01 -4.3393013e-01 -2.7841798e-01 -3.9944612e-01 -2.5490298e-01 -4.1414144e-01 -2.1287163e-01 -4.0906402e-01 -1.1185670e-01 -1.9575252e-01 7.7761265e-02 -2.4193536e-01 -1.1411400e-01 -4.6421099e-01 -6.6774649e-02 -7.2153563e-01 7.1148399e-01 2.2517564e+00 -2.2622088e-01 -5.4980093e-02 -3.2087571e-01 -1.6064905e-01 -2.0296335e-01 -6.5386462e-02 -8.6618023e-02 1.0039570e-01 1.7529151e-01 3.9349330e-01 5.5049395e-01 5.0054135e-01 1.2813625e-01 -2.3114428e-01 -3.7376800e-01 -3.7926698e-01 -3.6118989e-01 -3.6240897e-01 -2.8108253e-01 -3.4254208e-01 -2.5229716e-01 -3.2532987e-01 -2.4049700e-01 -2.8383967e-01 -2.2876714e-01 -2.7729001e-01 -1.8001970e-01 -2.7829312e-01 -6.9483768e-03 -6.3374136e-02 1.4151405e-01 -1.5472891e-01 -3.2055067e-02 -3.2626817e-01 4.6121844e-02 -6.6001698e-01 1.2268372e+00 2.1608056e+00 -2.6558601e-01 1.2698548e-01 -3.0819356e-01 1.2408825e-02 -1.4613537e-01 6.9093380e-02 -7.1130715e-03 2.1617039e-01 2.4007362e-01 5.4656132e-01 5.7672702e-01 6.5947238e-01 1.3068376e-01 -1.1640659e-01 -3.4663410e-01 -2.5836148e-01 -3.4077750e-01 -2.3763122e-01 -2.8117157e-01 -1.9836712e-01 -2.7114952e-01 -1.9968472e-01 -2.7632481e-01 -1.8608038e-01 -2.6173360e-01 -1.8101074e-01 -2.4373409e-01 -1.5237686e-01 -2.3874149e-01 -1.1387389e-01 -2.1953827e-01 -8.7228011e-02 -2.1346648e-01 2.8970875e-02 -5.2281776e-03 1.3080073e-01 -1.3383494e-01 3.2003277e-02 -3.1059385e-01 9.7305149e-02 -6.3319072e-01 1.3728623e+00 2.0066072e+00 -2.0886227e-01 1.5155476e-01 -2.6658540e-01 1.9669155e-02 -1.4435196e-01 8.5939580e-02 -2.6023484e-02 2.4045296e-01 2.0992650e-01 5.1538914e-01 5.6202468e-01 6.8212044e-01 2.0118765e-01 -9.0674209e-02 -3.1933035e-01 -2.5439511e-01 -3.3957198e-01 -2.1401408e-01 -2.8237921e-01 -1.8616928e-01 -2.5060139e-01 -2.0280226e-01 -2.5922290e-01 -1.8084226e-01 -2.6036424e-01 -1.7637180e-01 -2.6398855e-01 -1.9183573e-01 -2.3734972e-01 -1.5703207e-01 -2.4712324e-01 -1.2324851e-01 -2.5442427e-01 -6.4346580e-02 -5.8660636e-02 8.5943033e-02 -1.5436201e-01 -2.8223511e-02 -3.1454038e-01 -1.3812738e-02 -5.4281306e-01 6.4601761e-01 2.4246187e+00 -4.8713898e-02 1.5281758e-02 -2.5731258e-01 -8.4822555e-02 -1.6120560e-01 -1.7481092e-02 -3.6548253e-02 1.2193583e-01 1.6900691e-01 4.3073142e-01 5.5534966e-01 6.5020726e-01 2.8043637e-01 -1.4694447e-01 -3.6615096e-01 -3.7662302e-01 -4.1708697e-01 -3.7146165e-01 -3.6205909e-01 -3.2632394e-01 -3.2247541e-01 -3.0498894e-01 -3.0433116e-01 -2.7917171e-01 -2.8613745e-01 -2.6605465e-01 -2.7255046e-01 -2.4002596e-01 -2.6426561e-01 -2.1690819e-01 -2.3640459e-01 -1.8592765e-01 -5.0017946e-02 2.0048517e-02 -4.0985630e-02 -1.2160426e-01 -2.2038290e-01 -1.4912478e-01 -3.1541401e-01 -4.4535140e-02 2.5058622e+00 3.4630024e-01 -8.7676367e-02 -1.7377845e-01 -1.6263947e-01 -1.2915168e-01 -8.5531736e-02 -3.8466270e-02 5.1427127e-02 1.6841572e-01 3.4951773e-01 5.3842027e-01 6.8653946e-01 4.1763218e-01 -7.1404532e-02 -2.9626052e-01 -3.6639124e-01 -3.7912235e-01 -3.3046152e-01 -3.3729746e-01 -2.9168289e-01 -2.6107526e-01 -2.5292809e-01 -2.6994709e-01 -2.4889637e-01 -2.2733668e-01 -2.1337151e-01 -2.3396401e-01 -1.9306594e-01 -2.1816535e-01 -1.8466585e-01 -1.7314127e-01 -1.6008972e-01 -1.7915664e-01 -1.0511268e-01 -1.3622186e-02 9.1907935e-02 -1.9870629e-03 -4.9523167e-02 -1.5536633e-01 -1.3255670e-01 -1.9243406e-01 -1.5999457e-01 2.4961341e+00 5.8087141e-01 -1.1627402e-01 -6.4338523e-02 -1.7554172e-01 -4.8554980e-02 -8.4344972e-02 4.1966132e-02 5.8450798e-02 2.1758664e-01 3.4521119e-01 6.1932675e-01 6.8794503e-01 5.5337324e-01 1.0979319e-02 -2.3205016e-01 -3.5017568e-01 -3.1294804e-01 -3.4477535e-01 -2.8343369e-01 -2.9930818e-01 -2.2761576e-01 -2.8576676e-01 -2.0904068e-01 -2.7722746e-01 -1.7931000e-01 -2.5842104e-01 -1.6686581e-01 -2.5031733e-01 -1.2633194e-01 -2.1558048e-01 -1.1493091e-01 -2.2088808e-01 -1.1650141e-02 -2.9886613e-02 1.3471663e-01 -1.3052903e-01 3.0294018e-02 -2.9178357e-01 1.4424559e-01 -6.2059389e-01 1.2942963e+00 2.1549991e+00 -2.5325703e-01 1.5518316e-01 -2.4397394e-01 5.1620275e-02 -1.5100210e-01 9.9254378e-02 1.6206490e-02 2.4855504e-01 2.6687430e-01 5.6528747e-01 6.5485970e-01 7.8652765e-01 2.9565195e-01 -6.9891953e-02 -3.2317425e-01 -2.9539519e-01 -3.6187327e-01 -2.7980686e-01 -2.9643564e-01 -2.3609630e-01 -2.6348732e-01 -2.2341975e-01 -2.4868661e-01 -2.0950539e-01 -2.3805364e-01 -1.8733111e-01 -2.2494809e-01 -1.7018614e-01 -1.8939997e-01 -1.3042410e-01 -1.8924669e-01 -9.3635628e-02 -2.4301104e-02 9.8362016e-02 1.2935952e-02 -4.2974100e-02 -1.6686965e-01 -8.2997818e-02 -2.7795752e-01 9.4360027e-02 2.6171808e+00 4.1405452e-01 -4.5295214e-02 -1.2010204e-01 -7.8465410e-02 -4.5901627e-02 -1.7937835e-02 5.0792678e-02 1.3313386e-01 2.4918332e-01 4.4567726e-01 6.3222644e-01 7.8004137e-01 5.3225171e-01 2.9126543e-02 -2.2897362e-01 -3.2906831e-01 -3.2048555e-01 -3.0954839e-01 -2.9744198e-01 -2.7001907e-01 -2.5225932e-01 -2.4395327e-01 -2.2788525e-01 -2.3644756e-01 -2.2377461e-01 -2.0882063e-01 -2.1311338e-01 -1.8989747e-01 -1.7993880e-01 -1.8492495e-01 -1.5088485e-01 -1.5970548e-01 -1.0647155e-01 -1.8991971e-02 6.9175503e-02 6.7261392e-02 -5.7149663e-02 -5.7167340e-02 -1.2714073e-01 -1.1504495e-01 -2.0324159e-01 2.5748481e+00 6.6026807e-01 -1.5491947e-01 -1.1831597e-02 -1.5387738e-01 -9.9911657e-03 -6.2435322e-02 8.2563307e-02 1.1835729e-01 2.7105690e-01 3.8069391e-01 6.0894480e-01 7.6410490e-01 6.2562458e-01 1.2274690e-01 -2.1116681e-01 -2.9425025e-01 -2.9870858e-01 -3.0062999e-01 -2.6380273e-01 -2.2196642e-01 -2.4992036e-01 -1.9708444e-01 -2.2424137e-01 -1.9491153e-01 -2.0214643e-01 -1.7987815e-01 -1.8742318e-01 -1.6761971e-01 -1.7454342e-01 -1.1755517e-01 -1.6295682e-01 2.7752360e-03 6.4683336e-02 1.1672059e-01 -7.9097150e-02 -4.2758796e-03 -2.5758018e-01 6.2676515e-02 -6.3290426e-01 1.9673986e+00 1.6511216e+00 -2.5986748e-01 1.5544358e-01 -2.9858638e-01 6.7178378e-02 -1.4925102e-01 1.2058937e-01 -4.9626388e-03 2.5272433e-01 2.5166069e-01 6.1097883e-01 6.3445540e-01 7.6065032e-01 1.9028036e-01 -1.1883773e-01 -3.3954974e-01 -2.8127539e-01 -3.4855653e-01 -2.3000057e-01 -3.4179493e-01 -1.8592642e-01 -2.9436392e-01 -1.4645623e-01 -2.5797238e-01 -1.3281031e-01 -2.5024662e-01 -1.0119157e-01 -2.2425583e-01 -8.0742467e-02 -2.1854297e-01 4.7885141e-02 -6.9899901e-03 1.8335672e-01 -1.2582036e-01 9.4770304e-02 -2.8709895e-01 1.3789666e-01 -6.0986606e-01 1.8035339e+00 1.7054710e+00 -1.9929323e-01 1.3953445e-01 -2.2246079e-01 7.8009671e-02 -7.2204941e-02 1.2104408e-01 5.3006702e-02 2.4871747e-01 3.0551389e-01 6.2017415e-01 7.0202872e-01 7.3459321e-01 2.0897241e-01 -9.7235833e-02 -2.6243482e-01 -2.7778471e-01 -2.7227814e-01 -2.4691872e-01 -2.5490591e-01 -1.8302740e-01 -2.1701945e-01 -1.7005464e-01 -2.0073890e-01 -1.8668528e-01 -1.8292411e-01 -1.4586966e-01 -1.8238162e-01 -7.7807718e-02 1.8101107e-04 1.1419276e-01 -1.2949023e-02 -6.5143992e-02 -2.1776528e-01 -7.8788777e-02 -3.6473383e-01 1.9054981e-01 2.6093615e+00 2.0088990e-01 -2.3140959e-02 -1.7421700e-01 -5.9708239e-02 -1.3129256e-01 1.1107281e-02 8.8984480e-03 1.3950429e-01 2.2148403e-01 4.5856176e-01 6.0607429e-01 7.8897887e-01 4.0250976e-01 -1.7582272e-03 -2.9746780e-01 -2.7079148e-01 -3.4234767e-01 -2.4502973e-01 -3.0091760e-01 -1.9216495e-01 -2.7402228e-01 -1.5166222e-01 -2.5331452e-01 -1.2598234e-01 -2.5102852e-01 1.7291010e-02 -5.4889651e-02 1.2974546e-01 -1.3310637e-01 4.6916859e-04 -3.5013775e-01 6.5378988e-02 -6.8716295e-01 1.1732877e+00 2.2219007e+00 -2.4305106e-01 1.3144239e-01 -2.9947966e-01 3.7798808e-02 -1.5463742e-01 7.4914716e-02 1.2589081e-02 2.1719378e-01 2.6782973e-01 5.8011248e-01 6.7926206e-01 7.5745562e-01 1.9830116e-01 -8.5439532e-02 -2.9445700e-01 -2.7786579e-01 -2.9843032e-01 -2.3652982e-01 -2.4808017e-01 -1.8511155e-01 -1.9987571e-01 -1.7329741e-01 -1.8933082e-01 -1.5872534e-01 -1.5102367e-01 -1.5227739e-01 -4.7377593e-02 3.6346843e-02 9.6658156e-02 4.4975914e-02 -7.3943713e-02 -1.8180827e-01 -8.3943378e-02 -3.2206045e-01 1.8463160e-01 2.6340453e+00 2.2945843e-01 5.8789796e-02 -1.7564877e-01 -2.1255040e-02 -1.0391428e-01 6.5787046e-02 6.7470054e-03 1.9458512e-01 2.2273892e-01 4.9197694e-01 6.1137466e-01 7.8175956e-01 3.9011646e-01 1.0601602e-02 -2.6946554e-01 -2.3833778e-01 -3.0428269e-01 -2.0842556e-01 -2.7304024e-01 -1.5365034e-01 -2.4722715e-01 -1.2619526e-01 -2.3228138e-01 -1.2918128e-01 -2.2963667e-01 -9.1326418e-02 -2.1384352e-01 -1.0241531e-01 -1.8841364e-01 8.9742560e-02 -7.4708632e-03 1.9577422e-01 -1.5272895e-01 1.0238310e-02 -3.2131299e-01 1.0213355e-01 -6.6029768e-01 1.9074048e+00 1.6019795e+00 -2.4655899e-01 1.1240265e-01 -2.4984079e-01 1.8396067e-02 -1.1850213e-01 7.5814036e-02 3.4628568e-02 2.3006263e-01 2.8785538e-01 5.3727710e-01 6.7196525e-01 6.9065634e-01 1.6497403e-01 -1.3529387e-01 -3.0552014e-01 -2.7079213e-01 -2.7542419e-01 -2.2682089e-01 -2.3728850e-01 -1.9210275e-01 -2.1045976e-01 -1.8989388e-01 -1.7855382e-01 -2.0015450e-01 -1.8170849e-01 -1.6910171e-01 -1.9497095e-01 -1.5568885e-01 -1.6499028e-01 -1.5544184e-01 -1.5918372e-01 -1.5030367e-01 -1.3756406e-01 -1.1820117e-01 1.4745754e-02 7.2691333e-02 2.8100233e-02 -7.8426160e-02 -6.5249999e-02 -1.7321952e-01 -6.5151852e-02 -3.6111615e-01 2.4535268e+00 8.9105975e-01 -1.8004815e-01 2.3927997e-03 -2.0513811e-01 -3.0856067e-02 -9.6677133e-02 7.8317569e-02 3.7148329e-02 2.1642399e-01 2.8168318e-01 5.6484811e-01 6.7319075e-01 6.2227798e-01 7.5215987e-02 -2.1533088e-01 -3.5151448e-01 -2.9360998e-01 -3.3397365e-01 -2.7038505e-01 -3.1194052e-01 -2.4612331e-01 -2.5519913e-01 -2.4392161e-01 -2.3987964e-01 -2.4163162e-01 -2.3929360e-01 -2.1194217e-01 -2.0312609e-01 -2.1208417e-01 -1.3669157e-01 -1.8347181e-02 5.2721923e-02 -7.6145677e-02 -7.0911128e-02 -2.3998510e-01 -4.9818531e-02 -4.0465790e-01 3.5341173e-01 2.6052586e+00 4.1780285e-02 5.5357286e-02 -2.3526888e-01 -5.5976311e-02 -1.5898884e-01 4.1381273e-02 -5.2607956e-02 1.7822087e-01 1.8611999e-01 4.9083935e-01 5.8160807e-01 8.0187874e-01 3.5196128e-01 -3.1017684e-02 -3.1280540e-01 -2.9225285e-01 -3.8996837e-01 -2.6841919e-01 -3.5172347e-01 -2.1837250e-01 -3.1856044e-01 -1.7907131e-01 -3.2197077e-01 -1.7422267e-01 -3.0562142e-01 -1.6475552e-01 -2.9128226e-01 -1.5714542e-01 -2.6324694e-01 -1.3182326e-01 -2.6337135e-01 -9.1754334e-02 -2.5314769e-01 1.6833710e-02 -5.3961523e-02 1.2910366e-01 -1.8840670e-01 1.4886163e-02 -3.7458645e-01 9.4784761e-02 -6.9770303e-01 1.5572967e+00 1.8797740e+00 -2.5596560e-01 6.8430466e-02 -3.0399121e-01 -4.5511585e-03 -1.7023856e-01 1.4590379e-02 -2.0788584e-02 1.3265043e-01 2.2356791e-01 4.7909469e-01 6.0140150e-01 6.8354908e-01 2.5469017e-01 -1.1663247e-01 -3.1141369e-01 -3.2431052e-01 -3.3487785e-01 -2.9777229e-01 -2.6366628e-01 -2.6974272e-01 -2.5374672e-01 -2.4366141e-01 -2.1886420e-01 -2.4628704e-01 -2.1177752e-01 -2.6101166e-01 -1.8830295e-01 -2.2786346e-01 -1.7916124e-01 -2.3113333e-01 -1.5298632e-01 -2.3489709e-01 -1.3281285e-01 -2.2522443e-01 -1.1216355e-02 -3.8069026e-02 8.2598019e-02 -1.6078923e-01 -3.9352030e-02 -3.4540380e-01 5.3223634e-02 -7.0074260e-01 1.5416625e+00 1.8492343e+00 -2.8599312e-01 7.4017163e-02 -3.2150336e-01 -3.1724191e-02 -1.9680358e-01 1.9250553e-02 -5.9536543e-02 1.6114881e-01 1.8068264e-01 4.8497347e-01 5.7261104e-01 6.7490267e-01 2.2922139e-01 -1.1614142e-01 -3.7176251e-01 -3.4307600e-01 -3.7216501e-01 -3.2882602e-01 -3.3063956e-01 -2.5507614e-01 -3.0824473e-01 -2.5581351e-01 -2.6969134e-01 -2.5874134e-01 -2.5442927e-01 -2.2890399e-01 -2.4892212e-01 -2.1449177e-01 -2.1606497e-01 -1.9712321e-01 -1.7941145e-01 -1.9233506e-01 -1.1076586e-01 -1.5283702e-02 4.7896163e-02 -3.2924988e-02 -6.6445137e-02 -1.9729071e-01 -7.1582779e-02 -3.3891686e-01 2.2531158e-01 2.5852705e+00 2.0216452e-01 2.0563015e-02 -1.7497590e-01 -6.0866707e-02 -1.0028544e-01 1.3390358e-02 2.1287070e-03 1.4233856e-01 2.0807439e-01 4.4130538e-01 5.7078204e-01 7.6777553e-01 4.9196955e-01 3.7807671e-02 -2.5811087e-01 -3.3428804e-01 -3.3487024e-01 -3.2167045e-01 -3.1591045e-01 -2.6445775e-01 -2.8182012e-01 -2.4897974e-01 -2.5941871e-01 -2.5505894e-01 -2.3853582e-01 -2.5582080e-01 -2.0443118e-01 -2.4269035e-01 -2.0804535e-01 -2.1589535e-01 -1.8201123e-01 -2.0644310e-01 -1.4701154e-01 -1.9400572e-01 -2.6724072e-02 -2.3049043e-03 7.8274362e-02 -1.3565504e-01 -3.0713906e-02 -3.0277621e-01 4.8611052e-02 -6.4613437e-01 1.5228688e+00 1.8981907e+00 -2.7132749e-01 1.3023277e-01 -3.3310515e-01 3.6725701e-02 -1.9475718e-01 6.9703341e-02 -3.1159349e-02 1.9652101e-01 2.0236097e-01 5.0513021e-01 5.6043661e-01 7.6893231e-01 2.7518027e-01 -5.1494587e-02 -3.3966853e-01 -2.7767931e-01 -3.6618259e-01 -2.3728685e-01 -3.1576874e-01 -2.0229267e-01 -2.9021418e-01 -1.9492298e-01 -2.8562051e-01 -1.8753157e-01 -2.7641419e-01 -1.8091913e-01 -2.4668709e-01 -1.7600544e-01 -2.4623528e-01 -1.5169787e-01 -2.1861680e-01 -1.3211618e-01 -1.8081136e-01 2.6031517e-02 3.5139275e-02 1.5510914e-02 -1.2071359e-01 -1.1583874e-01 -2.0625450e-01 -1.2737519e-01 -2.5077366e-01 2.5069787e+00 6.3075350e-01 -8.1103617e-02 -9.8237752e-02 -1.4455735e-01 -8.9149221e-02 -4.4577300e-02 6.6011881e-03 8.2491659e-02 1.5832389e-01 3.4866598e-01 5.0302811e-01 7.1179803e-01 5.6419576e-01 1.1355808e-01 -2.3309843e-01 -3.2776710e-01 -3.5397739e-01 -3.2805305e-01 -3.0469666e-01 -2.6502930e-01 -2.9197516e-01 -2.4456793e-01 -2.6586332e-01 -2.1748830e-01 -2.5365649e-01 -2.1068172e-01 -2.3500736e-01 -1.9347963e-01 -2.0898272e-01 -1.5481712e-01 -1.9635629e-01 -1.4751805e-01 -1.2473750e-01 1.2120313e-02 4.4312490e-02 2.7282333e-02 -1.0235225e-01 -1.2198216e-01 -1.8967938e-01 -1.3987187e-01 -2.1121475e-01 2.5309572e+00 6.6419688e-01 -1.1062334e-01 -7.9190266e-02 -1.4762949e-01 -9.4666012e-02 -5.2167783e-02 2.0908600e-02 7.5840532e-02 1.8850927e-01 3.4718549e-01 5.8107050e-01 7.2524349e-01 6.1125140e-01 1.2342829e-01 -1.9946500e-01 -3.0615794e-01 -2.8854494e-01 -2.9234862e-01 -2.5366263e-01 -2.3324085e-01 -2.2829203e-01 -2.1652704e-01 -2.0106307e-01 -1.8886214e-01 -1.5738187e-01 -1.9748902e-01 -1.3405545e-01 -1.9081665e-01 -1.0037860e-01 -1.4496807e-01 -1.3064625e-02 2.5999368e-02 1.3164383e-01 -6.4503427e-02 3.2021836e-02 -2.2425634e-01 1.0757813e-01 -5.2058048e-01 1.1601052e+00 2.3526738e+00 -1.8271317e-01 2.3296109e-01 -2.4676357e-01 1.1762472e-01 -1.3551096e-01 1.8037814e-01 2.4727214e-02 3.0867322e-01 2.4534139e-01 6.3432240e-01 6.6187337e-01 8.8063441e-01 3.7388817e-01 3.8521148e-02 -2.8497540e-01 -1.9936301e-01 -3.2180764e-01 -1.8942306e-01 -3.0364249e-01 -1.3023295e-01 -2.8078671e-01 -1.1718587e-01 -2.6608728e-01 -1.0789677e-01 -2.8117928e-01 -9.5698029e-02 -2.5911868e-01 -7.4292025e-02 -2.4818539e-01 2.0895495e-02 -6.2442461e-02 1.7610615e-01 -1.7070304e-01 6.6265252e-02 -3.5117176e-01 1.1856940e-01 -6.5960859e-01 1.1386491e+00 2.2818840e+00 -1.5223324e-01 7.4529310e-02 -2.3514748e-01 -5.2051861e-02 -1.2025318e-01 1.0393260e-02 3.3128208e-03 1.6048913e-01 2.3028232e-01 4.5333339e-01 6.3225951e-01 7.0478353e-01 3.7836101e-01 -9.3350033e-02 -2.7249193e-01 -3.4705047e-01 -2.8599240e-01 -3.3013854e-01 -2.3017027e-01 -3.0265622e-01 -2.0778857e-01 -2.5909495e-01 -2.0618817e-01 -2.5493155e-01 -1.9280605e-01 -2.5003832e-01 -1.6136356e-01 -2.5439748e-01 -1.1304920e-01 -2.4631098e-01 6.7995854e-03 -4.2848980e-02 1.1867223e-01 -1.5192896e-01 1.5024605e-02 -3.5311950e-01 1.1855241e-01 -6.6929914e-01 1.5235842e+00 1.9501130e+00 -2.4951734e-01 1.1323054e-01 -2.7414047e-01 -3.7614742e-03 -1.5496398e-01 6.5398777e-02 -5.2656605e-03 1.8942539e-01 2.3730489e-01 4.7626025e-01 6.2626404e-01 7.1662511e-01 2.6461632e-01 -9.2069451e-02 -3.1660651e-01 -3.1130080e-01 -3.1312817e-01 -2.7376836e-01 -2.6965591e-01 -2.4796581e-01 -2.3280573e-01 -2.2427158e-01 -2.2022670e-01 -2.2950639e-01 -1.9039257e-01 -2.0625098e-01 -1.8022364e-01 -1.9956824e-01 -1.4199913e-01 -1.9176259e-01 -2.4023309e-02 -1.2090711e-02 1.1968425e-01 -1.0010492e-01 -5.7067980e-03 -2.5275844e-01 5.1203344e-02 -5.0698775e-01 7.7155751e-01 2.5166256e+00 -8.9526952e-02 1.3185206e-01 -2.3377997e-01 3.4686870e-02 -1.2969984e-01 9.9463198e-02 -1.0017632e-02 2.1780875e-01 2.1711405e-01 5.2589467e-01 6.2244432e-01 7.9895168e-01 4.3234167e-01 4.0740981e-02 -2.6295367e-01 -2.4642749e-01 -2.9621131e-01 -2.1994424e-01 -2.5863299e-01 -1.7111323e-01 -2.3445926e-01 -1.6080866e-01 -2.1073718e-01 -1.5388776e-01 -2.0489708e-01 -1.2326710e-01 -2.0983471e-01 -1.0423005e-01 -1.6211664e-01 5.3916066e-02 3.5601780e-02 1.5397935e-01 -1.3902103e-01 2.5496235e-02 -2.6472864e-01 1.2016858e-01 -6.1515572e-01 1.7797752e+00 1.8942997e+00 -2.5893510e-01 1.9109277e-01 -2.5994683e-01 1.0412044e-01 -1.3649940e-01 1.6618428e-01 1.7040403e-02 3.0437340e-01 2.7767274e-01 6.2201584e-01 6.6937132e-01 8.0559202e-01 2.5628461e-01 -3.0368787e-02 -3.0428026e-01 -2.0475010e-01 -3.0409208e-01 -1.9244796e-01 -2.7082096e-01 -1.2948165e-01 -2.6709409e-01 -1.1188437e-01 -2.4669205e-01 -9.6417866e-02 -2.6891578e-01 -8.4374204e-02 -2.2903979e-01 -8.6255346e-02 -2.0271634e-01 -6.8952837e-02 -2.0327897e-01 1.0740527e-01 1.9686411e-02 1.5807814e-01 -1.4538988e-01 6.0189062e-02 -2.6563233e-01 1.5157109e-01 -6.3523793e-01 1.8135053e+00 1.7990550e+00 -1.7606494e-01 1.1964906e-01 -2.2029510e-01 1.1366356e-02 -6.9978201e-02 8.6009880e-02 5.2854766e-02 2.0721422e-01 2.7628452e-01 5.1719210e-01 6.7438756e-01 7.1263351e-01 3.0586406e-01 -9.6966702e-02 -2.7184001e-01 -2.6652544e-01 -2.7285249e-01 -2.6940351e-01 -2.4467077e-01 -2.5267084e-01 -2.0323217e-01 -2.1907470e-01 -1.9989390e-01 -2.1689359e-01 -1.8577404e-01 -2.1269647e-01 -1.3617132e-01 -1.9135349e-01 -1.2624810e-01 -1.9223456e-01 -8.9171877e-02 -1.8569819e-01 9.9134270e-04 2.8513394e-02 1.4792483e-01 -7.8722960e-02 2.6718074e-02 -2.5731487e-01 1.0603620e-01 -5.1654707e-01 9.3066242e-01 2.4489508e+00 -4.1384342e-02 1.4540595e-01 -2.1200164e-01 2.7053016e-02 -9.8976442e-02 4.9393469e-02 2.3217409e-02 2.1198869e-01 2.1918573e-01 4.9564158e-01 6.0897627e-01 7.7374580e-01 4.4487610e-01 2.2595557e-02 -2.6000785e-01 -2.7330007e-01 -2.8439278e-01 -2.6562756e-01 -2.5876621e-01 -2.3828773e-01 -2.1683104e-01 -2.2370371e-01 -1.9572354e-01 -2.2539414e-01 -1.9761578e-01 -2.2900209e-01 -1.9041904e-01 -2.1288737e-01 -1.6248910e-01 -2.1817479e-01 -7.7678280e-02 -3.8595980e-02 7.4523563e-02 -8.7087960e-02 -3.6664320e-02 -2.4776159e-01 -4.9305290e-02 -3.9054098e-01 3.3901729e-01 2.5746273e+00 9.6203161e-02 5.3787133e-03 -1.9887211e-01 -8.7184234e-02 -1.2975529e-01 -1.7031486e-02 -1.6543856e-02 9.3084650e-02 1.8846346e-01 3.7571923e-01 5.8484344e-01 7.0874219e-01 4.5892522e-01 -1.7490993e-02 -2.8629106e-01 -3.6945574e-01 -3.2700010e-01 -3.1871986e-01 -2.9385682e-01 -2.5428798e-01 -2.3802813e-01 -2.2756998e-01 -1.9280924e-01 -2.2670887e-01 -1.8336798e-01 -2.1916115e-01 -1.3153997e-01 -1.8766846e-01 -1.1378382e-01 -1.6709461e-01 -7.6599517e-02 -1.6860914e-01 3.5495513e-02 4.8937289e-02 1.5650341e-01 -9.9541470e-02 3.8590158e-02 -2.8954190e-01 1.2081111e-01 -6.4088438e-01 1.4496672e+00 2.0960122e+00 -2.6395068e-01 1.5371269e-01 -2.9020640e-01 2.1486980e-02 -1.4381259e-01 6.6829145e-02 -1.5914155e-02 1.7294974e-01 2.3189382e-01 5.1479204e-01 5.9317292e-01 7.4204701e-01 3.3577887e-01 -5.1828235e-02 -2.7217459e-01 -2.8656480e-01 -3.1092804e-01 -2.4948999e-01 -2.8270528e-01 -2.1373202e-01 -2.2231544e-01 -2.0373765e-01 -2.2220387e-01 -1.9752846e-01 -2.0311818e-01 -2.0199456e-01 -1.7475129e-01 -1.8104032e-01 -1.8990385e-01 -1.5120946e-01 -1.5463707e-01 -1.7034156e-01 -6.2199285e-02 7.0160076e-03 1.0033229e-01 -6.3878548e-02 -3.1089768e-02 -2.4630175e-01 -9.4422228e-03 -4.6814621e-01 6.3720819e-01 2.4688293e+00 5.3667050e-04 7.9227593e-02 -2.2735975e-01 -3.5166602e-02 -1.1788068e-01 2.2038031e-02 -8.8797768e-03 1.7630638e-01 1.4644922e-01 4.5878398e-01 5.4681511e-01 7.5021091e-01 4.4029234e-01 5.9094061e-02 -2.9626931e-01 -2.7622908e-01 -3.5343014e-01 -2.5015384e-01 -2.7240550e-01 -2.4623280e-01 -2.3814935e-01 -2.2477599e-01 -2.2778807e-01 -2.1073782e-01 -2.1027070e-01 -1.9722901e-01 -2.0976215e-01 -1.8066300e-01 -1.6828367e-01 -1.8131159e-01 -1.3656563e-01 -1.5722265e-01 1.8280281e-02 5.1780986e-02 1.1048094e-02 -9.9520176e-02 -9.7838275e-02 -2.0069585e-01 -8.7967064e-02 -3.6804687e-01 2.4889490e+00 8.3877834e-01 -1.8556174e-01 9.4588155e-03 -2.1905148e-01 -2.8441837e-02 -7.6306627e-02 5.5974655e-02 7.7741455e-02 2.0776450e-01 3.2188560e-01 5.8020528e-01 7.0387402e-01 6.5601473e-01 1.8268778e-01 -1.7981032e-01 -2.9445410e-01 -2.8139674e-01 -2.9691217e-01 -2.5790506e-01 -2.4516568e-01 -2.3527459e-01 -2.2718921e-01 -2.0414970e-01 -2.0769836e-01 -2.0886081e-01 -1.6523088e-01 -1.6127023e-01 -1.2738776e-01 -1.4797877e-01 -9.7794593e-02 -1.2864002e-01 4.3586596e-02 7.8972092e-02 1.6559956e-01 -4.5654914e-02 6.4594939e-02 -2.2104416e-01 1.4909322e-01 -5.4908768e-01 1.4033329e+00 2.2720412e+00 -1.4101024e-01 2.4240369e-01 -2.1996348e-01 1.3394701e-01 -5.9720642e-02 1.8072415e-01 7.6529635e-02 3.1664801e-01 2.8706794e-01 6.0541748e-01 6.9110384e-01 8.7179168e-01 4.3158686e-01 6.3666805e-02 -2.2162766e-01 -1.7422742e-01 -2.6928031e-01 -1.2992631e-01 -2.2164501e-01 -1.3220022e-01 -2.0031563e-01 -9.4901020e-02 -1.9946238e-01 -1.1403368e-01 -2.0246884e-01 -1.0332793e-01 -1.8142548e-01 -1.1651812e-01 -1.6461950e-01 -1.0840788e-01 -1.4832901e-01 -8.3551838e-02 2.5136390e-02 9.7925359e-02 -7.1464282e-03 -3.7108102e-02 -1.3623725e-01 -1.3197944e-01 -1.8132296e-01 -1.8436892e-01 2.4934967e+00 7.3133261e-01 -1.6469450e-01 -3.9443759e-02 -1.9827021e-01 -2.6497166e-02 -8.4383453e-02 4.2523313e-02 3.1013034e-02 2.2636104e-01 2.8474124e-01 5.7240625e-01 6.5320587e-01 6.0916581e-01 1.1114452e-01 -1.9757126e-01 -3.3965014e-01 -3.1221125e-01 -3.4689577e-01 -2.7477002e-01 -3.0805776e-01 -2.7661692e-01 -2.7929658e-01 -2.7337017e-01 -3.0315939e-01 -2.6957052e-01 -2.9220034e-01 -2.4926227e-01 -2.7530799e-01 -2.6757700e-01 -2.6474674e-01 -2.5250904e-01 -1.6249342e-01 -7.5362092e-02 -3.3569435e-02 -1.5232091e-01 -1.4338855e-01 -3.1726189e-01 -1.2847257e-01 -5.2198505e-01 3.8056803e-01 2.5095412e+00 -1.0532582e-01 -7.3842057e-03 -3.3712768e-01 -1.2368093e-01 -2.5419981e-01 -4.3706468e-02 -1.4160446e-01 1.0434504e-01 6.8510381e-02 3.6786062e-01 4.7140951e-01 6.9599211e-01 3.4726364e-01 -1.6445196e-02 -3.8663325e-01 -3.3132406e-01 -4.4322844e-01 -3.2242108e-01 -4.0120703e-01 -2.8219736e-01 -3.6272102e-01 -2.3592484e-01 -3.4645469e-01 -2.0920099e-01 -3.3074329e-01 -1.8435658e-01 -2.8430070e-01 -1.6226425e-01 -2.4766022e-01 -8.4214502e-02 -6.4678990e-02 1.0269501e-01 -1.2966754e-01 -2.5199385e-02 -3.0553518e-01 1.4988044e-03 -5.2407278e-01 5.1311141e-01 2.5305155e+00 4.8410140e-02 1.7963299e-02 -2.1149240e-01 -8.0534266e-02 -8.7957202e-02 2.2886086e-02 2.2877649e-02 1.3936346e-01 2.1325628e-01 4.2857462e-01 5.9383875e-01 7.3101568e-01 4.6183142e-01 1.2413977e-02 -2.3953611e-01 -2.8627064e-01 -3.0898422e-01 -2.7527006e-01 -2.6468957e-01 -2.2322837e-01 -2.3787375e-01 -1.9702936e-01 -2.3982864e-01 -1.9325305e-01 -1.9814966e-01 -1.7056076e-01 -1.9946324e-01 -1.4273886e-01 -1.9003755e-01 -5.5190419e-03 1.7235265e-02 1.1996929e-01 -1.1862653e-01 -1.7674041e-03 -2.8934094e-01 6.7777418e-02 -6.2461354e-01 1.2406871e+00 2.2636549e+00 -2.2543247e-01 1.6399871e-01 -3.1771246e-01 3.1967542e-02 -1.8863470e-01 8.8884668e-02 -5.4370629e-02 1.9614974e-01 1.5056926e-01 5.0880913e-01 5.1409431e-01 7.5318750e-01 2.5897378e-01 -3.0455274e-02 -3.7677140e-01 -3.1139917e-01 -4.2013823e-01 -2.8109987e-01 -3.9053560e-01 -2.3696856e-01 -3.5501372e-01 -1.9887046e-01 -3.1785171e-01 -1.7118944e-01 -3.0807055e-01 -1.7912566e-01 -2.6573015e-01 -1.3028995e-01 -2.4745321e-01 1.8399608e-02 -5.3521401e-02 4.9149698e-02 -1.9713643e-01 -8.7595768e-02 -3.2722844e-01 -5.0245327e-02 -5.6535965e-01 2.2940458e+00 9.9046261e-01 -2.1750899e-01 -6.5747738e-02 -2.4296553e-01 -9.9112520e-02 -1.2557792e-01 -2.9731829e-02 9.7972778e-03 1.1136043e-01 2.7432959e-01 4.4847981e-01 6.3345081e-01 5.4695428e-01 1.0344792e-01 -2.3158841e-01 -3.5091537e-01 -3.5504975e-01 -3.3789737e-01 -3.1550961e-01 -3.0360904e-01 -3.1735624e-01 -2.8027686e-01 -2.7126029e-01 -2.5890620e-01 -2.8008174e-01 -2.5638582e-01 -2.5905526e-01 -2.5222875e-01 -1.5234482e-01 -4.2892695e-02 -1.3272449e-02 -9.1621722e-02 -1.8147467e-01 -2.4785983e-01 -1.9522199e-01 -3.5514552e-01 -4.9167477e-03 2.5903413e+00 1.9142337e-01 -9.4209811e-02 -2.4981115e-01 -1.3916130e-01 -1.9187362e-01 -5.4559972e-02 -8.0897570e-02 6.9907565e-02 1.1303102e-01 3.6495108e-01 4.8566138e-01 6.7472670e-01 4.1095300e-01 -3.6794273e-03 -3.3016811e-01 -3.1279678e-01 -3.8910803e-01 -3.0533256e-01 -3.5348616e-01 -2.4673336e-01 -3.2459420e-01 -2.1006493e-01 -3.2505033e-01 -1.9566360e-01 -3.0708470e-01 -6.4145221e-02 -1.0882016e-01 7.6087349e-02 -1.3226130e-01 -1.1092061e-01 -3.5166029e-01 -7.6697053e-02 -4.9880830e-01 2.7255130e-01 2.5474721e+00 1.1665032e-01 -6.4374608e-02 -2.2470010e-01 -1.5644319e-01 -1.3451026e-01 -8.0164465e-02 -3.6268190e-03 7.6425350e-02 1.9977692e-01 3.9178324e-01 5.7331746e-01 6.9739700e-01 4.1531660e-01 -7.4888332e-02 -2.6705721e-01 -3.4628287e-01 -3.3071352e-01 -3.0295422e-01 -2.6324737e-01 -2.6461217e-01 -2.3299185e-01 -2.5184147e-01 -1.9901140e-01 -2.2917404e-01 -1.9601474e-01 -1.4641998e-01 1.3439526e-02 2.8374238e-02 2.5296580e-02 -1.5936352e-01 -1.7242871e-01 -1.8894401e-01 -2.4526548e-01 -1.2711027e-01 2.6533776e+00 4.3082886e-01 -6.1902275e-02 -1.6092650e-01 -9.3094028e-02 -1.2734526e-01 -6.1781075e-03 -1.6427723e-02 1.3108385e-01 1.6747505e-01 4.0481236e-01 5.4655395e-01 7.2463264e-01 4.2562399e-01 4.7573541e-02 -2.9396214e-01 -2.7088326e-01 -3.5628057e-01 -2.4861209e-01 -2.7642249e-01 -1.8260315e-01 -2.7083544e-01 -1.6413905e-01 -2.7621977e-01 -1.2080063e-01 -2.4811730e-01 -1.2920726e-01 -2.2470071e-01 2.4161774e-02 -5.9397649e-02 1.6644224e-01 -1.0820650e-01 -1.6733731e-02 -2.9007106e-01 5.5176045e-02 -5.8779514e-01 6.7554978e-01 2.4896830e+00 -6.9279757e-02 -2.4576321e-02 -2.5365646e-01 -1.3002512e-01 -1.4512297e-01 -4.3897348e-02 -2.1508689e-03 8.2733488e-02 1.9368898e-01 3.9875239e-01 6.1130983e-01 6.6744185e-01 3.7199335e-01 -1.0477271e-01 -2.7503802e-01 -3.7340855e-01 -3.0739585e-01 -3.8517988e-01 -2.6359673e-01 -3.1118142e-01 -2.3177026e-01 -3.1971371e-01 -2.1038282e-01 -3.1532504e-01 -1.3598344e-02 -1.2488714e-01 8.2425358e-02 -2.4557408e-01 -1.1182020e-01 -4.3376600e-01 1.2757932e-02 -7.4997792e-01 1.2572011e+00 2.1096395e+00 -3.8522486e-01 5.8389984e-02 -3.6653205e-01 -6.3609016e-02 -2.4275512e-01 7.7825987e-03 -6.5569120e-02 1.3527683e-01 2.0026516e-01 4.8366395e-01 6.2322369e-01 6.6083001e-01 1.5565561e-01 -1.7965699e-01 -3.6714207e-01 -3.4779988e-01 -3.6271691e-01 -3.2871620e-01 -3.1808390e-01 -2.5631940e-01 -3.0540657e-01 -2.7034738e-01 -2.7976713e-01 -2.3194511e-01 -3.6960173e-02 3.9700042e-03 -4.4262920e-03 -2.1198737e-01 -2.2357184e-01 -3.1146909e-01 -1.8087111e-01 -5.5418396e-01 2.4279740e+00 9.6953270e-01 -3.0008566e-01 -6.6881232e-02 -3.2376507e-01 -1.0047782e-01 -1.9635743e-01 -1.6603020e-03 -5.2970290e-02 1.8397098e-01 2.4895818e-01 5.1326615e-01 6.4976712e-01 5.2254675e-01 1.2264717e-02 -2.2408323e-01 -3.2954394e-01 -2.9781022e-01 -3.1335651e-01 -2.6504676e-01 -2.8506465e-01 -2.2198851e-01 -2.2855152e-01 -2.0462474e-01 -2.2770820e-01 -2.0846338e-01 -1.5832187e-01 4.4916876e-02 2.6805418e-02 3.6746225e-04 -1.8849663e-01 -2.0133762e-01 -2.1900815e-01 -2.0534172e-01 -2.9285712e-01 2.6485326e+00 6.8130121e-01 -1.1315179e-01 -8.1501191e-02 -1.9734859e-01 -8.0119503e-02 -8.8118408e-02 3.8184412e-02 3.0248339e-02 2.0264458e-01 2.9921153e-01 5.5490758e-01 6.4247207e-01 4.5416926e-01 -1.9630229e-02 -2.6116819e-01 -3.5710615e-01 -3.0715912e-01 -3.2809530e-01 -2.6696082e-01 -2.8873873e-01 -2.4812334e-01 -2.7640267e-01 -2.5693070e-01 -2.7194029e-01 -2.3392558e-01 -2.5113465e-01 -2.0697221e-01 -2.6255757e-01 -1.8709147e-01 -2.4318595e-01 -1.7301797e-01 -2.1425328e-01 2.4957367e-02 -3.5151321e-02 7.9606212e-02 -1.9942421e-01 -1.1150916e-01 -3.5727271e-01 -2.5526709e-02 -6.3144856e-01 2.1461112e+00 1.3255593e+00 -3.0838488e-01 2.7754975e-02 -3.1197304e-01 -6.6449939e-02 -1.9940263e-01 9.7012823e-03 -5.7400478e-02 1.1853126e-01 1.8677447e-01 4.4141746e-01 5.4029812e-01 5.6614294e-01 1.2053735e-01 -1.4784332e-01 -3.3457743e-01 -2.8383931e-01 -3.3255545e-01 -2.6062043e-01 -2.6630038e-01 -2.3655957e-01 -2.5789737e-01 -1.9294114e-01 -2.4864139e-01 -2.0325977e-01 -2.2886242e-01 -1.8874349e-01 -2.1292141e-01 -1.7216533e-01 -2.0853403e-01 -1.6144724e-01 -1.7206662e-01 -1.4714367e-01 -1.1296903e-01 3.5133313e-02 7.2023411e-02 2.6741391e-02 -4.8970721e-02 -1.1396627e-01 -1.0962599e-01 -1.8984693e-01 -6.9215633e-02 2.5266522e+00 5.3827626e-01 -3.7782065e-02 -8.0360333e-02 -9.3586626e-02 -4.3666373e-02 -4.3264180e-03 6.2718888e-02 9.8427643e-02 1.9503590e-01 3.6322404e-01 5.2185179e-01 6.4803154e-01 5.2578798e-01 8.4863099e-02 -2.0507408e-01 -2.8278145e-01 -2.8768660e-01 -2.7612547e-01 -2.5482970e-01 -2.2691957e-01 -2.4291051e-01 -2.2445274e-01 -2.2375992e-01 -2.2089576e-01 -2.3246363e-01 -2.1483542e-01 -2.0686342e-01 -2.1087640e-01 -1.8813200e-01 -1.9538053e-01 -1.5304411e-01 -3.4659467e-02 4.9376963e-02 -3.7091387e-02 -1.2230363e-01 -1.6065159e-01 -1.6716332e-01 -2.1913489e-01 -1.7501487e-01 2.5427718e+00 5.0256419e-01 -1.3673111e-01 -1.0852812e-01 -1.8994749e-01 -8.7499468e-02 -7.3819718e-02 -8.3034489e-03 4.8995426e-02 1.7711722e-01 3.0048040e-01 5.4620909e-01 6.3364365e-01 5.0701769e-01 3.6245512e-02 -2.3218456e-01 -3.5094372e-01 -3.2405815e-01 -3.3784200e-01 -2.9565052e-01 -2.9602940e-01 -2.4136140e-01 -2.8865773e-01 -2.5095758e-01 -2.8226865e-01 -2.1466465e-01 -2.8997644e-01 -1.9820195e-01 -2.5426182e-01 -1.4753942e-01 -8.3243550e-02 5.7409107e-02 -1.3397503e-01 -8.5322990e-02 -2.6477236e-01 -8.8073901e-02 -4.1291461e-01 1.9403270e-01 2.5714839e+00 1.6875776e-01 -6.1966414e-02 -1.9967937e-01 -1.5107344e-01 -1.2355035e-01 -6.7724562e-02 -1.3090616e-02 8.4142735e-02 1.8463781e-01 3.6367657e-01 5.7433461e-01 6.6927453e-01 4.7507979e-01 -4.2150584e-02 -2.8230090e-01 -3.4730341e-01 -3.1669400e-01 -3.5547192e-01 -2.6216485e-01 -2.9945256e-01 -2.5033871e-01 -2.9800063e-01 -2.1622244e-01 -2.9805502e-01 -2.2072359e-01 -3.1541647e-01 -2.1602490e-01 -2.1673108e-01 1.3000656e-02 -4.6310305e-02 1.4045818e-01 -1.6278238e-01 -5.4514954e-02 -2.9728517e-01 3.1481351e-02 -6.0675642e-01 2.1578710e+00 1.3458462e+00 -2.9369158e-01 1.2175269e-01 -2.6435222e-01 4.2128030e-02 -1.3694385e-01 1.0556954e-01 2.9825025e-02 2.4039695e-01 2.6195331e-01 5.5955785e-01 6.4710588e-01 6.6544107e-01 1.9200113e-01 -1.1749941e-01 -2.5795492e-01 -2.2846345e-01 -2.0477875e-01 -1.8957001e-01 -1.6254187e-01 -1.4076639e-01 -1.4073520e-01 -1.2579255e-01 -1.4777038e-01 -1.2125765e-01 -9.5819047e-02 -1.3592775e-01 8.4636231e-02 1.0280269e-01 1.9390278e-01 -8.8581847e-02 1.0738965e-04 -2.8581162e-01 7.2341231e-02 -6.6741281e-01 1.7007512e+00 2.0942959e+00 -2.5575628e-01 2.0941742e-01 -2.9561681e-01 8.1993130e-02 -1.5182837e-01 1.6253968e-01 -2.4337082e-02 2.8237243e-01 2.0304221e-01 5.7522365e-01 6.0781747e-01 7.6369756e-01 2.2776098e-01 -4.7734687e-02 -3.3081416e-01 -2.0127786e-01 -3.1474172e-01 -1.8037508e-01 -2.6467620e-01 -1.2726192e-01 -2.5823197e-01 -8.9302731e-02 -2.2312633e-01 -9.4222135e-02 -2.0168564e-01 -5.4232989e-02 -2.0722150e-01 6.2714567e-02 4.6537258e-02 2.1793562e-01 8.7671100e-03 -2.2682293e-03 -2.1841117e-01 -5.3299332e-03 -3.4613911e-01 1.5068655e-01 2.5995739e+00 3.9633852e-01 -4.6822780e-02 -8.6877649e-02 -1.3904897e-01 -6.2310045e-02 -6.7547763e-02 4.3361372e-02 5.8375663e-02 2.3053176e-01 3.0257109e-01 5.6497916e-01 6.2358472e-01 5.1301703e-01 -3.2371218e-02 -1.9881431e-01 -3.5450133e-01 -2.5300887e-01 -3.1894327e-01 -2.2046003e-01 -2.8872356e-01 -1.9705111e-01 -2.9535000e-01 -1.7989738e-01 -2.6040539e-01 -1.7946685e-01 -2.8416707e-01 -1.4781616e-01 -2.7103376e-01 -1.2603458e-01 -2.5625827e-01 5.0166997e-02 -8.1633422e-02 1.7024831e-01 -1.7570632e-01 -3.4608556e-02 -3.7427081e-01 7.1010294e-02 -7.3289721e-01 1.4837698e+00 1.9082871e+00 -2.3512693e-01 4.7774642e-02 -2.9315839e-01 -3.7896713e-02 -1.8191615e-01 4.6963868e-03 -3.8072820e-02 1.2877904e-01 1.9249280e-01 4.1142615e-01 5.2069442e-01 5.9882581e-01 2.5823705e-01 -8.3220843e-02 -2.9173378e-01 -3.1004631e-01 -2.9001577e-01 -2.5662542e-01 -2.5940396e-01 -2.2511296e-01 -2.2303174e-01 -2.6072942e-01 -2.3743644e-01 -2.0261158e-01 -2.1882546e-01 -2.0987641e-01 -2.1161303e-01 -2.1711955e-01 -1.0120279e-01 -5.6572587e-02 6.1885869e-02 -7.3127749e-02 -1.3543822e-01 -2.6305385e-01 -1.2544543e-01 -4.1948003e-01 1.5939320e-01 2.4958036e+00 1.7599629e-01 -2.2628886e-02 -2.0809810e-01 -1.2117394e-01 -1.4886265e-01 -3.9684121e-02 1.2047939e-02 1.1514310e-01 1.7880023e-01 3.7878263e-01 5.0115845e-01 6.6463463e-01 4.2222826e-01 9.9169039e-03 -2.4725759e-01 -2.9908056e-01 -2.9153301e-01 -2.6562919e-01 -2.7673052e-01 -2.1721627e-01 -2.6941117e-01 -2.3649975e-01 -2.5523352e-01 -2.2270543e-01 -2.2318498e-01 -1.4493658e-01 -5.2589353e-02 4.2687526e-02 -4.1482632e-03 -1.2860490e-01 -1.9907754e-01 -1.7825655e-01 -2.5486362e-01 -1.7502547e-01 2.5805552e+00 4.5268992e-01 -1.3846792e-01 -1.1628902e-01 -1.8140341e-01 -1.2573066e-01 -6.4749401e-02 4.6557679e-02 4.6326489e-02 1.9401941e-01 3.5481991e-01 5.6332497e-01 6.8831325e-01 4.7320585e-01 2.6481326e-02 -2.3960583e-01 -2.6978898e-01 -2.7321745e-01 -2.3205886e-01 -2.4102664e-01 -2.2587854e-01 -2.0510298e-01 -1.6991235e-01 -1.7769486e-01 -1.0849292e-02 4.9286262e-02 1.0121529e-01 -1.4056430e-01 -1.3005520e-01 -2.4530988e-01 -1.6471330e-01 -3.9365919e-01 2.5906253e+00 7.8631112e-01 -2.5212480e-01 -8.3137268e-02 -2.6871160e-01 -8.2312520e-02 -1.3290555e-01 3.7491215e-02 2.8777075e-02 1.9003884e-01 3.2706112e-01 5.3077647e-01 6.2343755e-01 4.7463059e-01 -3.7645719e-02 -2.2214480e-01 -3.2940527e-01 -3.0795383e-01 -3.0189674e-01 -2.7261497e-01 -2.5103150e-01 -2.6051554e-01 -2.3505339e-01 -2.2639797e-01 -2.2436048e-02 5.4115368e-02 8.0928245e-02 -1.8155526e-01 -2.0216065e-01 -3.0986983e-01 -2.0634079e-01 -4.9620960e-01 2.4793470e+00 8.9748917e-01 -2.5850092e-01 -4.3942547e-02 -2.8052893e-01 -5.1596766e-02 -1.3414600e-01 3.5825615e-02 9.8764632e-03 2.1598732e-01 2.8734085e-01 5.4435702e-01 5.9457663e-01 5.0050315e-01 -2.8033856e-02 -1.9838373e-01 -3.2909388e-01 -2.5918016e-01 -2.9439793e-01 -2.0789307e-01 -2.6097259e-01 -1.7587536e-01 -2.5816440e-01 -1.4077966e-01 -4.9730475e-02 1.1067246e-01 1.7515617e-03 -1.4939675e-01 -3.0256332e-01 -1.8286833e-01 -4.2269945e-01 -5.4084376e-02 2.6346704e+00 3.1347949e-01 -1.1037200e-01 -1.4392442e-01 -1.4258793e-01 -8.5040578e-02 -4.4738820e-02 4.5413360e-02 1.2860978e-01 2.2172307e-01 4.0401288e-01 5.3999724e-01 6.3635824e-01 3.6618989e-01 -5.4701273e-02 -2.4418585e-01 -2.8181783e-01 -2.6668916e-01 -2.3512476e-01 -2.1550119e-01 -1.8607295e-01 -2.1647183e-01 -1.9304381e-01 -2.1972208e-01 -1.4370089e-01 -2.1325417e-01 -4.3601498e-02 2.4315352e-02 1.4469952e-01 -2.7261987e-02 -5.2402851e-02 -2.8839714e-01 -2.8703770e-02 -5.4316502e-01 5.1451670e-01 2.5118884e+00 -4.6178977e-02 6.5405656e-02 -2.8976888e-01 -4.2290347e-02 -1.8215123e-01 3.3499478e-02 -6.2937952e-02 1.4620319e-01 1.5626284e-01 3.9575618e-01 4.6224866e-01 6.0491440e-01 2.2857067e-01 -5.1755984e-02 -3.2155272e-01 -2.4859054e-01 -3.2658036e-01 -2.1407807e-01 -2.8038323e-01 -1.9285938e-01 -2.6749244e-01 -1.8283084e-01 -2.8901511e-01 -1.8725991e-01 -2.8321498e-01 -1.9071127e-01 -2.8755093e-01 -1.7944523e-01 -2.6125818e-01 -1.5676976e-01 -2.3294858e-01 4.0108935e-02 -5.3729763e-02 7.5250301e-02 -2.1562521e-01 -1.1052121e-01 -3.2291953e-01 -7.4136178e-02 -5.6933887e-01 2.2676746e+00 1.0100815e+00 -2.3917438e-01 -3.4599736e-02 -2.6836792e-01 -8.8786005e-02 -1.3391776e-01 -7.3339260e-03 -9.8932477e-03 1.4370693e-01 2.2098068e-01 3.8955197e-01 5.3060260e-01 4.7153232e-01 6.9190676e-02 -2.0682878e-01 -2.9417935e-01 -2.9173475e-01 -2.7227121e-01 -2.4971477e-01 -2.3581832e-01 -2.6137955e-01 -2.0718137e-01 -2.4293099e-01 -2.2371212e-01 -2.4240318e-01 -2.2492271e-01 -2.2446628e-01 -2.0814546e-01 -2.1754614e-01 -1.9854761e-01 -2.2664372e-01 -1.2831339e-01 -6.0264000e-02 1.8421606e-02 -6.2249986e-02 -1.2113897e-01 -1.9007553e-01 -1.5214654e-01 -2.7371810e-01 -1.2793734e-01 2.5179764e+00 4.3596291e-01 -1.5275365e-01 -1.2235693e-01 -2.0202047e-01 -1.0218389e-01 -1.1106962e-01 1.3973800e-02 1.3152576e-02 1.5522942e-01 2.8150060e-01 5.0699631e-01 5.7340481e-01 4.7632286e-01 -4.9095101e-02 -2.3642654e-01 -3.3112020e-01 -2.8206124e-01 -3.3843693e-01 -2.4398390e-01 -2.9548318e-01 -2.2000063e-01 -2.7800995e-01 -2.0887230e-01 -2.9644024e-01 -1.7686844e-01 -2.8202980e-01 -1.3214687e-01 -2.7587468e-01 -3.9300016e-03 -7.9734196e-02 9.7947157e-02 -1.8254626e-01 -3.1969640e-02 -3.4083176e-01 4.5287748e-02 -6.9415823e-01 1.9708803e+00 1.5266691e+00 -3.2612504e-01 6.7669747e-02 -3.0307609e-01 -2.1093083e-02 -1.6954974e-01 6.2961211e-02 -2.4539156e-02 1.7674141e-01 2.5181254e-01 5.2258522e-01 5.9120414e-01 5.9912988e-01 9.9708513e-02 -2.1162914e-01 -3.2902676e-01 -3.3428437e-01 -3.3830307e-01 -2.8038916e-01 -2.9498029e-01 -2.5459540e-01 -2.5758581e-01 -2.6010256e-01 -2.4202988e-01 -2.3662497e-01 -2.0826315e-01 -2.4160048e-01 -1.8499374e-01 -2.3694824e-01 -1.0530242e-01 -1.4267480e-02 7.5485448e-02 -1.1394437e-01 -4.5347212e-02 -2.6713932e-01 -1.4020323e-02 -5.1024414e-01 6.8827915e-01 2.4731522e+00 -6.6043829e-02 8.1430581e-02 -2.8082581e-01 -1.8408052e-02 -1.6725461e-01 7.8774481e-02 -4.9509168e-02 1.6548768e-01 1.8592680e-01 4.6911502e-01 5.2411980e-01 7.3167412e-01 3.0165333e-01 -4.5888510e-02 -3.0531591e-01 -2.7387017e-01 -3.4233730e-01 -2.4297662e-01 -2.8495204e-01 -2.0639218e-01 -2.6606576e-01 -1.7882412e-01 -2.5273255e-01 -1.7891666e-01 -2.4692668e-01 -1.6648148e-01 -2.5300154e-01 -1.4993562e-01 -2.2980029e-01 -1.6939113e-01 -1.8984223e-01 1.3283229e-03 2.8837102e-03 1.2129256e-02 -1.3088064e-01 -1.0551574e-01 -2.4458788e-01 -1.4113829e-01 -3.6748804e-01 2.4161019e+00 7.3743645e-01 -1.6737660e-01 -1.0555344e-01 -2.1042590e-01 -1.0275221e-01 -8.7650268e-02 -4.8588324e-03 2.0868274e-02 1.3749675e-01 2.7865081e-01 4.5773871e-01 6.3172490e-01 4.9761683e-01 5.0919073e-02 -2.4374903e-01 -3.2176717e-01 -3.6004767e-01 -3.0397665e-01 -3.2052954e-01 -2.5292421e-01 -2.8787265e-01 -2.3086123e-01 -2.4995437e-01 -2.2176569e-01 -2.6407236e-01 -1.8958404e-01 -2.4721889e-01 -1.7388963e-01 -2.4516863e-01 -1.3524676e-01 -2.2032979e-01 -4.4298634e-02 -3.6029939e-02 1.1748408e-01 -1.1421020e-01 -6.1689368e-03 -2.9710015e-01 5.2059581e-02 -5.1686028e-01 8.0547101e-01 2.4264635e+00 -7.3817778e-02 9.7303720e-02 -2.3331211e-01 -1.6344773e-02 -1.3274245e-01 2.1917070e-02 -7.4470628e-03 1.7024854e-01 1.8166856e-01 4.5005263e-01 5.6792271e-01 7.2352229e-01 3.6463659e-01 -3.8008300e-02 -2.9849717e-01 -2.9584192e-01 -3.4538762e-01 -2.7044473e-01 -3.0227512e-01 -2.6122666e-01 -2.6607451e-01 -2.2643238e-01 -2.6500578e-01 -2.1644724e-01 -2.3909667e-01 -2.1669224e-01 -2.2526966e-01 -1.8836114e-01 -2.3821802e-01 -1.4226293e-01 -3.6724164e-02 3.5870033e-02 -4.0188839e-02 -9.3265036e-02 -1.8441566e-01 -1.5965705e-01 -2.1034673e-01 -1.8030099e-01 2.4881565e+00 5.8193404e-01 -1.7053902e-01 -7.7559911e-02 -1.9481695e-01 -4.3696388e-02 -1.2375046e-01 4.1368995e-02 4.1234586e-02 2.0791845e-01 3.0235540e-01 5.8228137e-01 6.4109970e-01 5.7153858e-01 2.8972140e-03 -2.1128536e-01 -3.4981799e-01 -3.1628798e-01 -3.5407699e-01 -2.5078553e-01 -3.1109190e-01 -2.2873145e-01 -2.8844982e-01 -2.1368880e-01 -3.0588939e-01 -1.9162447e-01 -2.7896723e-01 -1.8084237e-01 -2.6893175e-01 -1.5629070e-01 -2.5837124e-01 -1.2905045e-01 -2.4012719e-01 -4.2192122e-03 -5.4060676e-02 9.5118916e-02 -1.7759276e-01 -2.1843765e-03 -3.7381353e-01 7.9491352e-02 -6.8272767e-01 1.5386426e+00 1.8510714e+00 -2.7811831e-01 7.2528285e-02 -2.8597855e-01 -9.5442826e-03 -1.6569428e-01 3.5074895e-02 -4.3789944e-02 1.7662482e-01 2.1144567e-01 4.8981233e-01 5.8842811e-01 6.9697425e-01 2.8429686e-01 -7.9916977e-02 -2.9505929e-01 -2.7677556e-01 -2.9901984e-01 -2.5562517e-01 -2.7282609e-01 -2.2395400e-01 -2.5083589e-01 -2.2092772e-01 -2.3711389e-01 -2.0027721e-01 -2.4359212e-01 -2.0210430e-01 -2.2491103e-01 -1.9946583e-01 -1.8494132e-01 -1.7366415e-01 -1.6766814e-01 -1.4501946e-01 3.2414499e-03 5.9063398e-02 8.7133689e-03 -8.4086504e-02 -1.1641360e-01 -1.2847416e-01 -1.3877685e-01 -2.2984291e-01 2.5512930e+00 6.3125559e-01 -1.2016106e-01 2.0028261e-03 -1.7020201e-01 2.1322899e-02 -2.2646492e-02 1.2134733e-01 1.0084121e-01 2.8343791e-01 3.7804859e-01 6.2840672e-01 7.1176152e-01 6.6431605e-01 1.5333617e-01 -1.2146244e-01 -2.7955003e-01 -2.5385927e-01 -2.6036690e-01 -2.1975545e-01 -2.0572985e-01 -1.8873699e-01 -1.7696704e-01 -1.8922012e-01 -1.8421503e-01 -1.2340716e-01 -1.6240633e-01 -1.0195857e-01 -2.0672305e-01 -1.3058247e-01 -1.9528509e-01 -5.1855860e-03 6.3579973e-02 5.8899403e-02 -1.0396098e-01 -9.4006446e-02 -1.9846253e-01 -7.2837148e-02 -3.1746033e-01 2.6747422e+00 8.4515397e-01 -1.5860118e-01 3.3100030e-02 -1.7229127e-01 2.9147909e-02 -7.4342796e-02 6.4196263e-02 7.7482424e-02 2.2930620e-01 3.3551877e-01 5.7571578e-01 7.0749677e-01 6.6146971e-01 1.4582471e-01 -2.1823870e-01 -3.3551915e-01 -3.0518224e-01 -3.4719037e-01 -2.7497653e-01 -3.1895205e-01 -2.2029887e-01 -2.7562145e-01 -1.9695145e-01 -2.8872363e-01 -2.1298451e-01 -2.6914756e-01 -1.6430866e-01 -2.6520680e-01 -1.8828010e-02 -2.3320720e-02 5.7776082e-02 -1.9532183e-01 -6.1679492e-02 -3.8444076e-01 -3.2655037e-03 -7.3582590e-01 2.2081140e+00 1.6573751e+00 -3.4131328e-01 2.1179118e-02 -3.5645288e-01 -5.6231738e-02 -2.0161975e-01 1.2899468e-02 -8.5548552e-02 1.4162245e-01 1.9065072e-01 5.0105360e-01 5.6423868e-01 6.1213568e-01 1.0631987e-01 -1.7002084e-01 -3.7496995e-01 -3.0907519e-01 -3.7544682e-01 -2.9580296e-01 -3.1458224e-01 -2.3634959e-01 -2.8600116e-01 -2.2923987e-01 -2.8048476e-01 -2.3560808e-01 -1.6200015e-01 5.7693109e-03 -1.8260787e-02 -2.9870457e-02 -2.2481714e-01 -2.4977112e-01 -2.5568004e-01 -3.4686585e-01 -1.5956866e-01 2.6812482e+00 4.0133183e-01 -1.3523078e-01 -2.3507994e-01 -1.8008403e-01 -1.9057356e-01 -8.5779880e-02 -8.7507094e-02 4.6695729e-02 1.3546075e-01 3.4236600e-01 4.6595260e-01 6.3131036e-01 3.6464751e-01 -2.6407829e-02 -3.3043505e-01 -3.4123062e-01 -3.8413790e-01 -3.2626548e-01 -3.3702733e-01 -2.5949415e-01 -3.1558269e-01 -2.2660606e-01 -2.9301489e-01 -2.0827491e-01 -2.7332908e-01 -1.9557160e-01 -2.0748850e-01 4.6284375e-02 -6.2447195e-03 7.8980465e-02 -1.7393710e-01 -1.0618662e-01 -2.8836834e-01 -7.9087665e-02 -4.6323662e-01 2.4290582e+00 8.7138235e-01 -1.5950402e-01 -2.2377443e-02 -1.9332296e-01 -5.3557470e-02 -8.7028305e-02 2.1477707e-02 6.6778350e-02 1.7869987e-01 3.1207154e-01 5.1257501e-01 6.1368350e-01 5.2479027e-01 8.3500031e-02 -2.1163349e-01 -2.5378788e-01 -2.7995722e-01 -2.5210752e-01 -2.4578588e-01 -2.1459639e-01 -2.2606445e-01 -1.8271321e-01 -2.1067831e-01 -1.7869917e-01 -2.1118220e-01 -1.5854958e-01 -1.7270427e-01 -4.2220920e-02 4.1527896e-02 1.3597976e-01 2.8727663e-02 -8.6811147e-02 -2.4090024e-01 -9.7768053e-02 -3.6155780e-01 4.8354741e-02 2.4806689e+00 1.3299870e-01 -6.5616009e-02 -2.1269891e-01 -1.5074861e-01 -1.7516790e-01 -7.9844050e-02 -1.7719964e-02 6.8924842e-02 1.8669682e-01 3.4673754e-01 5.5279238e-01 6.9100056e-01 4.1965071e-01 -5.4619741e-02 -2.5769256e-01 -3.2797741e-01 -2.9068100e-01 -2.9043245e-01 -2.4992819e-01 -2.4349974e-01 -2.0823388e-01 -2.2251163e-01 -2.0088575e-01 -1.9904377e-01 -4.3164740e-03 8.5886711e-03 5.2512102e-02 -1.5490959e-01 -1.9781772e-01 -2.6810762e-01 -1.9678013e-01 -4.1491827e-01 2.5171824e+00 7.0564331e-01 -2.3225263e-01 -8.7823132e-02 -2.4117584e-01 -7.1980076e-02 -1.0310893e-01 3.8026221e-02 5.4236278e-02 2.1971141e-01 3.4835174e-01 5.6698982e-01 6.9491791e-01 4.7832312e-01 1.1657486e-02 -2.0292382e-01 -2.8477602e-01 -2.6946702e-01 -2.3684509e-01 -2.3958920e-01 -2.1419649e-01 -1.9150274e-01 -2.1022371e-01 -2.1536978e-01 -1.6892008e-01 -5.8364547e-03 6.4635281e-02 6.8081399e-02 -1.4720150e-01 -1.9615817e-01 -2.1583725e-01 -2.2733214e-01 -2.5771286e-01 2.4968997e+00 6.2272224e-01 -1.5595506e-01 -7.4464168e-02 -1.8357572e-01 -3.0831381e-02 -7.4131892e-02 9.1169138e-02 9.4838679e-02 2.8310004e-01 3.6510748e-01 6.3039855e-01 7.0068167e-01 4.9852014e-01 5.2541354e-03 -1.5971893e-01 -2.9769936e-01 -2.0194481e-01 -2.4198972e-01 -1.5834412e-01 -2.0294841e-01 -1.1672441e-01 -2.2034456e-01 -1.0875963e-01 -2.1182064e-01 4.7315330e-02 -1.6817326e-02 2.1269128e-01 -1.1644500e-01 -5.1942728e-02 -3.4215851e-01 6.9049795e-02 -7.2500195e-01 1.6705996e+00 1.7602032e+00 -3.0225426e-01 1.1460554e-01 -2.8757208e-01 2.1661468e-02 -1.5509713e-01 7.4919909e-02 -9.3736714e-03 2.1711556e-01 2.3797538e-01 5.1494909e-01 5.8414699e-01 6.1134540e-01 8.5421098e-02 -1.5085735e-01 -3.2643988e-01 -2.8502763e-01 -3.1045178e-01 -2.6300646e-01 -2.5180454e-01 -2.0869800e-01 -2.5676429e-01 -2.1098303e-01 -2.3937037e-01 -1.9401582e-01 -2.0552232e-01 -1.6653191e-01 -8.9768816e-03 5.9875515e-02 7.7580733e-02 -8.7531502e-02 -1.5439832e-01 -1.9257530e-01 -1.9907780e-01 -2.8659066e-01 2.5249157e+00 6.5750803e-01 -1.8570535e-01 -6.5044560e-02 -2.1465227e-01 -7.2942486e-02 -8.7036719e-02 5.0245551e-02 5.2590151e-02 2.3469498e-01 3.4032466e-01 5.3476477e-01 6.1968509e-01 4.6302304e-01 -1.8389300e-02 -2.7184787e-01 -3.1357695e-01 -3.3126869e-01 -2.9445789e-01 -2.8374758e-01 -2.4434186e-01 -2.2659147e-01 -2.1916753e-01 -2.2199747e-01 -1.8934822e-01 -2.0508254e-01 -1.2840122e-01 -1.9725371e-01 4.1930641e-02 -7.0351565e-03 1.5938223e-01 -6.7768913e-02 -2.0556912e-04 -2.7095154e-01 8.5650603e-02 -6.0321928e-01 1.1856875e+00 2.3111240e+00 -1.8682194e-01 1.7772016e-01 -2.5673303e-01 8.3085832e-02 -1.4669510e-01 1.4765515e-01 -2.2575178e-02 2.8590776e-01 2.1434429e-01 5.5049869e-01 5.6657575e-01 7.3016364e-01 2.5084764e-01 -1.8208978e-02 -2.6976836e-01 -2.0362947e-01 -2.8250177e-01 -1.2177344e-01 -2.5113533e-01 -1.3082060e-01 -2.1938359e-01 -1.3215507e-01 -2.0264842e-01 -1.1643034e-01 -2.1163433e-01 -1.1237240e-01 -2.0248524e-01 -7.5504305e-02 -1.1624739e-01 9.8698323e-02 1.3443377e-02 1.1155474e-01 -1.1220189e-01 -8.6954511e-02 -1.9547283e-01 -1.2713539e-01 -3.1584127e-01 2.5914479e+00 6.7563078e-01 -7.3335282e-02 -8.1760481e-02 -1.2187500e-01 -6.1452243e-02 -2.5063602e-02 1.5641859e-02 1.0478357e-01 1.6297756e-01 3.7113417e-01 4.5757370e-01 6.5906855e-01 4.3381464e-01 4.9531451e-02 -2.7273379e-01 -2.8022867e-01 -3.4460111e-01 -2.6944337e-01 -2.9397000e-01 -2.1442654e-01 -2.7033397e-01 -1.8549780e-01 -2.9930321e-01 -1.8116188e-01 -2.7016522e-01 -1.7848749e-01 -2.5256034e-01 -1.4634724e-01 -2.3356687e-01 -1.3291454e-01 -2.4518639e-01 -2.0748332e-02 -2.4827353e-02 1.1976754e-01 -1.0007132e-01 -6.2414200e-02 -2.8607804e-01 -1.0407668e-02 -4.9682071e-01 4.9481136e-01 2.4958935e+00 6.7865854e-02 5.0846362e-03 -2.0891425e-01 -1.0181398e-01 -1.6056836e-01 -2.4528893e-02 -2.4388541e-02 8.3306579e-02 1.8381271e-01 3.5687972e-01 5.2585471e-01 6.0109408e-01 3.8872015e-01 -5.7969863e-02 -2.4801339e-01 -3.3725348e-01 -3.0714752e-01 -2.9786373e-01 -2.7672133e-01 -2.5569609e-01 -2.3569532e-01 -2.6733193e-01 -2.4281867e-01 -2.3422164e-01 -2.3340299e-01 -2.2967275e-01 -2.1052287e-01 -2.4129971e-01 -1.8767736e-01 -2.1140153e-01 -1.4434797e-01 -2.7447075e-02 2.9324667e-02 -2.5140813e-02 -1.1148575e-01 -2.0871313e-01 -1.4805562e-01 -2.7799549e-01 -1.2844516e-01 2.5075591e+00 5.1404257e-01 -1.3856275e-01 -1.2034543e-01 -1.8793485e-01 -7.1856673e-02 -9.8264903e-02 1.8139007e-02 1.7642412e-02 1.9545689e-01 2.9594348e-01 5.4227901e-01 5.8635062e-01 4.9759429e-01 -1.5721832e-02 -2.0541880e-01 -3.6464040e-01 -2.6544801e-01 -3.4460648e-01 -2.3891017e-01 -2.9394740e-01 -2.1005243e-01 -2.7125301e-01 -2.1099755e-01 -2.8931333e-01 -1.8542453e-01 -2.6375951e-01 -1.7499315e-01 -2.8432199e-01 -1.5139251e-01 -2.3630499e-01 -2.2038037e-02 -4.4831867e-02 3.4313542e-02 -1.9972120e-01 -6.3633620e-02 -3.2526164e-01 -6.3013778e-02 -5.8368346e-01 2.2837649e+00 1.0785355e+00 -2.3359726e-01 -3.3777370e-02 -2.6713267e-01 -7.6482901e-02 -1.3840352e-01 -4.0270442e-03 1.0583839e-02 1.4574404e-01 2.5791648e-01 4.5490778e-01 6.0934277e-01 5.2275594e-01 7.2601391e-02 -2.7827719e-01 -3.4413709e-01 -3.9983733e-01 -3.4477103e-01 -3.4092663e-01 -3.1102994e-01 -3.4148975e-01 -2.7672345e-01 -3.3579012e-01 -2.5660321e-01 -3.3896963e-01 -2.5053313e-01 -3.1175442e-01 -1.0921953e-01 -1.3552383e-01 2.8446026e-02 -2.3675297e-01 -1.0422033e-01 -4.1996983e-01 -2.6074595e-02 -7.0199309e-01 8.4175025e-01 2.2685169e+00 -2.5762284e-01 3.4579379e-02 -3.3403667e-01 -9.7237451e-02 -2.0372226e-01 7.5547954e-03 -6.8051590e-02 1.4459675e-01 1.7386485e-01 4.4780752e-01 5.5759241e-01 6.5834315e-01 2.6248083e-01 -1.2165604e-01 -3.3831180e-01 -3.2010859e-01 -3.3745887e-01 -2.9835093e-01 -2.9625758e-01 -2.5310396e-01 -2.7316724e-01 -2.5803190e-01 -2.4667204e-01 -2.4697472e-01 -2.2433815e-01 -2.2618236e-01 -3.6769132e-02 -2.8694926e-02 6.0817400e-02 -1.7074368e-01 -9.9390117e-02 -2.9614789e-01 5.5129679e-02 -6.5958011e-01 1.9973037e+00 1.4639020e+00 -3.1741173e-01 6.9919709e-03 -3.3587014e-01 -1.2323082e-02 -2.5357255e-01 4.1529088e-02 -3.6652592e-02 2.3172513e-01 2.5591575e-01 6.0097102e-01 6.6178229e-01 6.5504783e-01 3.9250914e-02 -2.0951555e-01 -4.5416570e-01 -3.2641160e-01 -4.2047300e-01 -3.1704054e-01 -3.7867420e-01 -2.6527726e-01 -2.8814264e-01 -2.5617629e-01 -2.1516938e-01 -7.4072623e-02 -4.9533262e-02 -1.0998219e-01 -2.5795083e-01 -2.8493104e-01 -2.7814262e-01 -3.7071351e-01 -1.4952490e-01 2.6556709e+00 1.4362349e-01 -1.1030548e-01 -2.5868481e-01 -1.5894467e-01 -1.8943060e-01 -7.9273642e-02 -9.6542860e-02 9.5068190e-02 1.2968578e-01 3.8314703e-01 5.0557972e-01 6.9004012e-01 2.8164486e-01 -7.3342917e-02 -3.8819054e-01 -2.9471259e-01 -4.0794682e-01 -2.4784470e-01 -3.7020783e-01 -2.3730769e-01 -3.3822364e-01 -1.9373875e-01 -3.2090260e-01 -5.1112086e-02 -1.4566504e-01 6.8125825e-02 -2.1370180e-01 -1.2330996e-01 -4.4214552e-01 -6.5127578e-02 -7.5163177e-01 8.9868236e-01 2.2901424e+00 -2.5340711e-01 -2.0846954e-02 -3.8681804e-01 -1.1748319e-01 -2.4183854e-01 -5.6709891e-02 -1.2790329e-01 9.8271704e-02 1.2802627e-01 4.1123577e-01 5.0799387e-01 5.9386272e-01 1.0217310e-01 -2.3344825e-01 -4.0389489e-01 -3.9143373e-01 -4.1875162e-01 -3.6853036e-01 -3.9084761e-01 -3.0373808e-01 -3.6919755e-01 -2.2785212e-01 -1.6798825e-01 -3.5811701e-02 -1.4669107e-01 -2.4961270e-01 -4.0330063e-01 -2.4737028e-01 -5.2822120e-01 4.9620003e-03 2.6069825e+00 1.4687042e-01 -1.7363583e-01 -3.1204545e-01 -2.3763688e-01 -2.1772023e-01 -1.3614956e-01 -5.8217540e-02 2.2502061e-02 1.6297845e-01 3.6209062e-01 5.4386317e-01 6.1639386e-01 2.4671205e-01 -1.5848118e-01 -3.2989420e-01 -3.3909962e-01 -3.3015530e-01 -2.8569312e-01 -2.7136758e-01 -2.2973303e-01 -2.4906176e-01 -1.9615504e-01 -1.9274999e-01 -1.9515304e-01 -7.7791031e-02 2.8539422e-02 7.3738540e-02 1.6722670e-03 -9.3376563e-02 -1.7262849e-01 -1.1854554e-01 -2.9200190e-01 3.0992693e-02 2.6824072e+00 4.1237237e-01 8.4520557e-03 -1.0575476e-01 -6.7000934e-02 -4.8580629e-02 3.8962906e-02 7.4215225e-02 2.0182292e-01 2.5819774e-01 4.9246847e-01 6.4901901e-01 7.6343823e-01 4.4482762e-01 3.1592623e-02 -1.8923423e-01 -1.6662980e-01 -2.1796777e-01 -1.4965147e-01 -1.6784663e-01 -7.8067694e-02 -1.3678887e-01 -7.3226175e-02 -1.2167996e-01 -6.5823481e-02 -8.8617518e-02 -5.5640168e-02 -9.1866727e-02 -1.7733919e-02 -9.6449745e-02 7.3729952e-03 -7.8242282e-02 1.8222603e-02 -7.1008723e-02 1.5989678e-01 1.2446293e-01 2.8789244e-01 3.8682752e-02 1.1937534e-01 -1.4663342e-01 1.5657656e-01 -3.9947229e-01 9.3080886e-01 2.5637667e+00 1.0600123e-01 2.0374392e-01 -9.2864163e-02 6.7735927e-02 -3.7770420e-02 1.3852558e-01 6.7582640e-02 2.4138828e-01 2.5837012e-01 4.8230498e-01 5.8672398e-01 7.1185067e-01 4.0650755e-01 1.6362069e-04 -2.2572338e-01 -2.4630595e-01 -2.7772067e-01 -2.3154443e-01 -2.4595292e-01 -1.9714017e-01 -2.5333308e-01 -2.0694404e-01 -2.4808215e-01 -2.2030987e-01 -2.6838950e-01 -2.1985384e-01 -2.5354346e-01 -2.2741812e-01 -2.5554522e-01 -2.2871804e-01 -2.4491260e-01 -2.2555441e-01 -2.6625730e-01 -2.0735211e-01 -2.2808454e-01 -1.7208305e-01 -7.5094662e-02 5.4428649e-03 -1.1976923e-01 -1.4708961e-01 -2.5433265e-01 -1.9452747e-01 -3.4563264e-01 -1.5308958e-01 2.3926457e+00 3.9166272e-01 -1.8191440e-01 -2.2400262e-01 -2.6002631e-01 -1.8467346e-01 -1.9093262e-01 -9.9602155e-02 -6.4324413e-02 6.1287214e-02 2.0242925e-01 3.8575948e-01 5.1057246e-01 3.6308959e-01 -1.2572548e-01 -3.6055031e-01 -4.4679470e-01 -4.5280998e-01 -4.2331966e-01 -3.9182961e-01 -3.9646706e-01 -3.6820256e-01 -3.8941018e-01 -3.6358944e-01 -3.8175363e-01 -3.8022179e-01 -3.5789189e-01 -3.5784805e-01 -3.6239082e-01 -3.2995922e-01 -3.5822236e-01 -3.2470401e-01 -2.9947939e-01 -3.2615824e-01 -2.7660094e-01 -1.5097298e-01 -1.1189840e-01 -1.8184727e-01 -2.2133557e-01 -3.3319837e-01 -2.6021575e-01 -3.7986322e-01 -2.3058284e-01 2.3916760e+00 2.7863386e-01 -1.9263832e-01 -2.4631899e-01 -2.5950360e-01 -2.1863824e-01 -1.6852730e-01 -1.0579235e-01 -5.0673846e-02 7.9754918e-02 2.4264624e-01 4.3309661e-01 6.0291664e-01 4.0908864e-01 -6.5401137e-02 -3.6851342e-01 -4.3054468e-01 -4.4798858e-01 -4.1011253e-01 -3.8800076e-01 -3.6466240e-01 -3.5212529e-01 -3.3075006e-01 -3.1912780e-01 -3.1977787e-01 -3.0653659e-01 -2.9452689e-01 -2.9554140e-01 -2.9490346e-01 -2.4674761e-01 -2.6952644e-01 -2.5406530e-01 -2.3787544e-01 -1.9832790e-01 -9.9418316e-02 -1.1417692e-02 -1.0954294e-01 -1.4390061e-01 -2.4726270e-01 -1.8085444e-01 -3.3421253e-01 -7.3971892e-02 2.4854784e+00 3.2810080e-01 -1.2048380e-01 -2.0869074e-01 -1.8872764e-01 -1.6624566e-01 -8.9968631e-02 -8.1723153e-02 2.4246828e-02 1.3471401e-01 3.2050775e-01 4.9647823e-01 6.5680697e-01 4.4330825e-01 -2.2590367e-02 -3.5996813e-01 -3.9866787e-01 -4.2614792e-01 -3.8288840e-01 -3.8850478e-01 -3.4933959e-01 -3.5758819e-01 -3.0747177e-01 -3.5201883e-01 -3.0090687e-01 -3.3303309e-01 -2.8337073e-01 -3.1344661e-01 -2.6734930e-01 -3.0124967e-01 -2.5538123e-01 -2.8592879e-01 -2.1455376e-01 -2.7554669e-01 -1.9569333e-01 -2.5442805e-01 -4.8104043e-02 -4.0699338e-02 -3.8622904e-03 -1.9257702e-01 -8.2506031e-02 -3.3889346e-01 -5.2295225e-02 -6.1982318e-01 2.0632480e+00 1.2286953e+00 -3.1184712e-01 4.6343215e-03 -3.4329522e-01 -4.9663274e-02 -2.0296158e-01 2.2420732e-02 -8.2430414e-02 1.2646380e-01 1.8309671e-01 4.9385408e-01 5.8774311e-01 6.3625768e-01 1.1738490e-01 -2.1163559e-01 -4.1006182e-01 -3.5139763e-01 -4.1717842e-01 -3.4749176e-01 -3.9114559e-01 -2.7753322e-01 -3.4803753e-01 -2.7102222e-01 -3.4212411e-01 -2.5488947e-01 -3.0383745e-01 -2.4979914e-01 -3.0500098e-01 -2.4122157e-01 -2.8494016e-01 -1.9123007e-01 -2.6766804e-01 -1.9123375e-01 -2.7717814e-01 -1.3328212e-01 -2.2066030e-01 -1.0257652e-02 -2.3247242e-02 3.6077340e-02 -1.4277332e-01 -7.3001769e-02 -2.8654940e-01 -3.7063272e-02 -5.4225472e-01 2.2246262e+00 1.1237524e+00 -2.5757422e-01 1.9015781e-02 -2.6251488e-01 -3.6264012e-02 -1.0656008e-01 2.9986870e-02 1.2842036e-02 1.7585829e-01 2.5950443e-01 5.3451698e-01 6.3579778e-01 7.0109585e-01 1.9527961e-01 -1.7404275e-01 -3.2554005e-01 -3.2514436e-01 -3.3955978e-01 -2.9767924e-01 -3.0506305e-01 -2.7529331e-01 -2.8934758e-01 -2.3030532e-01 -2.6426799e-01 -2.3095375e-01 -2.5351348e-01 -2.2322306e-01 -2.1053597e-01 -2.1169199e-01 -2.1611983e-01 -1.7007487e-01 -1.9669389e-01 -1.4465366e-01 -1.5684240e-01 -7.0441204e-03 5.4053584e-02 -1.2421875e-03 -8.7752564e-02 -1.3071168e-01 -1.5742653e-01 -1.8056014e-01 -1.6187580e-01 2.5271892e+00 5.4481264e-01 -1.0869040e-01 -5.9999115e-02 -1.4708319e-01 -7.0442010e-02 -2.0613519e-02 3.9925395e-02 1.0573464e-01 2.0761999e-01 3.7354651e-01 6.0142933e-01 7.6948225e-01 6.4322810e-01 1.0900490e-01 -1.8069424e-01 -3.2359180e-01 -2.8810461e-01 -3.3179112e-01 -2.7629326e-01 -2.8192041e-01 -2.3446255e-01 -2.3708174e-01 -2.4599226e-01 -2.2662574e-01 -2.2875551e-01 -2.1356387e-01 -2.0871943e-01 -2.0927763e-01 -1.8721381e-01 -1.9314505e-01 -1.7133588e-01 -1.5708885e-01 -1.3544799e-01 -7.2972069e-03 5.1750797e-02 2.9151436e-02 -8.0509122e-02 -9.7478013e-02 -1.4948766e-01 -1.4326049e-01 -2.1855708e-01 2.5362294e+00 6.8105954e-01 -1.0983058e-01 -1.3482888e-02 -1.5299363e-01 -1.6498863e-02 -4.0376108e-02 1.1205155e-01 9.8151236e-02 2.7042080e-01 3.7125851e-01 6.6509018e-01 7.7600166e-01 7.1976094e-01 1.6052902e-01 -1.1741267e-01 -3.0150344e-01 -2.2329276e-01 -3.0353914e-01 -2.0524310e-01 -2.6306956e-01 -1.7079847e-01 -2.2755072e-01 -1.6941051e-01 -2.0260997e-01 -1.4761252e-01 -1.9937830e-01 -1.4650068e-01 -1.9064254e-01 -1.1977688e-01 -1.8484766e-01 -8.4411612e-02 -1.4330769e-01 -5.4232592e-02 1.2134201e-02 1.4116245e-01 -2.9476627e-03 2.0752922e-02 -1.6190902e-01 -3.3018784e-02 -2.8166234e-01 2.2655855e-01 2.6150421e+00 3.4069539e-01 -4.7807804e-03 -8.0396142e-02 -6.9646618e-02 -2.1407614e-02 3.9358925e-03 8.7725315e-02 1.3255743e-01 2.8068868e-01 4.1069010e-01 6.6085747e-01 7.8434732e-01 6.4884439e-01 9.9582410e-02 -1.6654502e-01 -2.9308098e-01 -2.7271636e-01 -3.0678495e-01 -2.1510201e-01 -2.5472914e-01 -1.9917934e-01 -2.2772540e-01 -1.6870348e-01 -2.3248468e-01 -1.5494673e-01 -1.9907912e-01 -1.3785382e-01 -2.1072313e-01 -1.1382028e-01 -1.8713440e-01 -8.5976545e-02 -1.6923513e-01 2.6718300e-02 2.8751338e-02 1.4251059e-01 -1.0252174e-01 4.7179493e-02 -2.8530448e-01 1.1291862e-01 -5.9139820e-01 1.8953066e+00 1.6910040e+00 -2.2793657e-01 1.1773620e-01 -2.3971222e-01 4.1791152e-02 -1.0928147e-01 1.1451328e-01 -7.6869219e-03 2.5963923e-01 2.6683661e-01 5.5115896e-01 6.7677048e-01 7.7558732e-01 3.2105248e-01 -5.9314992e-02 -2.9909881e-01 -2.6800316e-01 -3.1685561e-01 -2.4489466e-01 -2.6655174e-01 -2.1300499e-01 -2.2910419e-01 -2.0922089e-01 -2.3096536e-01 -1.9619423e-01 -2.1017387e-01 -1.8913563e-01 -1.9014873e-01 -1.9211272e-01 -1.6213189e-01 -1.5942548e-01 -1.1808196e-01 -5.1192316e-03 6.9882798e-02 -2.7670106e-02 -4.2903406e-02 -1.9162445e-01 -7.1503126e-02 -3.3437584e-01 2.2995172e-01 2.6454001e+00 2.1951702e-01 2.1461396e-02 -1.7684267e-01 -6.4193019e-02 -1.0054630e-01 9.4916170e-03 1.0683865e-02 1.4069282e-01 1.9474350e-01 4.3276229e-01 6.0737735e-01 7.9257470e-01 5.4934843e-01 8.8775351e-02 -2.2592436e-01 -2.8895972e-01 -3.2589365e-01 -2.7076748e-01 -2.9176796e-01 -2.4918428e-01 -2.5891971e-01 -2.1442532e-01 -2.3185901e-01 -2.0939614e-01 -2.3993736e-01 -1.9715018e-01 -2.0499370e-01 -1.7104174e-01 -1.9685486e-01 -1.3838336e-01 -1.4262242e-02 8.1246902e-02 -2.9952658e-02 -6.0946910e-02 -1.7478764e-01 -9.1796544e-02 -2.4116241e-01 7.5116868e-03 2.6136468e+00 4.2630441e-01 -6.7727176e-02 -7.2564154e-02 -1.2871583e-01 -4.6603325e-02 -2.9084925e-02 4.4834209e-02 1.0103192e-01 2.6203888e-01 3.8902810e-01 6.1205856e-01 7.6001662e-01 6.0908002e-01 1.1638324e-01 -1.9709965e-01 -3.0406932e-01 -2.9440295e-01 -2.7712025e-01 -2.4740251e-01 -2.3934007e-01 -2.2196538e-01 -2.0395560e-01 -2.0082741e-01 -2.0046318e-01 -1.8727967e-01 -1.9276905e-01 -1.6673746e-01 -1.7670704e-01 -1.3481484e-01 -1.4898251e-01 -1.2652870e-01 2.4890896e-02 9.6138822e-02 4.3581215e-02 -3.4503564e-02 -5.9446739e-02 -1.2621106e-01 -7.1119072e-02 -2.5851070e-01 2.5693525e+00 8.8354585e-01 -1.2770720e-01 3.3709558e-02 -1.6373479e-01 1.0434167e-02 -5.6516264e-02 8.9797701e-02 6.5453590e-02 2.5934016e-01 3.3616061e-01 5.8548094e-01 6.9058860e-01 6.6818232e-01 1.5061357e-01 -1.5076872e-01 -3.0636718e-01 -2.8432736e-01 -2.9859279e-01 -2.5509333e-01 -2.5436657e-01 -2.2213098e-01 -2.3671535e-01 -2.0443634e-01 -2.4194635e-01 -1.8863018e-01 -2.1863032e-01 -1.8267931e-01 -2.0462873e-01 -1.6965572e-01 -2.0453849e-01 -1.3947278e-01 -1.7244576e-01 -1.0188210e-01 4.8704895e-03 8.5426984e-02 -5.1507232e-03 -3.1102632e-02 -1.3633937e-01 -1.2545577e-01 -1.5473138e-01 -1.8246615e-01 2.5089022e+00 7.7772120e-01 -1.0370921e-01 -8.9926729e-03 -1.4882620e-01 1.2620404e-02 -3.9392823e-02 1.0111787e-01 6.3401920e-02 2.5684974e-01 3.3550477e-01 6.2195904e-01 6.8066798e-01 6.8120494e-01 1.6248793e-01 -9.5944857e-02 -2.9346234e-01 -2.2748809e-01 -2.9063440e-01 -1.9566833e-01 -2.5139099e-01 -1.6879643e-01 -2.5209630e-01 -1.4553553e-01 -2.3804552e-01 -1.4477261e-01 -2.1692860e-01 -1.2115260e-01 -2.0564259e-01 -1.2942720e-01 -1.9076356e-01 -8.1115769e-02 -1.8761407e-01 -2.1759094e-02 -1.2726175e-02 1.2523126e-01 -8.1296233e-02 1.8733873e-02 -2.3054903e-01 4.9401467e-02 -4.4964262e-01 5.2946437e-01 2.5441855e+00 8.0259632e-02 5.7355666e-02 -1.6955132e-01 -4.9840610e-02 -1.1006958e-01 1.9671211e-02 1.4503450e-02 1.4234825e-01 2.2173915e-01 4.0375430e-01 6.0168358e-01 7.2547079e-01 5.4260972e-01 5.6859480e-02 -2.2352329e-01 -3.0701419e-01 -3.0840832e-01 -2.8657800e-01 -2.4249613e-01 -2.5333638e-01 -2.2732143e-01 -2.2477770e-01 -2.1540992e-01 -2.1539256e-01 -2.0134363e-01 -2.0150116e-01 -1.7836579e-01 -1.8262600e-01 -1.4650952e-01 -1.7544854e-01 -9.8513789e-02 3.4061795e-03 1.0202080e-01 -3.4428261e-03 -5.1438563e-02 -1.3853659e-01 -8.5731423e-02 -2.0280517e-01 -8.8985342e-02 2.6249445e+00 5.5746565e-01 -7.0433834e-02 -3.5969350e-02 -1.5748539e-01 -1.5434783e-02 -5.7538053e-02 8.1826282e-02 7.5215876e-02 2.4025235e-01 3.6145097e-01 5.9301833e-01 7.1877996e-01 6.5342604e-01 1.0862287e-01 -1.5482722e-01 -3.2688515e-01 -2.7166561e-01 -2.9887262e-01 -2.3369520e-01 -2.6807155e-01 -2.1154369e-01 -2.5399641e-01 -1.8041159e-01 -2.4870232e-01 -1.6726574e-01 -2.3663335e-01 -1.6624411e-01 -2.4188324e-01 -1.2638076e-01 -2.2343928e-01 -1.0430820e-01 -2.3511904e-01 -3.4766661e-03 -1.5510866e-02 1.4879187e-01 -1.3192735e-01 3.0673950e-02 -3.0474254e-01 1.0853385e-01 -5.8399117e-01 9.9665388e-01 2.3583735e+00 -7.2270788e-02 1.1472171e-01 -2.2733973e-01 -8.0595212e-03 -1.2271477e-01 5.3519609e-02 9.8584246e-03 1.7355909e-01 2.1532941e-01 4.6188072e-01 5.8772145e-01 7.4048324e-01 4.3306599e-01 5.6031983e-02 -2.4575111e-01 -2.7029767e-01 -2.9738526e-01 -2.5740626e-01 -2.3128029e-01 -1.9234145e-01 -2.1555450e-01 -2.3251911e-01 -1.9272503e-01 -2.0027500e-01 -1.6738963e-01 -1.5910300e-01 -1.3590858e-01 -1.5086196e-01 -8.7839567e-02 -1.2607053e-01 -7.9910220e-02 -8.1656766e-02 5.8693787e-02 6.1661301e-02 1.3066607e-01 -8.4591439e-02 1.7638953e-02 -2.0472952e-01 5.0836808e-02 -5.0625496e-01 2.2814425e+00 1.3662302e+00 -1.9665299e-01 1.0173377e-01 -2.0353681e-01 2.6579915e-02 -8.3130347e-02 1.0177342e-01 3.7231406e-02 2.5837089e-01 2.8151487e-01 5.4694333e-01 6.4927457e-01 7.3892907e-01 2.9065673e-01 -8.0548666e-02 -2.7614630e-01 -2.5727977e-01 -2.7186359e-01 -2.1882468e-01 -2.2886840e-01 -1.8096719e-01 -1.9573369e-01 -1.6156683e-01 -1.8944582e-01 -1.5964498e-01 -1.5772861e-01 -1.2940117e-01 -1.5322421e-01 -1.2700325e-01 1.6485113e-02 8.8085409e-02 3.3814745e-02 -6.0885715e-02 -1.3701886e-01 -1.4001136e-01 -1.5364505e-01 -2.2561954e-01 2.5252647e+00 8.4163655e-01 -1.5582571e-01 1.5246728e-02 -1.9265746e-01 -6.0182348e-02 -9.3627771e-02 3.6851919e-02 6.1987684e-02 1.8624973e-01 3.0929558e-01 5.2988302e-01 6.6778894e-01 5.9533097e-01 1.0449080e-01 -1.9815886e-01 -3.3881615e-01 -3.1293380e-01 -3.0722883e-01 -2.7936825e-01 -2.8762467e-01 -2.6537665e-01 -2.4745986e-01 -2.2451319e-01 -2.5661384e-01 -2.2460401e-01 -1.7829310e-01 1.4388215e-03 1.3884902e-03 -3.9438513e-02 -1.9484189e-01 -2.6400405e-01 -1.6984725e-01 -4.2220235e-01 4.6880167e-02 2.5081409e+00 1.7213669e-01 -7.0339448e-02 -2.8004309e-01 -1.8207525e-01 -2.2979256e-01 -6.0088174e-02 -9.5891506e-02 4.3802649e-02 8.0102383e-02 3.1254494e-01 4.5323790e-01 6.5518137e-01 3.3223945e-01 -4.7900399e-02 -3.8707386e-01 -3.5789412e-01 -4.6557479e-01 -3.2928653e-01 -3.9589171e-01 -2.6865911e-01 -3.7416525e-01 -2.5147883e-01 -3.5895962e-01 -1.3713923e-01 -1.3023583e-01 5.0931030e-02 -2.1008677e-01 -1.5290011e-01 -4.3827500e-01 -7.0721581e-02 -7.0188894e-01 8.2196239e-01 2.2476063e+00 -3.2161850e-01 -1.0913337e-02 -4.1740145e-01 -1.3576061e-01 -3.2592937e-01 -3.9923785e-02 -1.6341318e-01 8.2256123e-02 7.2904418e-02 3.8117716e-01 4.3174185e-01 6.2434960e-01 1.3584080e-01 -1.6535082e-01 -4.7407775e-01 -3.7598319e-01 -4.7626069e-01 -3.3086683e-01 -4.2877024e-01 -2.6573449e-01 -4.0958452e-01 -1.4751386e-01 -1.6493704e-01 1.0952904e-01 -2.2756005e-01 -1.2375651e-01 -4.4894145e-01 -6.9906017e-03 -8.1778552e-01 1.3549620e+00 2.1268804e+00 -3.7848848e-01 3.8681210e-02 -3.6236599e-01 -6.0067534e-02 -2.1323830e-01 5.4607697e-02 -4.5956923e-02 1.7199197e-01 1.7084482e-01 4.9292537e-01 5.1630738e-01 6.2096602e-01 7.9152090e-02 -1.1057839e-01 -3.7831399e-01 -2.6702217e-01 -3.6019390e-01 -2.1223396e-01 -3.2087254e-01 -1.8893839e-01 -3.2063514e-01 -4.7335671e-02 -5.9353898e-02 2.0058689e-01 -1.4511116e-01 -1.0920251e-01 -4.0510736e-01 -3.6356104e-02 -7.3740193e-01 9.8878068e-01 2.3062659e+00 -2.4591796e-01 1.2804939e-02 -3.5313764e-01 -8.5824866e-02 -2.6627120e-01 -1.5916349e-02 -1.4381867e-01 9.1459550e-02 9.1135481e-02 4.1479319e-01 4.6638584e-01 5.7434437e-01 7.3684578e-02 -1.6228576e-01 -4.0278787e-01 -2.9263620e-01 -4.3104703e-01 -2.4516045e-01 -3.4083627e-01 -2.0092902e-01 -3.4910659e-01 -2.7134559e-02 -1.1976209e-01 1.6943965e-01 -2.6604374e-01 -1.1385512e-01 -4.7726147e-01 -3.7254159e-02 -8.6441013e-01 1.3943312e+00 2.0433166e+00 -3.9189180e-01 1.3052472e-02 -4.6089186e-01 -9.1553751e-02 -2.9484310e-01 -1.3958826e-02 -1.4920796e-01 1.1583813e-01 9.8421804e-02 4.1974017e-01 4.0653714e-01 5.0652037e-01 -4.4439663e-02 -2.0738248e-01 -4.3252558e-01 -3.2788295e-01 -3.8593767e-01 -2.6228615e-01 -3.6221792e-01 -2.0481455e-01 -3.4233520e-01 -2.0030961e-01 -3.3505647e-01 -4.3212559e-02 -8.8116003e-02 1.1657755e-01 -2.3989324e-01 -1.2515468e-01 -4.3688797e-01 -4.2923730e-02 -7.7136477e-01 1.6495986e+00 1.5648584e+00 -3.9075272e-01 -3.5498227e-03 -3.8222028e-01 -9.5351955e-02 -2.4325792e-01 -1.5194267e-02 -1.1574610e-01 1.2760451e-01 1.3531088e-01 4.3188942e-01 4.6038700e-01 5.0942231e-01 -1.8705691e-02 -1.8794944e-01 -3.7556397e-01 -2.8614922e-01 -3.6350853e-01 -2.4146415e-01 -3.2354836e-01 -1.6382613e-01 -3.1641051e-01 -1.8247955e-01 -3.0945883e-01 -7.1348629e-02 -7.8153930e-02 1.3696747e-01 -1.4634678e-01 -9.7437954e-02 -3.7776908e-01 -4.4928895e-02 -6.4112759e-01 8.4330084e-01 2.3120034e+00 -2.3499847e-01 2.6089177e-02 -3.5566966e-01 -6.8648034e-02 -2.3831535e-01 -7.9253333e-03 -6.7607182e-02 1.1804636e-01 1.4491493e-01 4.2245753e-01 4.8540790e-01 6.0673017e-01 1.2680381e-01 -1.3766409e-01 -3.6256381e-01 -2.7587903e-01 -3.6547490e-01 -2.4716253e-01 -3.0732451e-01 -2.2446189e-01 -2.8553762e-01 -1.8450660e-01 -2.7297845e-01 -1.3377739e-02 -5.5817968e-02 1.7375759e-01 -2.3672404e-01 -9.3504291e-02 -3.7274984e-01 -3.8639363e-02 -6.7061650e-01 1.9939686e+00 1.3046815e+00 -3.3864076e-01 -1.1183123e-03 -3.1824610e-01 -4.7339075e-02 -1.8290066e-01 5.3209937e-03 -2.9295719e-02 1.7801470e-01 2.0549696e-01 4.8235928e-01 5.1993144e-01 4.8064388e-01 -4.8211902e-02 -2.2344209e-01 -3.8291499e-01 -2.9635466e-01 -3.4656461e-01 -2.5385652e-01 -3.2240598e-01 -2.1417057e-01 -2.9241775e-01 -2.2088186e-01 -3.1280271e-01 -1.9482934e-01 -2.9634119e-01 -1.6895040e-01 -2.9107988e-01 -8.4986909e-02 -7.2130444e-02 1.2792475e-01 -1.1035535e-01 -9.4325848e-02 -3.2164471e-01 -4.3298423e-02 -5.7615382e-01 5.9958024e-01 2.3197728e+00 -8.8149094e-02 1.2913994e-02 -2.9624883e-01 -7.9786327e-02 -2.0168539e-01 -9.7517435e-03 -7.1671564e-02 9.8949976e-02 1.3061403e-01 3.6426200e-01 4.5010083e-01 5.6374846e-01 2.8520994e-01 -7.7354931e-02 -3.0222944e-01 -2.9803124e-01 -3.1489874e-01 -2.5313283e-01 -2.6110699e-01 -2.3391661e-01 -2.3366594e-01 -2.3906886e-01 -2.2142064e-01 -2.3398672e-01 -2.1182407e-01 -2.3654213e-01 -2.0117337e-01 -1.3113717e-01 -1.0307521e-02 3.3722522e-02 4.7232604e-02 -1.3494917e-01 -1.3848589e-01 -2.2687617e-01 -1.5516619e-01 -3.9737341e-01 2.4238793e+00 8.2496858e-01 -1.9953649e-01 -1.0610684e-02 -2.1977865e-01 6.2411809e-03 -9.8788956e-02 9.2602558e-02 4.3168195e-02 2.5546213e-01 3.2208590e-01 5.7583954e-01 6.0422832e-01 5.5045849e-01 2.9942128e-02 -1.2491495e-01 -2.7361639e-01 -2.2756833e-01 -2.6548477e-01 -1.8211134e-01 -2.2253760e-01 -1.5710957e-01 -2.0705840e-01 -1.4529256e-01 -2.0905831e-01 -1.2500766e-01 -1.8637450e-01 -1.1239961e-01 -1.5553739e-01 -1.0286876e-01 -1.0604474e-01 1.1629989e-01 7.9164410e-02 1.4134669e-01 -1.1302552e-01 -6.0607343e-02 -1.6713503e-01 -8.3147313e-02 -3.2049459e-01 2.4794104e+00 8.2188491e-01 -1.1461835e-01 -1.8728697e-02 -1.5041782e-01 -2.2068252e-02 -4.3266388e-02 4.7641042e-02 9.3868205e-02 2.1480941e-01 3.3215060e-01 5.1181852e-01 6.3836119e-01 5.2010983e-01 1.0887878e-01 -1.8667091e-01 -2.6996382e-01 -2.6067523e-01 -2.4728335e-01 -2.0974448e-01 -2.1456627e-01 -2.0566308e-01 -1.5084155e-01 -1.9493000e-01 -1.6243385e-01 -1.9190302e-01 -1.4217363e-01 -1.7831564e-01 -1.2838957e-01 -1.5797825e-01 -9.7498104e-02 -1.0963599e-01 6.1115179e-02 7.4103265e-02 9.6892985e-02 -1.1384519e-01 -1.1757630e-01 -1.8684830e-01 -1.2367097e-01 -2.8355314e-01 2.4980956e+00 7.0661386e-01 -1.2065265e-01 -6.0325768e-02 -1.5579399e-01 -6.8395346e-02 -6.1720625e-02 4.0132351e-02 5.4956835e-02 2.1584029e-01 3.5047816e-01 5.1965231e-01 6.5973115e-01 5.4656332e-01 1.2209278e-01 -2.0578834e-01 -2.7039751e-01 -2.6808537e-01 -2.6190497e-01 -2.1447573e-01 -1.6993637e-01 -1.7162665e-01 -1.7163413e-01 -1.4925150e-01 -1.1137035e-01 -1.3196466e-01 -1.4291805e-01 -1.2538774e-01 -8.7559880e-02 -8.0396825e-02 1.1200560e-01 8.2213285e-02 1.4362621e-01 -9.6485340e-02 -2.1187209e-02 -2.2107331e-01 3.0114672e-03 -5.1786330e-01 2.1559198e+00 1.2705680e+00 -2.0915008e-01 8.4937125e-02 -2.2489909e-01 3.0523615e-02 -1.0748196e-01 1.1528096e-01 5.0548878e-02 2.5585112e-01 2.8887402e-01 5.6902138e-01 6.2914462e-01 6.2938519e-01 1.1294180e-01 -1.4226430e-01 -3.1820725e-01 -2.4576097e-01 -3.1723848e-01 -2.0353957e-01 -2.6387215e-01 -1.8544247e-01 -2.2088123e-01 -1.8101724e-01 -2.4186350e-01 -1.6647137e-01 -1.9648351e-01 2.1858529e-02 -2.4784285e-02 6.1162870e-02 -1.8729753e-01 -1.3267800e-01 -2.7915012e-01 -1.0692535e-01 -5.0650635e-01 2.3440695e+00 8.9900854e-01 -2.4573114e-01 -8.7912473e-03 -2.4266348e-01 -2.4152276e-02 -1.3292888e-01 3.2888067e-02 1.4288914e-03 2.1802988e-01 3.2897006e-01 6.0720196e-01 6.1628961e-01 5.8055795e-01 9.2895958e-03 -2.3317214e-01 -3.5995400e-01 -2.7978974e-01 -3.6053765e-01 -2.3340722e-01 -2.9822556e-01 -1.9675972e-01 -2.6349008e-01 -1.8293033e-01 -2.3454406e-01 1.1203504e-02 -7.1116276e-03 1.5943946e-01 -1.8284540e-01 -3.9689111e-02 -3.2295785e-01 5.5387566e-02 -6.4605990e-01 1.9000334e+00 1.6481610e+00 -2.9110035e-01 1.4679496e-01 -2.6961598e-01 6.2356364e-02 -1.2617264e-01 1.5185803e-01 -5.8135717e-03 2.9605809e-01 2.9153874e-01 6.2238323e-01 6.5732281e-01 6.7717754e-01 1.1216082e-01 -6.8253054e-02 -3.1515010e-01 -2.0798001e-01 -3.2607854e-01 -1.5865639e-01 -2.6460687e-01 -1.2306285e-01 -2.6989026e-01 -1.1192542e-01 -2.5825191e-01 3.5065456e-02 -5.0779525e-02 1.8121657e-01 -1.6496944e-01 -1.9213969e-02 -3.5700449e-01 1.9169914e-02 -6.4498120e-01 8.3361075e-01 2.2608911e+00 -1.2935108e-01 5.6112606e-02 -2.7559901e-01 -3.7367287e-02 -1.6440210e-01 7.7182521e-03 -1.8664702e-02 1.1562807e-01 1.9691007e-01 4.3516436e-01 5.5957915e-01 6.1489513e-01 2.4205912e-01 -1.3820424e-01 -3.1276904e-01 -3.0254788e-01 -2.7272392e-01 -2.8135023e-01 -2.7469494e-01 -2.4619559e-01 -2.4269866e-01 -2.1972150e-01 -2.0670404e-01 -1.4764284e-01 -6.3243191e-03 1.0637458e-01 4.8628135e-02 -1.3348102e-01 -2.1865791e-01 -2.4147637e-01 -1.7909023e-01 -3.3363735e-01 2.3571418e+00 7.1908301e-01 -2.1377033e-01 -8.7191146e-02 -2.5093730e-01 -1.0074030e-01 -1.1620690e-01 2.4679364e-02 3.4832253e-02 2.1770147e-01 2.7380835e-01 5.1355285e-01 6.3980916e-01 3.7694532e-01 -6.8332084e-02 -2.9980446e-01 -3.7038415e-01 -2.8710301e-01 -2.7918876e-01 -3.1104999e-01 -2.4671748e-01 -2.6526187e-01 -2.2967163e-01 -2.0874599e-01 -4.6682165e-02 1.7881807e-02 5.3170972e-02 -1.8493726e-01 -1.9347314e-01 -3.1928762e-01 -1.7951981e-01 -4.8437995e-01 2.2362600e+00 9.2460351e-01 -2.8956509e-01 -3.3163970e-02 -3.1220100e-01 -7.2248504e-02 -2.1165230e-01 2.9906113e-03 -5.1904729e-02 2.1341559e-01 2.7009434e-01 5.4554166e-01 5.0517413e-01 4.2322877e-01 -1.3061627e-01 -2.4688248e-01 -3.9235331e-01 -2.8532116e-01 -3.5186305e-01 -1.9300131e-01 -3.4204553e-01 -1.8198189e-01 -2.9583497e-01 -3.0734969e-02 -7.1180498e-02 1.6377871e-01 -1.7091183e-01 -8.4125885e-02 -4.2727466e-01 -2.9692359e-03 -7.1512506e-01 1.6301021e+00 1.6798653e+00 -3.0720874e-01 5.2615912e-02 -3.2932029e-01 -1.0119623e-01 -1.8137642e-01 -1.0162040e-02 -4.6953830e-02 1.8716329e-01 3.0153296e-01 4.8972074e-01 5.4137691e-01 3.6507376e-01 -8.3166799e-02 -3.1480260e-01 -3.7794041e-01 -3.8518846e-01 -3.4575065e-01 -3.3895431e-01 -2.8326770e-01 -2.7189964e-01 -1.4361533e-01 -1.1074464e-01 7.5896502e-02 -2.3105079e-01 -1.5397082e-01 -4.2418932e-01 -6.4057929e-02 -6.9886256e-01 1.2017967e+00 1.8614422e+00 -3.4025159e-01 1.2398264e-01 -3.6910582e-01 -2.0693666e-02 -1.9925961e-01 6.1395933e-02 -5.3933283e-02 2.3136030e-01 1.8226140e-01 5.1508360e-01 5.0031300e-01 5.5663815e-01 1.4288701e-02 -1.0074362e-01 -3.3130417e-01 -1.8765206e-01 -3.0172413e-01 -1.1874508e-01 -2.7513730e-01 -1.5628255e-01 -1.3361167e-01 1.0945912e-01 5.2881281e-02 4.2951211e-02 -2.2275217e-01 -1.1532337e-01
