1.0894563e-01 3.1702005e-01 2.4292215e-01 3.1840752e-01 2.7999539e-01 4.1427378e-01 4.1993903e-01 5.2497489e-01 3.5409327e-01 3.4961424e-01 1.9688683e-01 3.6775364e-01 -5.1654655e-02 8.9248901e-01 1.4222124e+00 2.0474519e-01 4.3934107e-01 2.1815689e-01 3.9836777e-01 2.7960758e-01 4.2389823e-01 3.4298055e-01 4.7801468e-01 4.0976128e-01 5.0674543e-01 4.3964443e-01 4.3892601e-01 2.7567376e-01 3.2060583e-01 2.3919644e-01 3.2708492e-01 2.7476003e-01 4.4053400e-01 4.2208595e-01 5.2051177e-01 2.9218105e-01 3.3371110e-01 1.7562533e-01 3.1899607e-01 -6.8534307e-02 1.4085067e+00 9.1653238e-01 2.2261763e-01 3.5667319e-01 2.3932078e-01 3.2494530e-01 2.9664819e-01 3.5706312e-01 3.7407029e-01 4.1690155e-01 4.3229149e-01 4.4451527e-01 4.4299612e-01 3.5432169e-01 3.0549527e-01 2.6970570e-01 3.0499031e-01 3.0397559e-01 4.3089802e-01 4.5629694e-01 5.2197748e-01 3.4724171e-01 3.4330025e-01 2.1451243e-01 3.4270783e-01 -4.1588164e-02 1.2927660e+00 1.0555213e+00 2.2066678e-01 4.1715213e-01 2.4114872e-01 3.7925107e-01 3.0291434e-01 4.1504179e-01 3.7477139e-01 4.7056303e-01 4.3333515e-01 5.0423785e-01 4.5413087e-01 4.1177393e-01 3.1622350e-01 3.3976768e-01 3.0923039e-01 3.9770252e-01 4.5093451e-01 5.5602182e-01 4.8330463e-01 4.0576065e-01 3.0303018e-01 3.4815722e-01 2.0946375e-01 2.8100161e-01 1.5559157e+00 5.8134726e-01 3.5703937e-01 3.6448063e-01 3.3971606e-01 3.7745193e-01 3.8081271e-01 4.3913931e-01 4.3863046e-01 4.9714792e-01 4.9333546e-01 5.2877546e-01 4.8130071e-01 4.0825299e-01 3.5936205e-01 3.7147576e-01 3.7965632e-01 4.7767392e-01 5.1192645e-01 5.6795693e-01 4.0720974e-01 3.9563569e-01 2.9356390e-01 3.8011380e-01 6.9160780e-02 1.3847500e+00 9.0422215e-01 2.6317403e-01 4.6542529e-01 2.8125441e-01 4.2817749e-01 3.4199069e-01 4.6486495e-01 4.0502540e-01 5.1802524e-01 4.7131086e-01 5.5288708e-01 4.8107859e-01 4.4488921e-01 3.3074712e-01 3.6616266e-01 3.4049149e-01 4.7446870e-01 4.8546848e-01 5.5894562e-01 3.5831578e-01 3.7344053e-01 2.6655604e-01 3.2951828e-01 7.0297071e-02 1.4572610e+00 7.1789026e-01 2.8137997e-01 3.8446015e-01 3.0257202e-01 3.6321292e-01 3.5872239e-01 4.0219387e-01 4.2217238e-01 4.6639222e-01 4.8262513e-01 4.9367910e-01 4.7663330e-01 3.7099575e-01 3.3306094e-01 2.9992528e-01 3.6672181e-01 4.2997452e-01 5.2400838e-01 4.5416779e-01 3.7911166e-01 2.7543091e-01 3.3289264e-01 1.4793453e-01 3.0262610e-01 1.5228267e+00 4.6593276e-01 3.5007338e-01 3.1722898e-01 3.2525445e-01 3.3534311e-01 3.6702497e-01 4.0021845e-01 4.2832371e-01 4.6293325e-01 4.7196744e-01 4.9563451e-01 4.2734528e-01 3.4910032e-01 2.9591479e-01 3.0881273e-01 3.3551056e-01 4.3720467e-01 4.8626816e-01 4.9650973e-01 3.5786391e-01 3.1530529e-01 2.7142314e-01 2.3894966e-01 1.0699054e-01 1.5285967e+00 6.9095066e-01 2.7982230e-01 3.4571239e-01 2.7653402e-01 3.3585157e-01 3.2371887e-01 3.6865933e-01 3.8138575e-01 4.2369871e-01 4.2217271e-01 4.5445916e-01 4.0290558e-01 3.1552636e-01 2.6928759e-01 2.6535566e-01 2.5803971e-01 2.7778024e-01 2.9709753e-01 3.8874329e-01 4.4191400e-01 4.5080236e-01 3.1846794e-01 2.5704228e-01 2.1540689e-01 2.0395791e-01 6.2063983e-02 1.5107329e+00 7.5689553e-01 1.9054929e-01 3.1016973e-01 1.9349350e-01 3.0269337e-01 2.4843644e-01 3.3239374e-01 3.0266889e-01 3.9048259e-01 3.5654026e-01 4.1739182e-01 3.4791795e-01 3.1477987e-01 2.1080052e-01 2.4578862e-01 1.9361194e-01 2.6332027e-01 2.1980008e-01 2.8344183e-01 2.3244298e-01 2.7214435e-01 2.1160446e-01 2.5804831e-01 1.9889230e-01 2.5340262e-01 1.9454932e-01 2.5600910e-01 1.9035787e-01 2.5346228e-01 1.8399000e-01 3.1895409e-01 2.9771584e-01 4.3144117e-01 2.5491470e-01 2.9592223e-01 1.2962478e-01 3.0471724e-01 -5.6322878e-02 1.1810260e+00 9.9661559e-01 1.5826113e-01 3.2743908e-01 1.8604598e-01 2.8622943e-01 2.4174059e-01 3.1065334e-01 2.9007869e-01 3.5185792e-01 3.6158965e-01 3.9867067e-01 4.0708949e-01 3.6266252e-01 2.7210435e-01 2.2660694e-01 2.2889640e-01 2.2638623e-01 2.4313135e-01 2.3846579e-01 2.4962821e-01 2.3082433e-01 2.4188635e-01 2.1447445e-01 2.3184083e-01 1.9159038e-01 2.2195863e-01 1.8739521e-01 2.2517901e-01 1.8048074e-01 2.2420693e-01 1.6670313e-01 2.9300232e-01 2.7604863e-01 3.7351122e-01 2.2054747e-01 2.6985524e-01 1.1061309e-01 2.7697523e-01 -9.1156530e-02 9.9308826e-01 1.0951704e+00 1.2290634e-01 3.2075660e-01 1.4633736e-01 2.7465613e-01 2.0773749e-01 3.0363786e-01 2.7334761e-01 3.5691748e-01 3.5786424e-01 4.1394636e-01 4.0003735e-01 3.6286024e-01 2.4614985e-01 2.1148947e-01 1.7982806e-01 1.8777595e-01 1.9354916e-01 2.0848330e-01 2.1076090e-01 2.0909505e-01 2.0489475e-01 1.9525478e-01 1.9394835e-01 1.8605239e-01 1.8864045e-01 1.7697765e-01 1.9081160e-01 1.6090607e-01 2.3153618e-01 2.5839025e-01 3.3296629e-01 2.6868961e-01 2.4035189e-01 1.3624384e-01 2.2513522e-01 1.3573628e-02 4.1521115e-01 1.4138151e+00 2.2293796e-01 2.7500622e-01 1.6795522e-01 2.4453491e-01 2.1130923e-01 2.7282572e-01 2.7322010e-01 3.4456209e-01 3.6943609e-01 4.4531789e-01 4.5197801e-01 4.3170366e-01 2.9414647e-01 2.3696530e-01 1.9264399e-01 1.8402896e-01 1.7271572e-01 2.0924217e-01 2.0899547e-01 2.2344907e-01 2.1623998e-01 2.0922967e-01 1.9674201e-01 2.0174708e-01 1.9402252e-01 1.9808352e-01 1.9204056e-01 2.1024337e-01 2.8087096e-01 3.0666270e-01 3.4627307e-01 2.3499367e-01 2.0974221e-01 1.6156713e-01 1.6989587e-01 7.2096527e-02 1.4449528e+00 5.7601681e-01 1.5221072e-01 2.6720108e-01 1.7892803e-01 2.6661053e-01 2.3439268e-01 3.0360639e-01 3.0264734e-01 3.7309558e-01 4.1559481e-01 4.7855692e-01 4.5687646e-01 3.5743461e-01 2.3378296e-01 1.9633560e-01 1.7479317e-01 1.7420079e-01 1.7433854e-01 1.9220287e-01 1.9908164e-01 1.9910283e-01 1.9533340e-01 1.8760141e-01 1.8202844e-01 1.7702826e-01 2.0127101e-01 2.7140413e-01 3.1829753e-01 3.0458782e-01 2.1849147e-01 1.6839428e-01 1.6417452e-01 8.7508733e-02 1.7125705e-01 1.4792817e+00 3.8830914e-01 1.7604483e-01 1.9457003e-01 1.7459990e-01 2.1523154e-01 2.1934058e-01 2.5917772e-01 2.8003822e-01 3.4703413e-01 3.9827702e-01 4.5702914e-01 4.2194735e-01 2.9833228e-01 1.7436458e-01 1.4810077e-01 1.2097270e-01 1.2918131e-01 1.1839550e-01 1.4263491e-01 1.3512879e-01 1.6205450e-01 1.2733376e-01 1.5047214e-01 1.1870874e-01 1.4267018e-01 1.0504409e-01 1.8089488e-01 2.1815357e-01 2.9191660e-01 2.2291648e-01 1.9229320e-01 8.1213954e-02 1.6260420e-01 -3.3796735e-02 3.0657605e-01 1.4201107e+00 2.2535897e-01 1.7210691e-01 1.2853725e-01 1.5435914e-01 1.5701303e-01 1.9002021e-01 2.1172737e-01 2.5150398e-01 2.9693239e-01 3.6131246e-01 4.1199324e-01 3.8052234e-01 2.5493281e-01 1.4509819e-01 1.1434065e-01 9.9832672e-02 1.1557400e-01 1.0394077e-01 1.2941936e-01 1.1750268e-01 1.3925955e-01 1.2213336e-01 1.3700209e-01 1.0524940e-01 1.2382252e-01 9.5821912e-02 1.2728264e-01 8.9920431e-02 1.2002334e-01 8.0310780e-02 1.2673077e-01 8.4971220e-02 2.0312603e-01 1.9930361e-01 2.8052944e-01 1.3572638e-01 1.7628309e-01 2.6039829e-02 1.8315829e-01 -1.4741712e-01 1.0768516e+00 9.1937900e-01 1.6279773e-02 2.4483574e-01 6.4374687e-02 2.0714510e-01 1.2806377e-01 2.2576345e-01 1.9787646e-01 2.8127511e-01 2.9871048e-01 3.8452986e-01 3.8281302e-01 3.5200740e-01 1.8634302e-01 1.4563254e-01 9.9528290e-02 1.1387633e-01 1.0602229e-01 1.2644491e-01 1.2440745e-01 1.3035111e-01 1.2379513e-01 1.2390311e-01 1.1622852e-01 1.0640293e-01 1.0443248e-01 9.2387789e-02 1.0613388e-01 8.7930311e-02 9.6456054e-02 7.6042931e-02 9.7848517e-02 6.8920113e-02 9.6867981e-02 6.4991184e-02 1.8063205e-01 1.8106620e-01 2.4163702e-01 1.0979150e-01 1.3437840e-01 -2.1976690e-03 1.4049591e-01 -1.7857894e-01 9.4069274e-01 9.3781626e-01 -2.1124643e-02 2.0877575e-01 1.0589563e-02 1.6696460e-01 6.7015650e-02 1.8255172e-01 1.2874627e-01 2.4208025e-01 2.2486166e-01 3.3931812e-01 3.0701517e-01 3.0808309e-01 1.2965296e-01 9.0486765e-02 2.5538064e-02 5.5411412e-02 2.1526768e-02 7.0023045e-02 3.5131029e-02 7.8642144e-02 3.9873464e-02 7.1491190e-02 3.4293089e-02 5.8949808e-02 3.0159630e-02 4.6686968e-02 1.3806396e-02 5.2989884e-02 1.3625566e-02 4.6390968e-02 9.2873337e-03 4.6256299e-02 8.5164694e-03 4.2440889e-02 8.6700737e-03 8.5147092e-02 1.2129324e-01 1.7731293e-01 1.0513385e-01 8.0517793e-02 -1.3844130e-02 6.3168852e-02 -1.1416739e-01 2.0384506e-01 1.2981667e+00 1.6751734e-01 8.1924171e-02 3.5228245e-02 5.9332192e-02 5.1853999e-02 8.9104802e-02 1.0077597e-01 1.4148541e-01 1.8339588e-01 2.5133250e-01 2.8185775e-01 2.9307277e-01 1.7554083e-01 7.4333685e-02 8.1051465e-03 7.4859851e-03 -1.5588261e-02 1.0340451e-02 8.4794180e-05 2.3039875e-02 9.2425055e-03 1.8285781e-02 -5.6425378e-03 1.2831072e-02 -1.8115606e-02 5.9094585e-03 -2.9071811e-02 7.8987350e-03 -2.6102769e-02 9.6802730e-02 8.3340066e-02 1.5660271e-01 1.1093299e-02 3.7824349e-02 -8.3912037e-02 5.3387179e-02 -2.6680600e-01 1.0272184e+00 6.8642009e-01 -1.0862403e-01 1.2612310e-01 -5.2313376e-02 9.5317190e-02 1.6854774e-02 1.3189434e-01 8.6178993e-02 1.9388408e-01 2.0634664e-01 3.1292348e-01 2.9520797e-01 2.5799117e-01 8.6850249e-02 5.7818298e-02 5.4957665e-03 2.7061128e-02 -5.6467619e-04 4.2566859e-02 3.0734146e-02 6.3826505e-02 3.8921652e-02 5.5614026e-02 3.0773569e-02 3.9064756e-02 2.6746175e-02 3.7108582e-02 2.6340173e-02 3.5340351e-02 7.0275782e-02 1.4527180e-01 1.6888683e-01 1.4766896e-01 7.3553795e-02 1.6007456e-02 3.0635690e-02 -6.3890623e-02 1.0283462e-01 1.3440055e+00 2.2818524e-01 8.0857792e-02 4.6516695e-02 7.0125111e-02 6.2733238e-02 1.0843265e-01 1.0632064e-01 1.6354902e-01 1.9125489e-01 2.7297512e-01 2.9222790e-01 3.1469135e-01 1.8732107e-01 8.7961241e-02 8.4906174e-03 2.7477900e-02 -3.9583274e-03 2.8635124e-02 2.0324059e-02 4.9286507e-02 2.9619577e-02 4.9022840e-02 1.6757830e-02 3.4417424e-02 5.8663461e-03 3.2109289e-02 6.0240536e-04 2.8705330e-02 -2.5724369e-03 3.3448481e-02 -7.0466786e-03 3.9483195e-02 -1.3237367e-02 9.7910864e-02 1.0113521e-01 1.7805238e-01 6.6999293e-02 7.8868882e-02 -5.9226471e-02 7.9637997e-02 -2.1177482e-01 4.8462655e-01 1.1792564e+00 -1.0033901e-02 1.2970805e-01 -3.4796474e-02 7.3953073e-02 3.1956646e-03 9.6286151e-02 6.1435035e-02 1.4402619e-01 1.3874842e-01 2.5549638e-01 2.3724841e-01 2.6508816e-01 1.1069092e-01 3.8897196e-02 -2.9624206e-02 -5.7911337e-03 -3.5570616e-02 4.1369119e-03 -1.9587720e-02 1.3491623e-02 -2.6793535e-02 1.0700736e-02 -4.0549208e-02 -1.2720306e-03 -4.9596486e-02 -1.1966139e-02 -6.0989650e-02 -1.3738446e-02 -6.3933939e-02 -1.9198435e-02 -6.9765260e-02 3.0401722e-02 3.6409795e-02 1.2381163e-01 1.2434213e-02 2.2536242e-02 -1.0933294e-01 2.0972274e-02 -2.4178776e-01 2.9032750e-01 1.1735984e+00 -2.2622736e-04 4.5678280e-02 -6.0341616e-02 7.4218701e-03 -2.7336185e-02 4.2373084e-02 2.4247014e-02 9.3556692e-02 1.1593425e-01 2.0146341e-01 2.2365692e-01 2.2511114e-01 1.0218124e-01 2.7565334e-03 -5.0871618e-02 -4.3906199e-02 -5.2234487e-02 -4.5162686e-02 -3.1931091e-02 -2.7231653e-02 -3.5950989e-02 -3.3078522e-02 -4.5279990e-02 -4.8853928e-02 -5.5687075e-02 -4.9845358e-02 -6.5281509e-02 -5.7315045e-02 -7.2183949e-02 -2.2129916e-02 3.5911804e-02 6.2426828e-02 4.2092688e-02 -2.4463439e-02 -8.6952346e-02 -6.0418876e-02 -1.6029717e-01 -1.4415804e-02 1.2451335e+00 1.5430263e-01 -3.3118344e-02 -4.9740130e-02 -3.8518231e-02 -3.5689284e-02 -8.9264571e-05 6.0260129e-03 5.8753463e-02 7.8906061e-02 1.7589880e-01 1.9936858e-01 2.1930706e-01 9.1024278e-02 1.0724631e-03 -7.3704336e-02 -6.1866203e-02 -9.4373903e-02 -5.4440410e-02 -7.8780562e-02 -3.7141740e-02 -6.7971602e-02 -3.6177728e-02 -8.5440865e-02 -4.9503204e-02 -9.9239124e-02 -5.2303009e-02 -1.0979140e-01 1.6254886e-02 -1.2120809e-03 9.4919446e-02 -4.7049045e-02 -1.2242748e-02 -1.6717812e-01 7.8874636e-05 -3.5159265e-01 4.7101235e-01 1.0404304e+00 -1.4665074e-01 4.6575959e-02 -1.2519880e-01 5.7057654e-03 -6.8469405e-02 3.1482417e-02 -1.9550319e-03 8.0593791e-02 9.8604439e-02 1.9473399e-01 1.9191492e-01 1.9654396e-01 4.5195475e-02 -2.4373992e-02 -7.2297667e-02 -6.0907754e-02 -6.8247404e-02 -5.2219623e-02 -5.1037309e-02 -4.4209356e-02 -4.7693536e-02 -4.3566123e-02 -5.8228274e-02 -6.2982396e-02 -6.3493780e-02 -6.3740280e-02 -1.2060944e-02 4.1763507e-02 7.7123144e-02 1.9149677e-02 -3.0345478e-02 -1.0167179e-01 -5.5560760e-02 -2.0326275e-01 4.0174550e-02 1.2364418e+00 9.6306692e-02 -2.3987619e-02 -6.6944413e-02 -3.8022115e-02 -4.7589501e-02 -9.3129056e-03 3.4034665e-03 5.3110148e-02 8.7789004e-02 1.5976468e-01 1.9000077e-01 1.9636458e-01 7.4287350e-02 -1.9960841e-02 -6.7674341e-02 -7.4827328e-02 -7.7975833e-02 -6.5311236e-02 -5.5890691e-02 -4.8844736e-02 -4.6953474e-02 -5.3370769e-02 -5.8480391e-02 -6.3827968e-02 -6.9438257e-02 -3.0589820e-02 4.9260224e-02 6.3468012e-02 6.4676302e-02 -4.2575634e-02 -6.0677594e-02 -1.0771194e-01 -8.2508366e-02 -2.1194368e-01 1.1435842e+00 4.1865611e-01 -1.1256195e-01 1.4281040e-02 -9.4375204e-02 2.1322973e-04 -4.9132399e-02 3.2748026e-02 7.8879557e-03 9.9555846e-02 1.1535825e-01 1.9886821e-01 1.6469457e-01 1.0552819e-01 -3.4212601e-02 -5.4422156e-02 -1.0541905e-01 -6.9023853e-02 -9.8160957e-02 -5.6357326e-02 -8.6903230e-02 -5.4000745e-02 -9.8156712e-02 -7.0499980e-02 -1.1727095e-01 -7.9672238e-02 -1.0226501e-01 2.6546358e-02 -2.7200664e-03 5.7358678e-02 -1.0086575e-01 -6.7586914e-02 -1.9598115e-01 -4.9136715e-02 -3.8675093e-01 8.8341932e-01 6.6640199e-01 -2.0140752e-01 5.3936933e-03 -1.6822930e-01 -1.9344885e-02 -1.1259570e-01 5.7325823e-03 -4.4648828e-02 6.1258635e-02 5.8879903e-02 1.6448701e-01 1.3443531e-01 1.1168991e-01 -4.2467551e-02 -6.2618460e-02 -1.1999628e-01 -7.5919267e-02 -1.1115267e-01 -6.0469013e-02 -9.0047789e-02 -5.4862704e-02 -9.1595580e-02 -7.0886277e-02 -9.8222589e-02 -7.6026061e-02 -6.2871378e-02 2.9498333e-02 2.7283394e-02 3.7325005e-02 -8.6071361e-02 -8.8641532e-02 -1.2591736e-01 -1.4655147e-01 -1.5906720e-01 1.2252378e+00 1.6954258e-01 -8.2515783e-02 -7.9746439e-02 -8.2347174e-02 -7.3384185e-02 -3.3264926e-02 -3.4828658e-02 2.4026143e-02 4.6535593e-02 1.3455512e-01 1.3720614e-01 1.6872463e-01 3.3749371e-02 -3.1935228e-02 -1.0823460e-01 -7.6186789e-02 -1.2079049e-01 -6.7238547e-02 -1.0553963e-01 -4.4589415e-02 -1.0468904e-01 -4.6479384e-02 -1.0256793e-01 3.5191303e-02 1.0374675e-02 1.1708410e-01 -8.6136243e-02 -3.7623449e-02 -1.9737134e-01 -3.2715659e-02 -3.7213713e-01 1.0097477e+00 5.6737474e-01 -2.1091557e-01 -1.2332766e-03 -1.4625377e-01 -3.7438827e-02 -7.8825721e-02 -4.0651076e-03 -1.0411377e-02 5.4153241e-02 1.0170531e-01 1.5191556e-01 1.6053214e-01 7.9731893e-02 -2.9868547e-02 -9.1833709e-02 -9.3784977e-02 -1.0880898e-01 -7.8074588e-02 -9.2166665e-02 -5.7849230e-02 -9.0034591e-02 -5.9491395e-02 -1.0410382e-01 1.6827439e-02 4.6200256e-03 1.1431980e-01 -5.6888832e-02 -3.3901263e-02 -1.9659635e-01 -1.6785670e-02 -3.8440611e-01 7.0512962e-01 8.8001707e-01 -2.1620828e-01 2.6021296e-02 -1.7041759e-01 -2.6496526e-02 -1.0265987e-01 9.1459493e-04 -3.5494944e-02 5.5378351e-02 6.4436031e-02 1.4999320e-01 1.4097317e-01 1.1348332e-01 -3.1598702e-02 -6.8152258e-02 -1.0965244e-01 -9.6770864e-02 -1.0079743e-01 -8.0858589e-02 -8.2023551e-02 -7.4853266e-02 -8.0585203e-02 -9.0063591e-02 -9.3993156e-02 -8.6566827e-02 8.4429082e-03 2.9562872e-02 7.5110447e-02 -8.0328426e-02 -8.4420268e-02 -1.7346471e-01 -9.2100033e-02 -3.3437582e-01 1.0376337e+00 4.9705675e-01 -1.9942124e-01 -2.4807155e-02 -1.6376499e-01 -4.3567544e-02 -1.0699257e-01 -1.5495357e-02 -4.3127491e-02 4.4595945e-02 5.7721247e-02 1.3504161e-01 1.0795193e-01 5.3894439e-02 -7.1699548e-02 -1.0262740e-01 -1.2950003e-01 -1.1259168e-01 -1.1755857e-01 -9.3760821e-02 -9.5538651e-02 -9.5242600e-02 -9.6435345e-02 -1.0779635e-01 -1.0429351e-01 -1.2130633e-01 -1.0690430e-01 -1.2949918e-01 -1.1051584e-01 -1.4009568e-01 -4.9316553e-02 -2.4212852e-02 5.8352685e-02 -6.0713680e-02 -6.9846406e-02 -2.0931372e-01 -6.5890123e-02 -3.7334758e-01 3.5612709e-01 1.0546086e+00 -1.5597775e-01 -1.3090769e-02 -1.8239876e-01 -5.5895191e-02 -1.2927757e-01 -3.1751736e-02 -7.3013802e-02 2.2048549e-02 1.9817544e-02 1.0966739e-01 9.8708687e-02 1.1163784e-01 -2.2461625e-02 -6.3427754e-02 -1.2189833e-01 -9.7509290e-02 -1.1124924e-01 -7.7038014e-02 -8.9371030e-02 -6.2841152e-02 -8.5501479e-02 -7.4557459e-02 -9.2895027e-02 -8.7823676e-02 -9.8364887e-02 -9.4487043e-02 -9.6299905e-02 -9.7203319e-02 -9.2229411e-02 -9.5882886e-02 -2.9979184e-02 9.8623950e-03 5.4019560e-02 -1.5398998e-02 -4.5249147e-02 -1.3453548e-01 -4.4165188e-02 -2.5691699e-01 1.9087396e-01 1.2072179e+00 -1.3134922e-02 1.9719882e-02 -1.0615781e-01 -1.6289481e-02 -6.1709757e-02 1.7356159e-02 -1.1010425e-02 7.1548621e-02 7.1823379e-02 1.6574145e-01 1.5916597e-01 1.8357462e-01 5.0916833e-02 -6.9370165e-03 -7.4784051e-02 -5.1609927e-02 -7.3759706e-02 -3.7205956e-02 -5.7413902e-02 -2.3279213e-02 -5.0863374e-02 -3.5495709e-02 -5.9570756e-02 -5.0501849e-02 -6.9079697e-02 -5.4971597e-02 -7.6064574e-02 -1.8610078e-02 2.3912249e-02 7.4402608e-02 4.1996266e-02 -3.5055324e-02 -7.6131928e-02 -7.7599551e-02 -1.1922912e-01 -1.3737686e-01 1.1897960e+00 2.6586222e-01 -9.8111225e-02 9.9412927e-03 -7.9359930e-02 8.7144781e-03 -1.7836336e-02 4.8924311e-02 4.4548267e-02 1.3434267e-01 1.5222235e-01 2.2978062e-01 1.9075876e-01 1.3363006e-01 -1.4787549e-03 -1.8849461e-02 -6.7478940e-02 -3.9147849e-02 -5.1071593e-02 -1.4924481e-02 -4.0534061e-02 -6.8536274e-03 -3.8001444e-02 -1.8812157e-02 -5.2784604e-02 -3.1388229e-02 -2.2184674e-02 7.6323700e-02 7.5429803e-02 8.6355272e-02 -3.3054042e-02 -2.8889762e-02 -9.6683735e-02 -5.2276048e-02 -1.9974800e-01 1.1898450e+00 4.0010147e-01 -8.5430248e-02 2.9372088e-02 -6.7988097e-02 2.4789666e-02 -9.3832624e-03 6.4777306e-02 5.7065032e-02 1.3595328e-01 1.7834572e-01 2.4160591e-01 2.1746859e-01 1.4401198e-01 4.6116035e-03 -1.5579963e-02 -4.5980850e-02 -2.3167081e-02 -4.8410732e-02 -1.3284116e-03 -2.1638214e-02 5.7097437e-03 -3.0352692e-02 -3.4562711e-03 -4.4611944e-02 -5.8088596e-03 -4.8358977e-02 7.6815193e-02 6.6667001e-02 1.4360361e-01 -1.1428088e-02 2.6277827e-02 -1.3045454e-01 3.5419107e-02 -3.1055044e-01 5.4339864e-01 1.1170994e+00 -8.7605836e-02 8.8341095e-02 -9.2722570e-02 3.9448914e-02 -3.3604014e-02 6.3450129e-02 2.4293542e-02 1.2287680e-01 1.2300743e-01 2.2600439e-01 2.0348336e-01 2.0078105e-01 3.9064482e-02 -5.9019653e-03 -6.1668548e-02 -3.2464345e-02 -6.0367869e-02 -2.6622328e-02 -3.3616783e-02 -8.8839187e-03 -2.9868983e-02 -2.3080641e-02 -3.7629034e-02 -3.0168242e-02 -4.6237385e-02 -3.7682658e-02 -4.9898743e-02 -1.8288485e-02 6.8671226e-02 8.5188780e-02 9.2668701e-02 -1.7570420e-02 -1.4804425e-02 -9.1167174e-02 -6.8816058e-03 -2.5139311e-01 1.0613942e+00 6.5300345e-01 -1.0996926e-01 9.4203150e-02 -7.8836776e-02 6.9358871e-02 -2.6065693e-02 9.8667713e-02 4.2896411e-02 1.6881090e-01 1.4572677e-01 2.6192396e-01 2.0883515e-01 2.0668902e-01 2.3771775e-02 3.6055177e-02 -4.5492627e-02 2.1640093e-02 -2.8314073e-02 4.7610234e-02 -1.1958969e-02 5.4554331e-02 -1.9139590e-02 4.7743186e-02 -2.6662054e-02 3.3876004e-02 -3.7973524e-02 3.4453399e-02 -3.1297896e-02 1.2819537e-01 7.0072742e-02 1.7300166e-01 -2.0661561e-02 6.7880185e-02 -1.1392595e-01 8.1491658e-02 -3.1221302e-01 9.0531594e-01 8.6924364e-01 -1.0263079e-01 1.0946356e-01 -6.8307536e-02 6.2868635e-02 -4.6689833e-03 8.6852500e-02 6.1244622e-02 1.4526018e-01 1.6119830e-01 2.4874454e-01 2.3599075e-01 1.9965355e-01 5.6489105e-02 5.7960205e-03 -3.7950522e-02 -2.5069078e-02 -3.9204746e-02 -1.0545455e-02 -2.1463271e-02 -4.7016311e-03 -2.5251968e-02 -2.1191364e-02 -4.3497256e-02 1.9501281e-02 6.3627676e-02 1.2107665e-01 5.4803361e-02 -9.5680688e-03 -8.1600732e-02 -3.9956116e-02 -1.6568878e-01 4.0009420e-02 1.2633538e+00 9.3193849e-02 -1.2503384e-02 -4.5029462e-02 -2.3365257e-02 -2.3535197e-02 1.8704288e-02 2.4495481e-02 8.9749555e-02 1.1383412e-01 2.1041192e-01 2.1240800e-01 2.2430209e-01 7.8629028e-02 8.3813737e-03 -5.8442049e-02 -3.5141602e-02 -6.7271310e-02 -2.0567758e-02 -5.0660305e-02 -3.4082731e-03 -5.4023330e-02 -1.2064980e-02 -6.2050076e-02 6.7271767e-02 5.9961801e-02 1.6301970e-01 -2.9414497e-02 4.8674231e-03 -1.5835748e-01 2.8250848e-02 -3.5195388e-01 7.7634986e-01 9.1739793e-01 -1.6210004e-01 7.1163570e-02 -1.3152321e-01 1.7143410e-02 -6.8923202e-02 4.1129150e-02 3.3726743e-03 1.0406936e-01 1.0871471e-01 2.0521182e-01 1.7906609e-01 1.4681582e-01 -1.1264714e-02 -3.8392048e-02 -8.2499044e-02 -6.6960071e-02 -7.3943351e-02 -4.3267153e-02 -5.9923832e-02 -3.6977438e-02 -6.1968056e-02 -3.3248800e-02 4.0948650e-02 8.9559318e-02 9.5666967e-02 -3.3258507e-02 -6.6219205e-02 -1.2809933e-01 -6.6678192e-02 -2.7550238e-01 1.0802030e+00 5.8861717e-01 -1.6076147e-01 4.0108308e-02 -1.3779041e-01 1.7348872e-02 -7.8256063e-02 5.1061232e-02 -1.2309683e-02 1.2450550e-01 9.6203947e-02 2.2006623e-01 1.4323104e-01 1.2021238e-01 -6.6225796e-02 -3.5581803e-02 -1.1257725e-01 -4.5278998e-02 -1.0803301e-01 -2.5070445e-02 -9.8382213e-02 -2.2966143e-02 -1.0307612e-01 -3.6664315e-02 -9.7572294e-02 6.3316603e-02 2.0255887e-02 1.2369221e-01 -9.4469632e-02 -3.1119697e-02 -1.8518508e-01 -2.8869031e-02 -3.5522814e-01 1.0243236e+00 5.7856200e-01 -1.5164956e-01 -9.7675482e-03 -1.2031912e-01 -3.6046198e-02 -6.2401889e-02 -9.2551665e-03 1.8740851e-03 5.7107195e-02 1.0196092e-01 1.3747993e-01 1.5730751e-01 6.2225850e-02 -2.2483464e-02 -9.2879639e-02 -8.0507510e-02 -1.0029123e-01 -6.3836704e-02 -8.9120624e-02 -4.2721660e-02 -9.0842680e-02 -4.6975416e-02 -1.0110080e-01 1.1063236e-02 5.9407599e-03 1.2571982e-01 -2.8464691e-02 -1.5240842e-02 -1.7663473e-01 -1.1427586e-02 -3.3345388e-01 3.7044462e-01 1.1765053e+00 -9.9529425e-02 1.2276326e-02 -1.3256918e-01 -3.6318923e-02 -7.9769589e-02 -1.4795604e-03 -1.6796202e-02 4.7661018e-02 7.9560669e-02 1.4142152e-01 1.5131291e-01 1.2227670e-01 -2.9931298e-03 -7.2114632e-02 -9.7800460e-02 -1.0285937e-01 -9.2344853e-02 -9.1685486e-02 -7.2986741e-02 -9.3391115e-02 -1.5561923e-02 1.3097956e-02 9.5345926e-02 -8.0077008e-03 -5.5237857e-02 -1.6601067e-01 -5.9477539e-02 -3.0875926e-01 2.2386853e-01 1.2283941e+00 -9.4099677e-02 -1.8197514e-02 -1.4286999e-01 -6.2139054e-02 -1.0340399e-01 -2.5594835e-02 -4.3422899e-02 3.6995844e-02 5.1167969e-02 1.3149109e-01 1.2396098e-01 1.1653616e-01 -2.6846221e-02 -6.9676981e-02 -1.2139453e-01 -9.7418221e-02 -1.0522356e-01 -7.6236246e-02 -8.6146404e-02 -7.7711775e-02 -6.0732660e-02 3.0608711e-02 5.6614039e-02 6.6364513e-02 -7.2769151e-02 -9.9711631e-02 -1.3877441e-01 -1.3161518e-01 -1.8959571e-01 1.2281634e+00 3.2434799e-01 -1.2797367e-01 -3.5858204e-02 -1.2327271e-01 -3.5712894e-02 -6.9472846e-02 5.9441832e-03 -3.0301543e-03 7.9267889e-02 9.5495204e-02 1.5355251e-01 1.2233779e-01 4.4480324e-02 -6.8391524e-02 -6.8906733e-02 -1.0608772e-01 -6.7207005e-02 -8.1281201e-02 -3.9409949e-02 -7.2997287e-02 -3.6712168e-02 -8.8886194e-02 -1.5855241e-03 3.8206734e-02 1.2128147e-01 2.9575971e-02 -2.7808437e-02 -1.3300659e-01 -4.9310939e-02 -2.2711683e-01 8.5739028e-02 1.2598464e+00 1.1520123e-01 -3.2435761e-02 -6.4741177e-02 -5.5609592e-02 -3.7115094e-02 -1.0220705e-02 1.1587463e-02 3.8069170e-02 1.0272153e-01 1.3314299e-01 1.7287248e-01 1.3403863e-01 4.3735262e-02 -5.0963538e-02 -5.6647012e-02 -7.9952875e-02 -4.7772096e-02 -6.2962566e-02 -2.1551231e-02 -5.1268985e-02 -2.2111602e-02 -6.8138038e-02 -3.0713814e-02 -8.3629631e-02 3.1731687e-02 4.3090572e-02 1.5059784e-01 1.0179479e-02 3.1721613e-03 -1.3334743e-01 1.0280909e-02 -2.7183261e-01 3.0747641e-01 1.2085516e+00 6.9695327e-03 3.5020479e-02 -7.1949922e-02 -1.9473245e-04 -2.1982325e-02 2.7834215e-02 2.6264364e-02 7.9287594e-02 1.1271148e-01 1.6155506e-01 1.8133632e-01 1.6040954e-01 5.1451047e-02 -2.0623891e-02 -4.2343984e-02 -4.5769575e-02 -2.3585322e-02 -2.9699197e-02 2.2235530e-03 -2.5455292e-02 -1.2187362e-03 -4.1692159e-02 -1.4405981e-02 -5.7165048e-02 -2.4173353e-02 -5.3312865e-02 6.0641970e-02 5.3493647e-02 1.7482868e-01 -7.5139272e-03 4.2376619e-02 -1.1443851e-01 5.6736045e-02 -3.3213412e-01 9.0901286e-01 7.6731281e-01 -1.6799438e-01 7.6613771e-02 -1.2279503e-01 2.6523727e-02 -4.9606914e-02 5.3015956e-02 5.7468943e-03 1.0637896e-01 1.0301809e-01 1.7109867e-01 1.4687824e-01 1.1777969e-01 -5.7414018e-03 -4.4416669e-02 -7.9328575e-02 -7.3039163e-02 -6.9974889e-02 -5.2888405e-02 -4.9620575e-02 -6.4534326e-02 -5.2820282e-02 -7.1632035e-02 3.2275054e-02 4.1895753e-02 1.1971100e-01 -5.2870285e-02 -3.4741620e-02 -1.6544081e-01 -2.5162117e-02 -3.4440907e-01 9.6872646e-01 6.9074848e-01 -2.1052596e-01 4.3024122e-02 -1.6287712e-01 -4.0130701e-03 -9.1960007e-02 2.1785955e-02 -2.5537761e-02 9.3562745e-02 8.9537215e-02 1.7643881e-01 1.4374754e-01 9.4992323e-02 -5.6279862e-02 -7.4364389e-02 -1.1389507e-01 -1.0344295e-01 -1.0105181e-01 -8.5592641e-02 -8.5193364e-02 -8.5216017e-02 -9.8687527e-02 -9.6804557e-02 -1.5464573e-02 1.7103211e-02 7.4048662e-02 -7.5152135e-02 -7.8580110e-02 -2.0784535e-01 -6.7984444e-02 -4.0049303e-01 8.0263356e-01 7.7916723e-01 -2.5638519e-01 1.1880327e-02 -2.1634212e-01 -3.7645223e-02 -1.5800977e-01 -1.2130364e-02 -8.8331785e-02 5.0816430e-02 1.0889550e-02 1.3765692e-01 6.9616424e-02 6.2327663e-02 -1.1490853e-01 -1.1332076e-01 -1.8463680e-01 -1.3066131e-01 -1.7513577e-01 -1.1624508e-01 -1.5524239e-01 -1.1379003e-01 -1.6857485e-01 -1.3265039e-01 -1.7640298e-01 -1.4333299e-01 -1.3467868e-01 -2.7119888e-02 -1.1183710e-02 -2.5894557e-02 -1.4091390e-01 -1.7915227e-01 -1.7663225e-01 -2.6224024e-01 -1.1384608e-01 1.1926469e+00 4.0762378e-02 -1.0870297e-01 -1.7581661e-01 -1.2454626e-01 -1.4799539e-01 -8.7501119e-02 -1.0588234e-01 -2.3576239e-02 -2.6835853e-02 6.3461438e-02 5.0344498e-02 7.5189095e-02 -6.9890045e-02 -1.1639325e-01 -1.8846869e-01 -1.5560180e-01 -1.8518503e-01 -1.3973548e-01 -1.7232896e-01 -1.3012751e-01 -1.7694432e-01 -1.4163633e-01 -1.8314434e-01 -1.5632791e-01 -1.9706407e-01 -1.5793772e-01 -2.0036591e-01 -1.6083567e-01 -2.0097752e-01 -1.6243716e-01 -2.0394895e-01 -1.2260890e-01 -9.0397069e-02 -2.9773763e-02 -9.4938293e-02 -1.3973085e-01 -2.1554274e-01 -1.7603693e-01 -2.6645706e-01 -2.0532250e-01 1.0689331e+00 1.6784224e-01 -2.0110844e-01 -1.2204181e-01 -2.0254119e-01 -1.1815352e-01 -1.5750555e-01 -8.8351761e-02 -1.0656215e-01 -8.7234892e-03 -2.0078889e-02 5.9577374e-02 1.1800670e-02 -9.2060777e-03 -1.5568344e-01 -1.5479371e-01 -2.1101652e-01 -1.5801975e-01 -1.9673954e-01 -1.3069600e-01 -1.9494507e-01 -1.3454732e-01 -2.0104787e-01 -1.4825788e-01 -2.1366610e-01 -1.5896214e-01 -2.1772896e-01 -1.5490607e-01 -2.2587890e-01 -8.3840714e-02 -1.1770568e-01 2.3429463e-03 -1.6982545e-01 -1.1554167e-01 -2.8736962e-01 -1.0014336e-01 -4.6223681e-01 3.1347112e-01 9.7056529e-01 -2.3454667e-01 -8.3923247e-02 -2.2663735e-01 -1.2873795e-01 -1.8318913e-01 -1.0754602e-01 -1.1405678e-01 -5.2168334e-02 -1.8248428e-02 4.6242997e-02 7.3988799e-02 3.1824638e-02 -8.5951027e-02 -1.8157064e-01 -1.9642370e-01 -2.0781065e-01 -1.9573377e-01 -1.9804162e-01 -1.7587703e-01 -1.9176390e-01 -1.7591844e-01 -2.0609070e-01 -1.8427096e-01 -1.8821171e-01 -7.1945036e-02 -8.7839428e-02 -3.4999726e-02 -1.9275739e-01 -1.5655870e-01 -2.7284860e-01 -1.3648522e-01 -4.3895624e-01 9.3207727e-01 4.6853281e-01 -2.8186002e-01 -6.3048462e-02 -2.3499125e-01 -9.7638430e-02 -1.6663224e-01 -6.4981984e-02 -9.0269103e-02 1.6182614e-02 2.9986831e-02 1.2562129e-01 9.6654088e-02 4.0556449e-02 -1.1210820e-01 -1.2904597e-01 -1.7257960e-01 -1.4675893e-01 -1.6540415e-01 -1.2657732e-01 -1.4083202e-01 -1.1997510e-01 -1.4766422e-01 -9.3399801e-02 -3.7854988e-02 2.3895937e-02 1.2097969e-03 -9.5085131e-02 -1.6036884e-01 -1.5531466e-01 -2.0687688e-01 -1.5063198e-01 1.2066491e+00 1.9815599e-01 -1.4627893e-01 -9.1649685e-02 -1.4500281e-01 -8.8413708e-02 -1.0035463e-01 -4.1541882e-02 -3.1419064e-02 4.7089824e-02 8.5869690e-02 1.4809743e-01 1.2031995e-01 9.5408194e-03 -9.6108321e-02 -1.2178462e-01 -1.3991976e-01 -1.3300845e-01 -1.2370544e-01 -1.1298563e-01 -1.1370938e-01 -1.1248040e-01 -1.2291776e-01 -1.0254217e-01 -1.3512032e-02 2.2665078e-02 3.7118875e-02 -1.0094152e-01 -1.2421756e-01 -1.7753086e-01 -1.3523253e-01 -3.0639251e-01 1.0861230e+00 4.6235539e-01 -1.9567984e-01 -3.1900189e-02 -1.8014747e-01 -5.0919297e-02 -1.1856867e-01 -1.6377655e-02 -5.2028606e-02 5.3693886e-02 5.4788398e-02 1.4832452e-01 9.9490522e-02 5.0163090e-02 -1.0597221e-01 -1.0241114e-01 -1.5658292e-01 -1.0363981e-01 -1.4288639e-01 -8.9320356e-02 -1.3320188e-01 -8.2223637e-02 -1.3723932e-01 -9.5944936e-02 -1.4943773e-01 -4.9542216e-02 -3.4649903e-02 7.1012484e-02 -3.6048524e-02 -7.0788822e-02 -1.8636811e-01 -9.3233373e-02 -2.7784903e-01 1.4433600e-02 1.1918524e+00 7.9460756e-02 -9.6320856e-02 -1.0864547e-01 -1.1365936e-01 -7.8722443e-02 -7.8590775e-02 -2.7508252e-02 -1.4134063e-02 5.7225925e-02 8.3004584e-02 1.3877771e-01 9.9672455e-02 2.4475882e-02 -9.0197310e-02 -8.6625242e-02 -1.2439754e-01 -7.7545809e-02 -1.0947252e-01 -6.1282972e-02 -9.4726876e-02 -6.2176648e-02 -1.0697866e-01 -6.6751760e-02 -1.2428545e-01 -6.5115608e-02 -1.1582187e-01 2.1152855e-02 1.4898555e-02 1.1240310e-01 -7.9859796e-02 -2.7040918e-02 -1.7641950e-01 -1.0428586e-02 -3.6416316e-01 9.8469449e-01 6.9013770e-01 -1.6166895e-01 4.0291885e-02 -1.1965576e-01 5.2885852e-03 -5.5779092e-02 3.0455879e-02 1.2949400e-02 9.6206875e-02 1.1673632e-01 1.8610465e-01 1.8561631e-01 1.3196938e-01 1.1515794e-02 -3.2023885e-02 -5.5447606e-02 -4.8310484e-02 -3.4542693e-02 -3.9036216e-02 -1.8979548e-02 -4.3001799e-02 -2.7493493e-02 -5.9712253e-02 -3.0816032e-02 -6.7129001e-02 2.9578430e-02 4.1101626e-02 1.4785834e-01 -5.0440847e-03 1.6977584e-03 -1.3855975e-01 2.4014677e-02 -3.1521856e-01 5.0459540e-01 1.1087571e+00 -1.4519425e-01 8.7693867e-02 -1.1732022e-01 3.4043894e-02 -6.2762720e-02 6.3516876e-02 1.0474934e-02 1.2389639e-01 1.1027538e-01 2.1972836e-01 1.8612171e-01 2.0268244e-01 3.0444345e-02 1.5527243e-02 -6.1854199e-02 -1.4225680e-02 -5.2084951e-02 2.7096724e-03 -3.7324584e-02 5.5647580e-03 -4.4845651e-02 -2.2100833e-03 -5.5168062e-02 -1.6497102e-02 -4.6369537e-02 8.0729104e-02 7.6339503e-02 1.5263451e-01 -3.0653976e-02 2.6474568e-03 -1.1980751e-01 4.4837381e-03 -2.8639101e-01 1.0967067e+00 6.2754654e-01 -1.1367267e-01 6.9607182e-02 -8.4647259e-02 3.7845551e-02 -2.5230091e-02 6.9037529e-02 3.9564165e-02 1.3796206e-01 1.4196608e-01 2.2563574e-01 1.9736049e-01 1.5259027e-01 7.2330926e-03 -8.3455513e-03 -5.4581066e-02 -1.3921210e-02 -4.0250062e-02 4.0345030e-03 -3.3257441e-02 -3.4275123e-03 -4.1679660e-02 -1.5344368e-02 -5.0707165e-02 -1.9992553e-02 -5.5512730e-02 -2.2555646e-02 -3.9148880e-02 7.7304197e-02 8.3015964e-02 1.3872983e-01 -2.5913164e-02 -1.2529654e-03 -1.0376031e-01 -1.3980730e-02 -2.4515512e-01 1.1772094e+00 5.2909900e-01 -7.8681163e-02 4.5968889e-02 -6.0390215e-02 2.9662342e-02 -2.3047995e-03 5.9869514e-02 6.1428588e-02 1.2743337e-01 1.6359575e-01 2.1399837e-01 2.1451112e-01 1.4776319e-01 3.5016945e-02 -1.3308267e-02 -2.1134716e-02 -2.2689086e-02 -9.7530412e-04 -6.8740531e-03 8.8266045e-03 -1.4406879e-02 -1.2657386e-03 -2.8984072e-02 -1.2843941e-02 -3.4735166e-02 -1.3055045e-02 -4.6127364e-02 -9.8552284e-03 -5.2485795e-02 6.2557400e-02 6.7268587e-02 1.6803810e-01 1.2508365e-02 3.3868954e-02 -1.1653498e-01 5.5159473e-02 -3.1492272e-01 6.5731472e-01 1.0664092e+00 -1.0383090e-01 9.8609689e-02 -9.7384485e-02 4.9450061e-02 -4.1696161e-02 7.1244581e-02 1.9764191e-02 1.2732010e-01 1.1599291e-01 2.1974198e-01 1.9541318e-01 2.0545453e-01 4.5992038e-02 2.2443962e-02 -5.1768966e-02 -8.5337537e-03 -4.4866840e-02 5.0038740e-03 -3.0463384e-02 7.1346573e-03 -4.2541544e-02 -5.9314320e-03 -4.7322369e-02 -1.8990022e-02 -6.0010733e-02 -1.7005147e-02 -6.9865390e-02 2.6317647e-02 3.3301162e-02 1.4986006e-01 3.5505689e-02 1.6222219e-02 -1.0076197e-01 1.4017606e-02 -2.3169803e-01 2.4830533e-01 1.2532321e+00 -4.4938681e-03 4.6404066e-02 -6.6477842e-02 1.3881204e-02 -3.2464995e-02 4.5590824e-02 2.7781294e-02 1.1142620e-01 1.2085404e-01 2.1461772e-01 2.1479635e-01 2.2818461e-01 7.8959567e-02 1.5904438e-02 -5.7348443e-02 -2.1662656e-02 -5.9662632e-02 -1.0286683e-02 -5.0504161e-02 -4.1490013e-03 -5.9126529e-02 -1.0578690e-02 -7.4329774e-02 4.9700852e-02 3.2077569e-02 1.6095495e-01 -9.9198552e-03 8.1754695e-03 -1.5622995e-01 2.7705998e-02 -3.3607882e-01 5.7849638e-01 1.0865446e+00 -1.7782439e-01 7.2944152e-02 -1.3898355e-01 1.0575634e-02 -7.8490995e-02 3.9773215e-02 -1.0631813e-02 1.0050993e-01 1.0914877e-01 2.1367703e-01 1.9417228e-01 1.8692052e-01 1.3358117e-02 -1.9456528e-02 -8.3774469e-02 -4.7444542e-02 -8.2273374e-02 -3.1604972e-02 -6.9992373e-02 -1.8536197e-02 -7.5089923e-02 1.3398829e-02 3.6875803e-02 1.3448674e-01 3.9537912e-02 -8.0872896e-03 -1.2125567e-01 -1.9581399e-02 -2.3843369e-01 2.1202195e-01 1.3058503e+00 7.3418926e-03 2.1583519e-02 -7.8544312e-02 -1.2679567e-02 -4.7005161e-02 2.1880381e-02 1.1308558e-02 8.6593904e-02 1.0318259e-01 1.9817862e-01 1.9877135e-01 2.0279164e-01 4.3820982e-02 2.2603036e-03 -6.9482039e-02 -2.9719663e-02 -6.9081113e-02 -8.9590990e-03 -5.3034221e-02 -1.7058201e-03 -4.7378504e-02 9.2122621e-02 7.7021021e-02 1.7229888e-01 -2.7363564e-02 7.3291033e-03 -1.4705949e-01 2.2414551e-02 -3.4098738e-01 1.0328881e+00 8.2591203e-01 -1.3995509e-01 6.8537800e-02 -1.0912398e-01 2.4327074e-02 -4.5827162e-02 4.8463332e-02 2.0516294e-02 1.1375371e-01 1.2850660e-01 2.0535258e-01 1.8011117e-01 1.2489307e-01 -1.5214677e-02 -3.5317148e-02 -6.9902096e-02 -5.0705160e-02 -4.5370832e-02 -3.0052904e-02 -3.9835132e-02 -2.9338076e-02 -4.4319085e-02 -1.0733670e-02 6.7453233e-02 1.1351629e-01 1.1241261e-01 -2.0412338e-02 -4.6401382e-02 -8.6088190e-02 -7.5326777e-02 -1.6296504e-01 1.2566350e+00 4.4231141e-01 -8.1826048e-02 2.1216899e-02 -7.1524739e-02 1.4578686e-02 -2.0761607e-02 5.0035314e-02 3.9719520e-02 1.2370207e-01 1.4490484e-01 2.0560769e-01 1.8342269e-01 1.0649485e-01 -1.4389732e-02 -3.6184370e-02 -5.9685550e-02 -3.7594745e-02 -4.0624411e-02 -2.4183377e-02 -3.1920996e-02 -3.0150007e-02 -4.6683994e-02 -4.3979112e-02 -6.1765439e-02 -2.2561854e-02 4.8058465e-02 9.7269886e-02 7.2152496e-02 -3.5562872e-02 -7.4651998e-02 -8.3592439e-02 -1.3673933e-01 -9.4837004e-02 1.2637451e+00 2.6469517e-01 -6.6905550e-02 -3.9811392e-02 -7.7722411e-02 -3.7950655e-02 -3.6521171e-02 4.3731368e-03 2.8061529e-02 7.5154353e-02 1.2724023e-01 1.5315016e-01 1.5744498e-01 4.5607398e-02 -3.9710786e-02 -8.7530303e-02 -8.0795604e-02 -9.6051805e-02 -6.5497467e-02 -8.3943201e-02 -5.8551456e-02 -8.9117164e-02 -6.0234981e-02 -1.0961330e-01 -6.5532173e-02 -1.1744621e-01 -7.9623087e-03 -9.4892326e-03 1.0859729e-01 -5.4377597e-02 -3.5543015e-02 -1.8823563e-01 -1.6661672e-02 -3.7048762e-01 4.6273117e-01 1.0321208e+00 -2.0194879e-01 1.8904912e-02 -1.6890149e-01 -4.1697204e-02 -1.1111213e-01 -1.0597038e-02 -4.5145136e-02 4.7080701e-02 5.2026361e-02 1.3732228e-01 1.2788884e-01 1.1520305e-01 -3.0497234e-02 -7.7506877e-02 -1.2198401e-01 -1.1528992e-01 -1.1732675e-01 -9.8332669e-02 -9.8158069e-02 -9.5166331e-02 -9.8768759e-02 -1.0642937e-01 -1.1059225e-01 -1.0747219e-01 -1.2114527e-02 9.2804789e-03 5.1703726e-02 -9.5070267e-02 -9.2931960e-02 -1.9254639e-01 -8.4129870e-02 -3.5156621e-01 9.8761616e-01 5.5538193e-01 -2.2581763e-01 -4.2298709e-03 -1.8340960e-01 -3.7036511e-02 -1.2023250e-01 -3.4440951e-03 -4.7809362e-02 6.4555507e-02 5.9442675e-02 1.5728296e-01 1.1471002e-01 7.4767747e-02 -8.0940555e-02 -9.4176691e-02 -1.4416464e-01 -1.1093479e-01 -1.3096643e-01 -9.3332737e-02 -1.1025345e-01 -8.4910360e-02 -1.0933187e-01 -9.6856664e-02 -1.1735610e-01 -1.0512316e-01 -1.2427920e-01 -8.7753661e-02 -1.7984507e-02 3.3631443e-02 3.5577540e-02 -8.1689720e-02 -1.0518223e-01 -1.5396550e-01 -1.2193400e-01 -2.7773131e-01 1.1020421e+00 4.3566380e-01 -1.6572434e-01 -1.9408924e-02 -1.4959023e-01 -3.4853269e-02 -9.5366238e-02 -1.0836732e-03 -2.9244787e-02 6.8203422e-02 8.0233989e-02 1.6504307e-01 1.3019837e-01 7.7748547e-02 -7.2536280e-02 -8.7600932e-02 -1.3249679e-01 -1.0330872e-01 -1.2622781e-01 -8.8054616e-02 -1.0841868e-01 -8.1132924e-02 -1.0934565e-01 -1.0043000e-01 -1.2185944e-01 -1.1038508e-01 -1.2574633e-01 -1.2058326e-01 -1.2591088e-01 -1.2815615e-01 -1.2418194e-01 -1.3404244e-01 -6.7973149e-02 -2.2205031e-02 3.7808928e-02 -5.0892323e-02 -8.1393218e-02 -1.7674861e-01 -7.0896410e-02 -3.2664263e-01 2.6900684e-01 1.1220340e+00 -1.1604813e-01 2.4375386e-04 -1.6906598e-01 -4.2537103e-02 -1.2430023e-01 -5.8637999e-03 -6.1330184e-02 5.2144557e-02 3.4271738e-02 1.5267157e-01 1.2222586e-01 1.7294382e-01 -1.4136413e-04 -3.1500596e-02 -1.1970323e-01 -6.6704308e-02 -1.1118795e-01 -5.0553804e-02 -9.2664492e-02 -3.1557505e-02 -8.7166913e-02 -3.6780633e-02 -8.9309947e-02 -4.4432103e-02 -9.7248060e-02 -4.9650948e-02 -9.7899237e-02 -4.8850781e-02 -9.6079148e-02 -4.1693090e-02 -9.1439142e-02 -3.9641306e-02 -6.4956156e-02 7.1199226e-02 2.9431531e-02 9.3254877e-02 -6.1718373e-02 -1.1522883e-02 -1.2757647e-01 -1.1414152e-02 -2.5941674e-01 1.1126271e+00 5.2894815e-01 -9.2262437e-02 4.3450607e-02 -6.8254065e-02 1.3541831e-02 -1.2474053e-02 4.5674933e-02 4.8390955e-02 1.1676535e-01 1.5597785e-01 2.2694052e-01 2.2639678e-01 1.6245979e-01 2.7212444e-02 -3.0370175e-02 -4.8095542e-02 -5.1166812e-02 -4.6954891e-02 -4.0052968e-02 -3.2344786e-02 -2.4730680e-02 -3.1445575e-02 -3.8836176e-02 -4.2997831e-02 -4.4409796e-02 -5.1339765e-02 -5.0375953e-02 -5.3588957e-02 -5.1290255e-02 -5.9545213e-02 -1.9900961e-02 4.5886992e-02 6.2117837e-02 2.3081850e-02 -2.7144358e-02 -6.7875347e-02 -6.3462010e-02 -1.2275843e-01 -5.5302517e-02 1.2442157e+00 1.9860315e-01 -4.4901840e-02 -1.0303816e-02 -4.3918905e-02 -9.4940676e-03 -5.4098091e-03 3.3817481e-02 5.8806146e-02 1.2455737e-01 1.8050693e-01 2.5026122e-01 2.3519197e-01 1.3244885e-01 -5.1905651e-03 -4.5677711e-02 -7.3156915e-02 -6.8309818e-02 -7.1941317e-02 -4.6777450e-02 -5.6304842e-02 -3.0163875e-02 -5.6172754e-02 -4.2484387e-02 -6.9582744e-02 -4.6054057e-02 -7.7831888e-02 2.3368475e-02 3.5759125e-02 9.5459870e-02 -6.5444029e-03 -1.3575780e-02 -1.1865752e-01 -5.9149384e-03 -2.3908604e-01 2.2733321e-01 1.2325674e+00 -1.8280980e-02 4.1363363e-02 -6.8310693e-02 6.6297419e-03 -2.7477598e-02 4.3587421e-02 3.6710827e-02 1.1093481e-01 1.4647814e-01 2.5045644e-01 2.7826283e-01 2.7607239e-01 1.0449713e-01 1.1059088e-02 -4.0283060e-02 -3.8572725e-02 -4.9550748e-02 -3.8717373e-02 -3.2034653e-02 -2.2122743e-02 -1.8137810e-02 -2.5615825e-02 -2.4369794e-02 -3.5306726e-02 -2.5784107e-02 -1.7668310e-02 8.0075363e-02 8.3705535e-02 1.1574826e-01 -1.7691791e-02 6.3056019e-03 -9.8479760e-02 2.5579655e-02 -2.8249643e-01 1.0421719e+00 7.3284216e-01 -1.3408931e-01 1.1134829e-01 -8.7677112e-02 7.1446578e-02 -3.1566879e-02 1.0168808e-01 4.3190898e-02 1.7432332e-01 1.6765594e-01 3.0435992e-01 2.6051688e-01 2.3415329e-01 2.6591186e-02 1.4304752e-02 -6.5684986e-02 -9.6725306e-03 -6.3329830e-02 -3.5895475e-03 -5.2534738e-02 5.7886644e-03 -4.9622991e-02 -2.5803282e-03 -6.2526159e-02 -9.4326543e-03 -6.9290753e-02 -1.1115028e-02 -7.6261239e-02 4.5256032e-02 3.9396762e-02 1.1299054e-01 -1.2224966e-03 6.1251072e-03 -1.0832145e-01 -4.6172905e-04 -2.1706347e-01 1.6186776e-01 1.2751275e+00 1.0229811e-01 4.4135220e-03 -4.0099539e-02 -2.1646298e-02 -1.1597811e-02 1.0325766e-02 3.9315101e-02 6.8736286e-02 1.3172285e-01 1.9618178e-01 2.4468051e-01 2.3161859e-01 1.1124340e-01 -8.6794637e-03 -5.0163044e-02 -6.1622629e-02 -6.0231088e-02 -5.8433055e-02 -4.1444476e-02 -4.4261134e-02 -4.2027996e-02 -5.0540991e-02 -5.1537488e-02 -6.4944887e-02 -6.4358868e-02 -7.1968334e-02 -6.8379147e-02 -7.6358020e-02 -7.6507564e-02 -7.8819499e-02 -4.4999521e-02 3.5861139e-02 3.7092535e-02 3.1638102e-02 -6.0170184e-02 -6.8608968e-02 -1.2014588e-01 -7.9108493e-02 -2.3371494e-01 1.1241084e+00 4.8484821e-01 -1.3061734e-01 2.8469864e-02 -1.1954249e-01 6.9764193e-03 -6.3072730e-02 3.6899134e-02 -4.2936256e-03 1.0718866e-01 1.1143804e-01 2.2524083e-01 1.8695744e-01 1.6057434e-01 -2.9585790e-02 -4.6638508e-02 -1.1403393e-01 -6.5822466e-02 -1.1171650e-01 -5.3451239e-02 -9.3832662e-02 -4.5047282e-02 -9.5145341e-02 -5.1189152e-02 -1.1253247e-01 -5.6179314e-02 -1.1756339e-01 -6.2782660e-02 -1.3119652e-01 -6.2645536e-02 -1.3154735e-01 8.2084825e-04 -2.5438473e-02 4.8458512e-02 -1.0497819e-01 -8.9566585e-03 -1.9123878e-01 1.1076340e-02 -3.7564636e-01 7.0952734e-01 9.0561870e-01 -1.9274389e-01 5.1682809e-02 -1.4864714e-01 -5.4295335e-03 -8.5717471e-02 1.7557521e-02 -1.9320110e-02 7.9243578e-02 9.3934131e-02 2.0828998e-01 2.0552509e-01 2.0119968e-01 1.5781389e-02 -3.4443003e-02 -1.0655166e-01 -7.4817816e-02 -1.1473302e-01 -6.7852165e-02 -9.8103594e-02 -5.7572437e-02 -8.9216173e-02 -5.6330376e-02 -1.0214990e-01 -6.6587449e-02 -1.1120714e-01 -7.1735437e-02 -1.0494935e-01 1.4781959e-02 -1.5707089e-03 5.0551189e-02 -9.1501557e-02 -2.7938826e-02 -1.8088799e-01 -5.8832726e-03 -3.7659748e-01 8.5333232e-01 7.9193720e-01 -2.0195248e-01 6.2762165e-02 -1.5437156e-01 9.8274102e-03 -8.6020500e-02 3.5914990e-02 -2.4197130e-02 1.0150321e-01 9.5862146e-02 2.2449836e-01 2.0027057e-01 1.9276799e-01 -1.2498671e-02 -4.4868905e-02 -1.2145212e-01 -7.5233299e-02 -1.2608549e-01 -6.8691133e-02 -1.0437752e-01 -6.2204568e-02 -1.0141704e-01 -7.2056603e-02 -1.1562339e-01 -7.6053075e-02 -1.2578498e-01 -8.2150171e-02 -1.3416216e-01 -9.2253683e-02 -1.3989466e-01 -4.8702187e-02 -3.1371555e-02 3.0159074e-02 -7.0857292e-02 -6.3748565e-02 -1.7600195e-01 -9.0160634e-02 -2.5752044e-01 8.6862057e-03 1.2009072e+00 8.0299206e-02 -9.8789895e-02 -1.0363335e-01 -1.1939609e-01 -8.8036774e-02 -8.6418217e-02 -4.3965647e-02 -2.5393382e-02 4.1912019e-02 9.1682143e-02 1.6326969e-01 1.4171901e-01 5.4248105e-02 -9.2654667e-02 -1.2793183e-01 -1.6429593e-01 -1.4279945e-01 -1.6011671e-01 -1.2627439e-01 -1.4600399e-01 -1.1984278e-01 -1.4886771e-01 -1.2881310e-01 -1.6364714e-01 -1.3564042e-01 -1.6938481e-01 -1.3820773e-01 -1.7134721e-01 -1.4211432e-01 -1.7593990e-01 -1.3504164e-01 -1.6760864e-01 -5.1580759e-02 -6.0241444e-02 -3.3561437e-02 -1.4823164e-01 -1.0492689e-01 -2.1713313e-01 -1.0282662e-01 -3.5767112e-01 1.0029656e+00 4.9064039e-01 -2.0816066e-01 -5.4294075e-02 -1.8758226e-01 -7.9130603e-02 -1.3893900e-01 -5.5923852e-02 -7.5412043e-02 1.5237376e-03 3.0818904e-02 1.2386321e-01 1.2514276e-01 8.0296753e-02 -8.3118424e-02 -1.3883512e-01 -1.9432416e-01 -1.7415913e-01 -1.8948176e-01 -1.6574871e-01 -1.7597223e-01 -1.5681641e-01 -1.8002033e-01 -1.6347970e-01 -1.8936480e-01 -1.7493701e-01 -2.0226659e-01 -1.8482857e-01 -2.0435646e-01 -1.8592187e-01 -2.0958840e-01 -1.8691689e-01 -2.0550730e-01 -1.0243959e-01 -9.9296781e-02 -8.3775079e-02 -1.8472089e-01 -1.5674394e-01 -2.7030327e-01 -1.4923184e-01 -4.3073543e-01 9.0160331e-01 5.2583677e-01 -2.8658768e-01 -8.0775427e-02 -2.6157922e-01 -1.2252092e-01 -2.1150591e-01 -9.5690951e-02 -1.5071881e-01 -2.9337901e-02 -3.2209367e-02 9.6338884e-02 6.7504430e-02 6.0482142e-02 -1.3770349e-01 -1.7558782e-01 -2.5091386e-01 -2.0591320e-01 -2.5575735e-01 -1.9715692e-01 -2.3899438e-01 -1.9144775e-01 -2.4195768e-01 -1.9691672e-01 -2.5089924e-01 -2.0603055e-01 -2.6227497e-01 -2.0980782e-01 -2.6696511e-01 -2.0983919e-01 -2.4877218e-01 -1.2957430e-01 -1.5105398e-01 -1.1568421e-01 -2.3611438e-01 -1.8598750e-01 -3.0028532e-01 -1.8848764e-01 -4.1619440e-01 1.0177724e+00 2.8864934e-01 -2.7815693e-01 -1.3460462e-01 -2.4537126e-01 -1.6175733e-01 -1.8541859e-01 -1.2971248e-01 -1.1891574e-01 -4.8625063e-02 9.3063929e-04 7.2291729e-02 9.6504292e-02 1.8364341e-02 -1.1544220e-01 -1.9870831e-01 -2.1331122e-01 -2.2928668e-01 -2.1383082e-01 -2.1867148e-01 -1.9469229e-01 -2.1231279e-01 -1.9181615e-01 -2.2131050e-01 -1.9817822e-01 -2.3679567e-01 -2.0915688e-01 -2.3935348e-01 -2.0493266e-01 -2.2621626e-01 -1.2186079e-01 -1.1348555e-01 -9.4599864e-02 -2.0744790e-01 -1.6115875e-01 -2.7487386e-01 -1.4988195e-01 -4.2493945e-01 9.6443601e-01 4.7033087e-01 -2.7249578e-01 -8.3305312e-02 -2.3808505e-01 -1.1323499e-01 -1.7729160e-01 -8.5734678e-02 -1.0661797e-01 -1.1327048e-02 1.4610076e-02 1.1969036e-01 1.1650359e-01 7.2987418e-02 -9.4360172e-02 -1.5224008e-01 -1.9253525e-01 -1.8131676e-01 -1.8951031e-01 -1.6712923e-01 -1.7883156e-01 -1.6120261e-01 -1.7694392e-01 -1.7467099e-01 -1.9098511e-01 -1.8327848e-01 -1.9939840e-01 -1.8676454e-01 -2.0176901e-01 -1.4316677e-01 -8.3058484e-02 -6.5322652e-02 -1.0566932e-01 -1.7670145e-01 -2.0717131e-01 -2.0999061e-01 -2.5127158e-01 -2.4519948e-01 1.1369332e+00 1.7569465e-01 -1.9331305e-01 -1.4008670e-01 -1.9652880e-01 -1.3909434e-01 -1.4615798e-01 -1.0288099e-01 -8.3894018e-02 -2.0693225e-02 4.0127238e-02 1.0438272e-01 1.1851976e-01 2.5326504e-02 -1.0727062e-01 -1.7032856e-01 -1.8165246e-01 -1.8341581e-01 -1.7222442e-01 -1.7088231e-01 -1.5726493e-01 -1.6607207e-01 -1.5646993e-01 -1.6834103e-01 -1.5899227e-01 -1.7945619e-01 -1.6210430e-01 -1.8083651e-01 -1.5243671e-01 -1.6970458e-01 -5.3722503e-02 -6.0964064e-02 -1.6946189e-02 -1.4568579e-01 -9.9176459e-02 -2.3526636e-01 -6.9509191e-02 -4.2525497e-01 6.8886704e-01 8.8498847e-01 -2.1901426e-01 1.5254771e-02 -2.0036557e-01 -3.8123849e-02 -1.3852202e-01 -1.1334668e-02 -7.1456309e-02 5.4591080e-02 3.8517430e-02 1.7934316e-01 1.5378104e-01 1.7761743e-01 -1.7358405e-02 -4.7882505e-02 -1.3700113e-01 -8.6619139e-02 -1.3493856e-01 -7.4471309e-02 -1.1639918e-01 -6.2520860e-02 -1.2178416e-01 -6.9050038e-02 -1.2647400e-01 -7.5832597e-02 -1.3201773e-01 -8.0124607e-02 -1.4053473e-01 -5.2756795e-02 -3.1222494e-02 3.6951066e-02 -7.2773801e-02 -4.2077365e-02 -1.6300828e-01 -6.3828774e-02 -2.5228860e-01 4.8851658e-02 1.2290546e+00 7.0165326e-02 -6.4752109e-02 -8.0338445e-02 -1.0147686e-01 -6.1072880e-02 -6.2841263e-02 -1.1537148e-02 -3.5946187e-03 7.6331280e-02 1.1774397e-01 2.0176607e-01 1.8075632e-01 9.4107853e-02 -5.9292894e-02 -8.0856666e-02 -1.2497980e-01 -8.6963078e-02 -1.2132069e-01 -7.3816202e-02 -1.1080473e-01 -6.3308119e-02 -1.1709246e-01 -7.2309320e-02 -1.3081735e-01 -6.9667978e-02 -1.2885253e-01 1.9311842e-02 -2.1132307e-02 6.8130309e-02 -9.8878321e-02 -3.4966697e-02 -2.0794332e-01 -3.6939568e-03 -3.8484187e-01 5.4160450e-01 1.0255574e+00 -1.8702971e-01 2.8468636e-02 -1.5406464e-01 -3.2782635e-02 -9.5680522e-02 -3.1889488e-03 -3.0505832e-02 5.1911595e-02 7.7217813e-02 1.7435994e-01 1.9588407e-01 1.8364539e-01 4.0376163e-02 -4.6002956e-02 -9.5021849e-02 -8.9131794e-02 -9.5733416e-02 -8.3766607e-02 -8.0598385e-02 -7.3709200e-02 -7.8382432e-02 -9.4864547e-02 -8.0486490e-02 -8.0004971e-02 2.0404913e-02 3.4391375e-02 8.8337780e-02 -7.8163910e-02 -7.0208244e-02 -1.5848512e-01 -6.4379276e-02 -3.0817048e-01 1.0714978e+00 5.7029514e-01 -1.8363255e-01 1.8236905e-02 -1.4498510e-01 -1.0977809e-02 -9.0889313e-02 1.7583332e-02 -1.6255175e-02 9.2455619e-02 1.0456610e-01 2.1540486e-01 1.8805153e-01 1.5442708e-01 -2.1537524e-02 -5.3431835e-02 -1.0586456e-01 -7.5191569e-02 -1.0255368e-01 -6.1377568e-02 -8.9928564e-02 -5.6000739e-02 -8.9547518e-02 -7.2582659e-02 -9.9165418e-02 -8.0087969e-02 -1.0484945e-01 -8.3860696e-02 -7.5851876e-02 1.9961545e-02 4.0033066e-02 4.9918838e-02 -7.9965332e-02 -8.0998032e-02 -1.3302575e-01 -1.2037504e-01 -2.0730184e-01 1.2060457e+00 3.3735100e-01 -1.1494214e-01 -3.8986718e-02 -1.1147941e-01 -4.3731367e-02 -5.9977787e-02 -5.7905358e-03 3.2215960e-03 6.7884818e-02 1.1057088e-01 1.8157300e-01 1.8519939e-01 1.2123752e-01 -1.7658732e-02 -6.1944540e-02 -9.3280000e-02 -7.7491962e-02 -8.1833458e-02 -5.8689143e-02 -7.0975461e-02 -5.0897754e-02 -7.2324821e-02 -5.7552194e-02 -8.5452419e-02 -6.3942161e-02 -9.4105754e-02 -6.1442557e-02 -1.0330876e-01 -6.1485620e-02 -9.8467703e-02 1.6193806e-02 1.2550201e-02 8.5039019e-02 -4.2729987e-02 -2.0554175e-02 -1.5520679e-01 2.4925029e-03 -3.1050146e-01 4.0154993e-01 1.1670505e+00 -7.0459199e-02 4.5155400e-02 -1.1187225e-01 -4.3643824e-03 -6.7002591e-02 2.3644102e-02 -8.9344602e-03 7.0298444e-02 7.8822113e-02 1.7946768e-01 1.8570091e-01 2.0903658e-01 6.8835490e-02 -7.6089054e-03 -7.2890118e-02 -6.2044457e-02 -7.8906053e-02 -4.6241116e-02 -6.0743321e-02 -4.2264528e-02 -6.1080879e-02 -5.1993531e-02 -7.2374256e-02 -6.5739225e-02 -7.5719595e-02 -6.8501260e-02 -7.4688303e-02 -6.9689019e-02 -7.3927474e-02 -3.3408566e-02 3.6448904e-02 4.7531205e-02 6.3802554e-02 -4.1550947e-02 -2.9326420e-02 -1.0489905e-01 -2.6491348e-02 -2.3908587e-01 1.1295154e+00 5.7999778e-01 -1.2231804e-01 8.7914459e-02 -8.3156936e-02 5.6883702e-02 -2.2683222e-02 9.9419992e-02 3.8734211e-02 1.6836673e-01 1.6243055e-01 2.9138753e-01 2.5820897e-01 2.6082784e-01 6.7848442e-02 5.2212897e-02 -2.9217282e-02 2.5830070e-02 -2.9972698e-02 3.7536438e-02 -1.4638832e-02 4.1490371e-02 -1.3913286e-02 3.4595825e-02 -2.9083645e-02 2.5562618e-02 -3.3530306e-02 2.1621555e-02 -9.4413385e-03 1.3474465e-01 8.7280468e-02 1.4155425e-01 -2.1956244e-02 4.3127411e-02 -8.7832921e-02 5.0238294e-02 -2.4205184e-01 1.1798248e+00 5.7864233e-01 -8.1796212e-02 7.9471464e-02 -4.9387879e-02 4.0895159e-02 5.0196797e-03 6.7998516e-02 6.8931619e-02 1.4315023e-01 1.8560893e-01 2.6023015e-01 2.7613018e-01 2.0845292e-01 6.4212732e-02 -1.1711206e-02 -3.0694745e-02 -4.2657139e-02 -3.6462843e-02 -3.3909792e-02 -1.8374991e-02 -3.2347373e-02 -2.0521308e-02 -3.8398966e-02 -2.5652722e-02 -5.0908153e-02 -2.3703521e-02 -5.1578862e-02 3.9758863e-02 6.7405236e-02 1.2116368e-01 3.3996951e-02 1.1434615e-02 -7.8267525e-02 6.3173524e-03 -1.8164668e-01 1.6629946e-01 1.3125709e+00 1.0811279e-01 3.9570020e-02 -2.5432771e-02 4.5475929e-03 -7.3663702e-03 3.5221045e-02 3.9297298e-02 9.8078148e-02 1.3051242e-01 2.1395187e-01 2.5369704e-01 2.6460265e-01 1.4461699e-01 3.2325021e-02 -3.0096170e-02 -3.6533135e-02 -4.5736126e-02 -2.6263354e-02 -2.8668390e-02 -1.3020158e-02 -2.2345969e-02 -1.7236775e-02 -2.9509135e-02 -2.4273871e-02 -4.0698138e-02 -2.1879152e-02 -4.3106752e-02 1.9791084e-02 7.1056846e-02 1.4222898e-01 7.1502278e-02 6.6817875e-03 -5.7654620e-02 -9.2127440e-03 -1.5116588e-01 9.3564305e-02 1.3254126e+00 1.6291110e-01 2.6450404e-02 -2.0412218e-02 4.5616142e-03 9.2817930e-04 4.5801802e-02 5.1511143e-02 1.0752333e-01 1.3895135e-01 2.2534336e-01 2.5239396e-01 2.8727960e-01 1.6291943e-01 6.2118219e-02 -1.2205207e-02 -2.9317110e-04 -2.2821132e-02 8.4084129e-03 -1.2663361e-02 2.1597398e-02 -3.5709108e-03 1.9422751e-02 -1.2481593e-02 1.4343030e-02 -2.3960802e-02 1.7261154e-02 -2.8269052e-02 1.3932541e-02 -2.8673541e-02 8.1564633e-02 8.5217209e-02 1.8890382e-01 4.4914511e-02 5.4289902e-02 -7.9434121e-02 7.2025766e-02 -2.4178307e-01 4.7146274e-01 1.2469006e+00 2.1122586e-03 1.0901802e-01 -4.3248001e-02 5.9567836e-02 3.3860112e-03 9.1074280e-02 6.1653131e-02 1.5006040e-01 1.5825931e-01 2.6119391e-01 2.7371664e-01 2.9481112e-01 1.5228597e-01 7.8110648e-02 -2.9663717e-04 2.0948369e-02 -1.8833649e-03 3.1780812e-02 1.3301550e-02 4.0139760e-02 1.8685415e-02 3.5629861e-02 6.8247531e-03 2.4386162e-02 6.2164868e-03 2.1580771e-02 -2.8344762e-03 2.4130265e-02 -6.8836837e-03 6.2708137e-02 9.9662047e-02 1.8300278e-01 1.1065222e-01 5.4841308e-02 -1.8426311e-02 3.7479391e-02 -9.8855303e-02 1.1926177e-01 1.3502236e+00 1.8917896e-01 4.5066934e-02 2.0354469e-02 2.8694032e-02 3.9209224e-02 6.3659024e-02 8.8500262e-02 1.2220405e-01 1.6766872e-01 2.4449797e-01 2.9079525e-01 3.0862317e-01 2.0874586e-01 8.4728031e-02 1.6652262e-02 4.9664954e-03 3.5768813e-03 1.1549440e-02 9.6779367e-03 2.9453499e-02 1.5946160e-02 2.6124468e-02 3.7116138e-03 1.9334174e-02 -1.1569218e-02 8.0137755e-02 1.0402824e-01 1.9010277e-01 7.4125102e-02 4.4984874e-02 -6.0354181e-02 5.2361124e-02 -1.9679507e-01 3.5109751e-01 1.2874310e+00 -1.9278131e-02 9.4835378e-02 -5.0893344e-02 4.9850593e-02 -1.4471222e-02 8.3103692e-02 4.1974938e-02 1.4745465e-01 1.4382476e-01 2.6980365e-01 2.6725462e-01 3.0483527e-01 1.2579813e-01 5.6925070e-02 -3.9101896e-02 1.5145927e-03 -5.2954889e-02 8.9539740e-03 -4.1407509e-02 2.0957431e-02 -4.1768140e-02 1.0344190e-02 -5.0057486e-02 4.9668973e-03 -5.6084094e-02 9.1403888e-02 6.4380151e-02 1.8031820e-01 -2.8197206e-02 3.4264724e-02 -1.4335054e-01 5.6898273e-02 -3.3914806e-01 8.4083229e-01 9.3872057e-01 -1.2824973e-01 8.7316636e-02 -1.0104060e-01 3.1510311e-02 -4.0023801e-02 5.5360319e-02 2.4613655e-02 1.1884115e-01 1.3338456e-01 2.3227539e-01 2.4265780e-01 2.2150571e-01 6.5307630e-02 -5.8300799e-03 -4.8993933e-02 -3.7529574e-02 -4.9325811e-02 -3.2144021e-02 -2.8802625e-02 -3.2592414e-02 -2.9558302e-02 -4.0729116e-02 -4.0312043e-02 -5.1673652e-02 -4.6124464e-02 -4.6425901e-02 5.0128301e-02 6.8876300e-02 1.2371151e-01 -3.9612115e-02 -1.9873597e-02 -1.3684246e-01 5.6669186e-04 -3.2884447e-01 9.5763771e-01 7.8682223e-01 -1.6258658e-01 7.1941496e-02 -1.3192381e-01 2.6538714e-02 -7.7600967e-02 4.5406170e-02 -1.9124244e-02 1.0565367e-01 9.0264809e-02 2.1686906e-01 1.8397472e-01 1.9554598e-01 2.1878862e-03 -1.9168431e-02 -9.9537342e-02 -5.0342686e-02 -9.6991444e-02 -3.7489266e-02 -8.2547332e-02 -2.8688658e-02 -8.4278509e-02 -4.1609864e-02 -9.9878382e-02 -5.3414646e-02 -1.0638506e-01 -5.5857949e-02 -1.0953242e-01 -5.5644208e-02 -8.9491383e-02 4.3193023e-02 2.9754200e-02 9.6094364e-02 -7.8917040e-02 -3.5551298e-02 -1.5576717e-01 -3.9409158e-02 -2.9290592e-01 1.1309739e+00 5.0639076e-01 -1.2648997e-01 -2.5502609e-03 -1.0898264e-01 -3.0804391e-02 -5.4766786e-02 -3.1581571e-03 5.5351392e-03 5.7907552e-02 1.1207650e-01 1.6676970e-01 1.9199288e-01 1.3673039e-01 1.4066043e-02 -7.0388064e-02 -8.2775462e-02 -9.7634915e-02 -7.4342502e-02 -8.8272961e-02 -6.7486071e-02 -8.2660486e-02 -6.8903614e-02 -1.0055045e-01 -7.7711931e-02 -1.0964197e-01 -8.4070477e-02 -1.1929472e-01 -8.5472496e-02 -1.1833504e-01 -4.3068039e-04 -6.3649311e-03 8.1816174e-02 -9.3108639e-02 -4.7740308e-02 -1.9696098e-01 -2.6050299e-02 -4.0057448e-01 8.3386542e-01 7.4761396e-01 -2.3611171e-01 2.6329886e-02 -1.8491253e-01 -2.8207534e-02 -1.2413918e-01 -3.3852349e-03 -5.6026908e-02 6.0252602e-02 5.3508750e-02 1.7465144e-01 1.5384848e-01 1.7034582e-01 -3.0787666e-03 -5.2013616e-02 -1.2207328e-01 -9.4379293e-02 -1.2736042e-01 -8.3112413e-02 -1.1130604e-01 -7.5584118e-02 -1.1098661e-01 -8.4108320e-02 -1.1971556e-01 -9.4859222e-02 -1.3041227e-01 -6.0145416e-02 -1.7575267e-02 5.8577031e-02 6.6508913e-03 -7.9401520e-02 -1.2703705e-01 -1.1709282e-01 -1.7071774e-01 -1.5244196e-01 1.1879853e+00 2.3294411e-01 -1.4215562e-01 -4.5899078e-02 -1.3947804e-01 -4.9092179e-02 -8.5177297e-02 -7.7842323e-03 -2.2596518e-02 7.0744268e-02 9.7214323e-02 2.0024653e-01 1.7231399e-01 1.2137748e-01 -5.6103131e-02 -7.6580740e-02 -1.3461546e-01 -9.5415835e-02 -1.2670457e-01 -8.6486295e-02 -1.2079446e-01 -7.6926501e-02 -1.2533353e-01 -8.8316404e-02 -1.3789408e-01 -1.0082790e-01 -1.4206710e-01 -1.0265246e-01 -1.2097392e-01 2.9790086e-03 -3.6020741e-03 5.4939078e-02 -1.1535143e-01 -7.8969206e-02 -1.9342443e-01 -8.7351074e-02 -3.2985108e-01 1.1015854e+00 4.5905712e-01 -1.7758493e-01 -4.1857071e-02 -1.5489374e-01 -6.5227310e-02 -1.0402589e-01 -3.7019174e-02 -3.8195528e-02 2.4479794e-02 7.2753872e-02 1.4517551e-01 1.6100763e-01 9.9479086e-02 -3.1268384e-02 -1.1102773e-01 -1.2999191e-01 -1.3895439e-01 -1.2548420e-01 -1.2746718e-01 -1.1365321e-01 -1.2721569e-01 -1.1745388e-01 -1.4095954e-01 -1.2900153e-01 -1.5395620e-01 -1.3558153e-01 -1.6196037e-01 -1.3805024e-01 -1.6719616e-01 -1.3775413e-01 -1.7193914e-01 -1.4031613e-01 -1.5324764e-01 -4.5637300e-02 -2.7101998e-02 2.9220611e-02 -1.4134663e-01 -1.0852280e-01 -2.2594692e-01 -1.0716575e-01 -3.8525774e-01 9.6896544e-01 5.2408307e-01 -2.2305056e-01 -5.5992428e-02 -2.0695177e-01 -8.9982136e-02 -1.5299816e-01 -6.6730065e-02 -8.4951437e-02 -3.8755641e-03 1.3815567e-02 1.0537198e-01 1.1365664e-01 9.0758365e-02 -4.4958521e-02 -1.2345628e-01 -1.7101225e-01 -1.6151625e-01 -1.6061187e-01 -1.4985183e-01 -1.4729899e-01 -1.5279247e-01 -1.5462297e-01 -1.6116225e-01 -1.6712407e-01 -1.7968538e-01 -1.6574620e-01 -1.8773448e-01 -1.6938352e-01 -1.9039645e-01 -1.6749513e-01 -1.9460759e-01 -1.5960267e-01 -1.8727491e-01 -8.8755437e-02 -8.1734400e-02 -3.7787616e-02 -1.5868339e-01 -1.0114492e-01 -2.4605524e-01 -7.1042050e-02 -4.2369094e-01 7.3907500e-01 7.8832303e-01 -2.6746039e-01 -6.6794562e-03 -2.2485029e-01 -6.6603620e-02 -1.6095480e-01 -4.2877473e-02 -1.0046522e-01 2.0591250e-02 7.1798631e-03 1.3437305e-01 1.2748412e-01 1.5418704e-01 -1.9403246e-02 -8.4240888e-02 -1.6402575e-01 -1.4225349e-01 -1.7251228e-01 -1.3310310e-01 -1.5989089e-01 -1.2790433e-01 -1.5722665e-01 -1.3782215e-01 -1.6810718e-01 -1.4460178e-01 -1.7036596e-01 -1.5119654e-01 -1.6722738e-01 -1.4091017e-01 -7.5837162e-02 -3.4053264e-02 -7.1504756e-02 -1.2075314e-01 -1.3504370e-01 -1.8585355e-01 -1.4089278e-01 -2.9737468e-01 1.0925249e+00 3.9402525e-01 -2.1750129e-01 -2.4399043e-02 -1.8879909e-01 -4.9230415e-02 -1.3018681e-01 -1.0931299e-02 -6.0914294e-02 6.1943528e-02 6.0016777e-02 1.9606259e-01 1.6654927e-01 1.5642491e-01 -4.3276855e-02 -7.0773316e-02 -1.5718144e-01 -9.9985671e-02 -1.5703901e-01 -9.1324347e-02 -1.4280613e-01 -8.5234067e-02 -1.4714125e-01 -9.2837646e-02 -1.5690524e-01 -9.9399346e-02 -1.6487031e-01 -1.0228389e-01 -1.6691648e-01 -3.6209572e-02 -5.1818310e-02 2.7499571e-02 -1.1190429e-01 -6.8863078e-02 -2.1441604e-01 -6.6685540e-02 -3.4103208e-01 1.9195710e-01 1.1820855e+00 -4.2853779e-02 -5.6009323e-02 -1.3689597e-01 -9.4821162e-02 -1.0349916e-01 -6.2150867e-02 -4.1049479e-02 -3.7627052e-03 4.8210430e-02 1.1779045e-01 1.7757798e-01 1.8522322e-01 7.6814387e-02 -5.2723078e-02 -1.0187593e-01 -1.2448016e-01 -1.1461849e-01 -1.1966944e-01 -9.6239200e-02 -1.0792882e-01 -9.4283037e-02 -1.0982230e-01 -1.0551914e-01 -1.1956167e-01 -1.1292126e-01 -8.8848990e-02 -2.0885423e-03 2.4828561e-02 1.0064021e-02 -1.1167972e-01 -1.3562530e-01 -1.5610259e-01 -1.8868003e-01 -1.7105359e-01 1.2206042e+00 2.1511377e-01 -1.3040500e-01 -1.0435804e-01 -1.3742381e-01 -1.0533861e-01 -9.2538561e-02 -6.4586181e-02 -2.9472533e-02 1.2101222e-02 9.3845418e-02 1.4397410e-01 1.7755828e-01 6.6237450e-02 -5.7933837e-02 -1.3980290e-01 -1.3873231e-01 -1.6432178e-01 -1.3718541e-01 -1.5084807e-01 -1.1727457e-01 -1.5165065e-01 -1.2091407e-01 -1.5973744e-01 -1.3082290e-01 -1.7269824e-01 -5.8626693e-02 -5.6798997e-02 4.3579183e-02 -1.1345229e-01 -1.0414479e-01 -2.4356733e-01 -8.4314210e-02 -4.1741562e-01 4.1686471e-01 1.0637695e+00 -2.0596647e-01 -4.2545032e-02 -2.2665218e-01 -9.9540581e-02 -1.7872642e-01 -7.2834195e-02 -1.2114905e-01 -1.7077997e-02 -1.7013170e-02 1.0307923e-01 1.0454937e-01 1.3413365e-01 -4.6024101e-02 -1.0500870e-01 -2.0257738e-01 -1.6151471e-01 -2.0749702e-01 -1.5993670e-01 -1.9988323e-01 -1.4769059e-01 -2.0501428e-01 -1.5569380e-01 -2.1565919e-01 -7.9903357e-02 -9.9975397e-02 6.6827696e-03 -1.9145712e-01 -1.4163678e-01 -3.1241352e-01 -1.2474291e-01 -5.0339907e-01 6.9910213e-01 7.7469112e-01 -3.5007559e-01 -7.6577376e-02 -3.0227407e-01 -1.3576226e-01 -2.3756808e-01 -1.1138567e-01 -1.7555831e-01 -4.3965372e-02 -5.8783944e-02 7.3183952e-02 4.9501042e-02 6.5206700e-02 -1.3238176e-01 -1.6391456e-01 -2.4887012e-01 -1.9781824e-01 -2.4952618e-01 -1.8903456e-01 -2.3898404e-01 -1.8287304e-01 -2.4140014e-01 -1.9653273e-01 -2.3211730e-01 -9.5264600e-02 -1.1908062e-01 -3.1227389e-02 -2.3282603e-01 -1.8265445e-01 -3.2162194e-01 -1.7447215e-01 -4.7201876e-01 9.3810278e-01 4.6018691e-01 -3.1888686e-01 -1.2811741e-01 -2.8133780e-01 -1.7062985e-01 -2.2090041e-01 -1.3233572e-01 -1.5760924e-01 -6.4730489e-02 -4.1726948e-02 4.8715749e-02 5.0819205e-02 9.5998808e-03 -1.4585887e-01 -1.9466519e-01 -2.3712689e-01 -2.1990976e-01 -2.3299348e-01 -2.0147418e-01 -2.1900028e-01 -2.0018660e-01 -2.1611603e-01 -2.1009402e-01 -2.2620973e-01 -2.1173725e-01 -2.3357227e-01 -1.6818578e-01 -1.1494648e-01 -5.1429965e-02 -1.0973774e-01 -1.9015716e-01 -2.3915531e-01 -2.1414309e-01 -3.1225379e-01 -1.5561788e-01 1.1371433e+00 4.7029998e-02 -1.7769709e-01 -1.8820139e-01 -1.9335956e-01 -1.7286187e-01 -1.5240939e-01 -1.2695445e-01 -9.0439355e-02 -5.0167472e-02 2.1650967e-02 6.1110590e-02 8.7306686e-02 -1.1427310e-02 -1.2160142e-01 -1.8985267e-01 -1.9175700e-01 -1.9956741e-01 -1.8369786e-01 -1.8896345e-01 -1.7588499e-01 -1.8883988e-01 -1.7950174e-01 -1.9950818e-01 -1.9074723e-01 -2.1049265e-01 -2.0472419e-01 -2.2346818e-01 -2.0806401e-01 -2.2244894e-01 -2.0751832e-01 -2.2751228e-01 -2.1395003e-01 -2.0306898e-01 -1.0960597e-01 -8.8715659e-02 -7.5353505e-02 -1.9973616e-01 -1.9761314e-01 -2.5925066e-01 -2.2418002e-01 -3.3706900e-01 1.0298500e+00 2.4925311e-01 -2.4452659e-01 -1.5074572e-01 -2.3505027e-01 -1.6302577e-01 -1.8595263e-01 -1.2763721e-01 -1.2430792e-01 -5.9826457e-02 -2.4323936e-02 4.5435300e-02 6.1449381e-02 2.1130126e-02 -1.0877689e-01 -1.8103236e-01 -2.1292432e-01 -2.0755270e-01 -2.0272996e-01 -1.9730586e-01 -1.9352855e-01 -1.9271638e-01 -1.9901748e-01 -2.0507144e-01 -2.1166891e-01 -2.1811687e-01 -2.2192861e-01 -2.2948270e-01 -2.2896193e-01 -2.3136262e-01 -2.3369062e-01 -2.3221574e-01 -2.3293046e-01 -1.9826246e-01 -1.2612791e-01 -1.1960221e-01 -1.4857616e-01 -2.0615665e-01 -2.2948351e-01 -2.3981932e-01 -2.7253343e-01 -2.3319333e-01 1.0765491e+00 7.2075263e-02 -2.0839257e-01 -1.7038877e-01 -2.1352279e-01 -1.7211623e-01 -1.6446524e-01 -1.2961088e-01 -1.0131528e-01 -5.2034380e-02 1.6378879e-02 7.0132509e-02 1.0134546e-01 2.8198154e-02 -1.0686511e-01 -1.8980534e-01 -2.0424088e-01 -2.1692515e-01 -2.0610305e-01 -2.1058686e-01 -1.8274415e-01 -1.9748836e-01 -1.7976212e-01 -2.0409525e-01 -1.7769564e-01 -2.1519205e-01 -1.8086362e-01 -2.1735770e-01 -1.7776274e-01 -2.1360040e-01 -9.9874290e-02 -1.0800118e-01 -6.5231664e-02 -1.9166721e-01 -1.2154365e-01 -2.7540024e-01 -9.3028554e-02 -4.5452232e-01 7.2080786e-01 7.5329999e-01 -2.9635182e-01 -2.3938690e-02 -2.4010881e-01 -8.1286831e-02 -1.7637338e-01 -5.3217858e-02 -1.0965096e-01 1.3134824e-02 1.0391858e-02 1.4536189e-01 1.4181551e-01 1.6169688e-01 -3.8998294e-02 -9.5803273e-02 -1.8108760e-01 -1.4189221e-01 -1.8826866e-01 -1.3975685e-01 -1.6598332e-01 -1.2505240e-01 -1.5485090e-01 -1.2400149e-01 -1.6255479e-01 -1.2880118e-01 -1.6410389e-01 -1.3218154e-01 -1.6253914e-01 -1.2765420e-01 -1.5624563e-01 -9.3458498e-02 -4.6962868e-02 -6.2670467e-04 -8.2061945e-02 -7.0145119e-02 -1.5749676e-01 -8.4849118e-02 -2.2851494e-01 8.5106006e-03 1.2228960e+00 1.0352466e-01 -6.6011518e-02 -6.7230990e-02 -8.2662047e-02 -4.8089666e-02 -3.9849111e-02 -7.0647614e-03 2.1847476e-02 8.0811845e-02 1.4890777e-01 2.2319920e-01 2.4147448e-01 1.4848784e-01 -2.4565479e-04 -6.7956211e-02 -8.9779102e-02 -9.0536986e-02 -9.3137814e-02 -7.5517431e-02 -7.1876574e-02 -6.4137823e-02 -6.9015839e-02 -6.9828303e-02 -7.7510504e-02 -7.6608875e-02 -8.0879308e-02 -7.9913034e-02 -8.3686029e-02 -7.9892901e-02 -8.2087655e-02 -6.0126913e-02 1.6558036e-02 2.9699956e-02 2.4836066e-03 -4.4703224e-02 -6.4769689e-02 -9.2244892e-02 -8.4951210e-02 -1.5923602e-01 1.2046984e+00 4.0450575e-01 -8.9211133e-02 1.6801297e-02 -8.4570490e-02 7.4187237e-03 -3.5719236e-02 4.0414759e-02 2.7605894e-02 1.1416316e-01 1.4435535e-01 2.5579291e-01 2.6042001e-01 2.1902347e-01 3.9802839e-02 -1.7582097e-02 -7.7814855e-02 -5.4794195e-02 -7.6317220e-02 -4.4763031e-02 -6.2788643e-02 -3.6852983e-02 -6.0235493e-02 -3.9445038e-02 -6.5175125e-02 -4.3595299e-02 -6.8605799e-02 -5.3767125e-02 -7.2195826e-02 -5.4818678e-02 -6.8097899e-02 -5.2846679e-02 -4.2150461e-02 3.9991399e-02 4.0336369e-02 2.4375209e-02 -2.5974135e-02 -4.8391372e-02 -5.4555447e-02 -1.0018931e-01 -3.2231160e-03 1.2952271e+00 1.8569520e-01 -6.9704796e-03 -1.0040147e-02 -1.7878875e-02 -2.9327874e-03 2.4311371e-02 3.8749223e-02 9.0993375e-02 1.2098481e-01 2.1800872e-01 2.6399418e-01 3.2791638e-01 2.1338820e-01 8.4407003e-02 -2.4315872e-02 -2.1356599e-02 -6.0547454e-02 -1.5567126e-02 -5.0163514e-02 -5.8455651e-03 -4.0736579e-02 -5.1221961e-03 -4.6009671e-02 -8.8184012e-03 -5.4964907e-02 -1.4280643e-02 -6.1204149e-02 -1.1508663e-02 -6.1862542e-02 5.1922955e-02 3.9022012e-02 1.0183073e-01 -4.2263446e-02 4.5225113e-02 -1.2570656e-01 6.9638273e-02 -3.0876149e-01 8.1552829e-01 9.5853653e-01 -1.4506051e-01 1.1501584e-01 -9.7254582e-02 6.1255316e-02 -3.4007821e-02 8.1619812e-02 3.2528132e-02 1.4282469e-01 1.4320240e-01 2.8415266e-01 2.8921084e-01 3.1898828e-01 1.2977996e-01 4.2193387e-02 -4.0530887e-02 -9.0876074e-03 -4.7354155e-02 -8.2104583e-03 -3.2834580e-02 2.2224577e-03 -3.2622237e-02 7.9775879e-03 -3.6112499e-02 -6.1135710e-03 -4.3928546e-02 -6.9545670e-03 -5.1294005e-02 -2.7458356e-03 -4.9887284e-02 4.2622566e-02 5.7281717e-02 1.1401262e-01 -9.5311047e-03 4.4685777e-02 -9.7925953e-02 5.7375598e-02 -2.4387292e-01 4.5530112e-01 1.2360958e+00 -2.9702645e-02 9.7023150e-02 -6.2371971e-02 4.4140442e-02 -2.4614752e-02 6.8502537e-02 2.8840985e-02 1.1783843e-01 1.2374248e-01 2.4745462e-01 2.6468291e-01 3.1516411e-01 1.5261683e-01 4.6965170e-02 -4.5037218e-02 -2.5025482e-02 -5.9821490e-02 -1.8152915e-02 -4.4662561e-02 -4.9880682e-03 -3.9450464e-02 -7.6208764e-03 -4.9233743e-02 -1.6307483e-02 -6.1975203e-02 -1.9655694e-02 -6.2719168e-02 -1.7871826e-02 -7.0394990e-02 -1.2908575e-02 -6.6016491e-02 5.5887762e-02 4.4581405e-02 9.0495012e-02 -3.7304964e-02 3.5078904e-02 -1.2186765e-01 5.6749458e-02 -2.9533812e-01 8.8506136e-01 9.1038230e-01 -1.0277833e-01 1.0906268e-01 -8.2841599e-02 5.9051158e-02 -2.3412519e-02 7.7246227e-02 3.5808534e-02 1.3942906e-01 1.4550034e-01 2.6777967e-01 2.7941562e-01 3.0490153e-01 1.1936911e-01 4.5566371e-02 -3.8422542e-02 -1.4027467e-02 -4.4163728e-02 -9.0108081e-03 -2.9612566e-02 1.6593220e-05 -3.0399664e-02 -2.1198915e-04 -4.4249579e-02 -9.7368440e-03 -4.8477413e-02 -1.8756175e-02 -5.1082984e-02 -1.7455875e-02 -5.4180657e-02 -1.6485024e-02 -4.5624242e-02 6.9222933e-02 5.6802119e-02 7.4604303e-02 -2.4872894e-02 1.3037515e-02 -9.4322528e-02 1.4559213e-02 -2.2114676e-01 1.1643462e+00 5.5646111e-01 -1.0320037e-01 7.9289411e-02 -6.3548846e-02 4.6512792e-02 -1.4163321e-02 7.0170191e-02 4.7578593e-02 1.3933248e-01 1.6233752e-01 2.8093683e-01 2.9500556e-01 2.8726815e-01 1.0258598e-01 2.4665982e-02 -3.6176070e-02 -2.1418520e-02 -4.0559463e-02 -9.1118277e-03 -2.4001529e-02 1.8620264e-03 -2.6389839e-02 -3.6556587e-03 -3.4001715e-02 -1.5395653e-02 -3.4970856e-02 -8.6951439e-03 -3.5145292e-02 2.3252662e-02 6.8155018e-02 1.1104487e-01 3.0383246e-02 3.5420364e-02 -4.5753545e-02 1.8250876e-02 -1.3317734e-01 1.4700721e-01 1.3421330e+00 1.4485169e-01 4.2571667e-02 8.7575176e-03 2.0316431e-02 2.5188397e-02 5.4607758e-02 7.2914832e-02 1.1880800e-01 1.5875997e-01 2.4413124e-01 3.0222545e-01 3.4192071e-01 2.3437485e-01 9.6901406e-02 6.7353554e-03 -6.1533223e-03 -1.2688320e-02 -1.8006987e-03 -3.2871093e-03 1.3303240e-02 -1.1910086e-03 1.1720532e-02 -9.5104932e-03 3.0448707e-03 -1.8483240e-02 -1.9622470e-04 -2.4275992e-02 6.8504425e-03 -2.7446441e-02 6.0424586e-02 7.8476021e-02 1.2027531e-01 1.1895424e-02 5.7626599e-02 -8.1432622e-02 7.1186519e-02 -2.4135013e-01 5.6799779e-01 1.2034137e+00 -6.4564614e-02 1.2331075e-01 -7.4034397e-02 6.5716534e-02 -3.2355417e-02 8.3587454e-02 1.9673948e-02 1.3317458e-01 1.1551174e-01 2.5694885e-01 2.4995296e-01 3.1793393e-01 1.3802258e-01 5.8905430e-02 -5.2889070e-02 -1.6341505e-02 -6.8773126e-02 -9.3543789e-03 -5.6081560e-02 -4.2895186e-05 -5.8302281e-02 -1.1092110e-02 -7.0062884e-02 -1.8547304e-02 -7.7435534e-02 -2.5830435e-02 -8.1959958e-02 -2.0136777e-02 -8.7461203e-02 2.6731472e-02 1.9661131e-02 9.5175830e-02 -4.5108863e-02 2.5325269e-02 -1.3508528e-01 3.4971231e-02 -2.7512138e-01 3.8320593e-01 1.2205319e+00 -1.0016119e-03 4.7986425e-02 -6.7947718e-02 2.0770407e-03 -2.9338389e-02 2.1479216e-02 2.0700928e-02 7.4196500e-02 1.1455793e-01 1.9724462e-01 2.5142394e-01 2.7016490e-01 1.6105755e-01 2.5813553e-02 -4.1913965e-02 -5.7521035e-02 -5.2168635e-02 -5.2367848e-02 -3.6222301e-02 -4.4203214e-02 -3.6378651e-02 -5.3756607e-02 -4.6485703e-02 -6.2710968e-02 -5.0361178e-02 -7.4421269e-02 -5.1462080e-02 -8.1112710e-02 -5.0646870e-02 -8.3778666e-02 -8.9511051e-03 2.1706602e-02 6.7431601e-02 -2.7452415e-02 2.6285947e-03 -1.1534981e-01 -5.4689993e-03 -2.2185823e-01 2.0487433e-01 1.2593541e+00 6.7504916e-02 1.8935199e-02 -5.8197049e-02 -2.1198567e-02 -3.7598067e-02 5.7952183e-03 1.1980728e-02 5.2800796e-02 9.5006312e-02 1.6353144e-01 2.2710119e-01 2.5589338e-01 1.6147226e-01 1.7920626e-02 -5.4921454e-02 -7.8973698e-02 -8.0486523e-02 -8.1975181e-02 -6.3614602e-02 -7.3807258e-02 -6.7090009e-02 -8.0755112e-02 -7.2896019e-02 -1.0007853e-01 -7.9878435e-02 -1.0620006e-01 -8.0431425e-02 -1.1536125e-01 -8.1133764e-02 -1.1179617e-01 -4.3777393e-03 -1.7025248e-02 2.4261439e-02 -9.6545798e-02 -3.9073914e-02 -1.7798083e-01 -1.1116901e-02 -3.6172653e-01 8.7575072e-01 7.8551871e-01 -2.0785796e-01 6.0765832e-02 -1.6278419e-01 2.1209236e-03 -9.8539961e-02 2.8293424e-02 -3.8177650e-02 7.9742533e-02 7.2051335e-02 2.1138993e-01 2.0143958e-01 2.4094325e-01 5.4693250e-02 -1.1592814e-02 -1.0937773e-01 -7.0517687e-02 -1.1720591e-01 -6.0182992e-02 -1.0508929e-01 -5.5393569e-02 -1.1122262e-01 -6.0936378e-02 -1.2022910e-01 -7.0833002e-02 -1.2952510e-01 -7.4558580e-02 -1.3228785e-01 -2.6420992e-02 -2.5879590e-02 4.8453865e-02 -9.2340642e-02 -2.1862797e-02 -1.8284062e-01 -8.5884578e-03 -3.3379151e-01 3.9432128e-01 1.1430043e+00 -1.2424820e-01 1.7582145e-02 -1.3465258e-01 -3.5915545e-02 -8.9380293e-02 -1.1667072e-02 -3.4062342e-02 4.6107632e-02 5.8558093e-02 1.6687412e-01 2.0365237e-01 2.2900309e-01 1.0038071e-01 -1.8863501e-02 -9.0563300e-02 -9.2480580e-02 -1.0845773e-01 -8.6257653e-02 -9.6285804e-02 -8.1395467e-02 -9.0374048e-02 -9.0464036e-02 -9.4697551e-02 -9.8887065e-02 -1.0683375e-01 -1.1048282e-01 -1.0176576e-01 -1.1486950e-01 -6.5124059e-02 -1.1709161e-02 1.3087294e-02 -6.9705097e-02 -6.2404867e-02 -1.6141170e-01 -6.5457337e-02 -2.8600544e-01 1.9158632e-01 1.2254030e+00 -4.9175310e-02 -1.1948605e-02 -1.4511693e-01 -5.8024496e-02 -1.1679172e-01 -3.2565594e-02 -6.2004303e-02 2.5166410e-02 2.1377815e-02 1.4262245e-01 1.5206926e-01 2.2596176e-01 8.3000026e-02 -1.0111815e-02 -1.2114272e-01 -9.2091084e-02 -1.4018331e-01 -8.9754800e-02 -1.2378864e-01 -7.9164057e-02 -1.2335195e-01 -8.0044332e-02 -1.3143130e-01 -9.1875410e-02 -1.4699042e-01 -9.7186243e-02 -1.5298084e-01 -9.4017419e-02 -1.5531535e-01 -3.4753324e-02 -4.1767486e-02 2.3960752e-02 -1.1099742e-01 -3.5246121e-02 -1.9938090e-01 -1.4503224e-02 -3.6762980e-01 4.7014965e-01 1.1049423e+00 -1.2303343e-01 1.9110190e-02 -1.4713199e-01 -4.6195662e-02 -1.0595439e-01 -1.8678758e-02 -3.6483927e-02 3.4958390e-02 5.3144153e-02 1.5375006e-01 1.8689537e-01 2.1394784e-01 8.1381392e-02 -2.2295981e-02 -9.8868129e-02 -9.8843373e-02 -1.1115994e-01 -9.2959383e-02 -9.1309355e-02 -7.6942140e-02 -8.9235984e-02 -8.4505620e-02 -9.8698045e-02 -9.5362112e-02 -1.1097393e-01 -1.0209183e-01 -1.1204798e-01 -1.0452856e-01 -1.1211590e-01 -7.1366261e-02 -4.4452213e-03 1.0968188e-02 -3.7818115e-02 -6.9426774e-02 -1.2464946e-01 -9.8996211e-02 -1.9089179e-01 -5.6277354e-02 1.2452937e+00 1.8291909e-01 -6.3339640e-02 -6.1656514e-02 -8.8395239e-02 -6.0654408e-02 -4.5486452e-02 -2.2942838e-02 9.2035192e-03 5.4437661e-02 1.3148855e-01 1.8494518e-01 2.2415470e-01 1.4548659e-01 1.8689902e-02 -7.1052257e-02 -8.8205221e-02 -9.4517474e-02 -6.7774931e-02 -8.2662281e-02 -6.1821123e-02 -7.8697654e-02 -6.3975345e-02 -8.8135364e-02 -6.9989795e-02 -9.3587319e-02 -7.8503847e-02 -1.0411562e-01 -6.5269613e-02 -9.9579362e-02 -5.8825238e-02 -9.2850708e-02 1.6177116e-02 1.0647817e-02 4.9384647e-02 -6.2851008e-02 -4.2136748e-03 -1.5102129e-01 1.9994805e-02 -3.3536935e-01 8.9717908e-01 8.4983813e-01 -1.4885418e-01 9.1275927e-02 -1.1653378e-01 3.1607013e-02 -6.5288898e-02 5.2478792e-02 2.3860012e-04 1.1007008e-01 1.0669062e-01 2.3535940e-01 2.3703603e-01 2.7770440e-01 1.0350766e-01 3.0958235e-02 -5.8664174e-02 -2.5731163e-02 -5.8049880e-02 -1.5998743e-02 -4.8382955e-02 -8.5377687e-03 -4.7121371e-02 -1.3471896e-02 -5.9535606e-02 -2.2165423e-02 -5.9239485e-02 -2.0742285e-02 -6.3716412e-02 -2.4424965e-02 -4.3434888e-02 6.2751995e-02 4.6994743e-02 5.2422310e-02 -3.0229508e-02 -1.5077576e-02 -8.5993223e-02 -3.2500436e-02 -1.7020186e-01 1.2501277e+00 3.8346046e-01 -7.4668725e-02 3.7990975e-02 -5.3575708e-02 1.8219307e-02 -5.0122512e-03 4.6821693e-02 5.6451266e-02 1.2139665e-01 1.7251960e-01 2.6061597e-01 2.8781684e-01 2.4739059e-01 9.5322866e-02 -2.4769644e-03 -3.2351112e-02 -3.9221436e-02 -3.6434179e-02 -3.1672070e-02 -2.5085133e-02 -3.2523596e-02 -2.5626256e-02 -3.8806679e-02 -3.3038792e-02 -5.4564770e-02 -4.2579579e-02 -5.8351362e-02 -3.8717300e-02 -3.7000892e-02 4.8635826e-02 5.2761297e-02 4.1436112e-02 -2.4426180e-02 -2.2874675e-02 -8.2917604e-02 -4.5636627e-02 -1.5284399e-01 1.2476614e+00 4.0503033e-01 -8.0793107e-02 3.7786983e-02 -6.3248395e-02 1.7405813e-02 -1.4561910e-02 5.1583674e-02 4.5643120e-02 1.2064195e-01 1.6356224e-01 2.5848059e-01 2.8600641e-01 2.3952966e-01 8.4164708e-02 -2.3736017e-03 -3.7901837e-02 -3.4177125e-02 -4.0052603e-02 -1.9434606e-02 -2.3326611e-02 -2.1981233e-02 -2.0598994e-02 -3.5297923e-02 -3.4532392e-02 -4.2183366e-02 -3.8886361e-02 -4.9159083e-02 -3.6473641e-02 -5.2779917e-02 1.7263807e-02 5.0581588e-02 8.0347377e-02 -1.4049965e-02 1.8933382e-02 -1.0014062e-01 3.5560561e-02 -2.4922137e-01 4.5199102e-01 1.2346134e+00 -4.0526135e-02 9.8024625e-02 -8.0406651e-02 4.9328800e-02 -3.4657220e-02 7.0760172e-02 1.8564662e-02 1.2901475e-01 1.1172774e-01 2.4804633e-01 2.4994586e-01 3.2573525e-01 1.6639866e-01 8.2743151e-02 -3.2379934e-02 4.7842479e-03 -4.4974375e-02 1.3594952e-02 -2.6471961e-02 2.0675842e-02 -2.6403940e-02 1.8156723e-02 -3.3540191e-02 5.4229621e-03 -4.3778501e-02 1.5981006e-03 -5.0328286e-02 5.2347210e-05 -4.9279014e-02 4.3919466e-02 5.4390693e-02 1.2491311e-01 1.9116431e-02 5.1029211e-02 -6.5789901e-02 5.4262954e-02 -1.4459573e-01 1.9861424e-01 1.3495664e+00 2.0394377e-01 4.5493083e-02 5.7844312e-02 3.4504411e-02 7.4577721e-02 8.5789259e-02 1.1335247e-01 1.3139074e-01 1.9189891e-01 2.3725085e-01 3.0726485e-01 3.2799610e-01 2.8131404e-01 1.0494255e-01 4.8894821e-02 -1.1313896e-03 3.3533698e-02 -6.2288690e-04 2.7774566e-02 9.3097613e-03 4.1428882e-02 4.5978419e-03 3.6238184e-02 -1.3175764e-02 2.9814609e-02 -2.0741358e-02 1.7510995e-02 -2.0522363e-02 2.9535174e-02 -2.9910271e-02 9.2710768e-02 6.0972898e-02 1.4195170e-01 -8.6666976e-04 7.8367556e-02 -1.0461184e-01 1.0627170e-01 -2.7883458e-01 8.5983813e-01 9.7972418e-01 -9.9138026e-02 1.4396527e-01 -5.9941315e-02 8.1494553e-02 -6.6112213e-03 1.0113945e-01 6.7540301e-02 1.5930067e-01 1.7124742e-01 2.7392910e-01 3.1106555e-01 3.2896574e-01 1.7766468e-01 7.2772323e-02 -1.0459568e-02 7.1230014e-03 -1.2194411e-02 1.4927096e-02 1.5272914e-03 8.1594742e-03 8.8751244e-03 -1.1962949e-03 -8.7786840e-03 -5.5458723e-03 -2.3129830e-02 -1.2903681e-02 -1.8214461e-02 -9.4404775e-04 7.3741210e-02 8.8960634e-02 4.9969775e-02 1.1400749e-02 -2.1360864e-02 -3.2989942e-02 -5.2783575e-02 -7.4111342e-02 1.2942671e+00 3.5219110e-01 -3.9030404e-02 4.5358215e-02 -2.5968012e-02 4.5472905e-02 5.5518506e-03 7.8342734e-02 7.8239211e-02 1.5471808e-01 1.9618333e-01 2.8557066e-01 3.0761324e-01 2.6724725e-01 9.5535617e-02 1.9635263e-02 -3.0201355e-02 -1.3987311e-02 -3.3381403e-02 -2.9320040e-03 -2.3261885e-02 -4.4177319e-03 -2.4896600e-02 -1.0611531e-02 -4.3645512e-02 -2.2344379e-02 -3.7203168e-02 -2.5745473e-02 -5.5183885e-02 -1.2014216e-02 -4.2668889e-02 3.6664663e-02 5.4053847e-02 9.6517938e-02 -9.7880623e-03 4.3581653e-02 -8.7044342e-02 5.2881749e-02 -2.3911337e-01 4.6336465e-01 1.2319043e+00 -4.1350531e-02 1.0236272e-01 -6.4818952e-02 5.3394859e-02 -3.8908961e-02 7.4302539e-02 2.1924803e-02 1.3189488e-01 1.0976257e-01 2.4876842e-01 2.5100804e-01 3.2639839e-01 1.7276625e-01 8.4258087e-02 -2.3564333e-02 -2.7901220e-03 -4.2339805e-02 -2.9693095e-03 -3.3843647e-02 1.7436247e-02 -3.2622749e-02 4.9565794e-03 -4.5575355e-02 6.2638874e-03 -5.3978109e-02 -2.1577696e-03 -5.8737238e-02 -1.1027871e-02 -5.7853389e-02 2.2713350e-03 -6.6461931e-02 7.6224185e-02 3.4293614e-02 1.1444909e-01 -2.5350015e-02 5.6409837e-02 -1.2009413e-01 9.2256012e-02 -2.9158571e-01 8.2095906e-01 1.0014493e+00 -8.6575332e-02 1.3407883e-01 -6.1800442e-02 7.4924854e-02 3.0845309e-03 8.9420058e-02 7.0518246e-02 1.5413558e-01 1.7498884e-01 2.7318637e-01 2.9767990e-01 3.3766453e-01 1.9160826e-01 7.6797198e-02 1.8683411e-02 1.6420587e-02 8.9429987e-03 1.2828684e-02 1.7292736e-02 2.2619714e-02 2.3595310e-02 7.0049360e-03 1.7702184e-02 -1.2581354e-03 3.8753593e-04 4.5363856e-06 4.9812495e-03 -1.0383941e-02 1.3240482e-02 -1.7853295e-02 2.2637613e-02 5.4464626e-04 1.0517048e-01 8.4627093e-02 1.3345206e-01 1.5779261e-02 7.2909062e-02 -5.4812524e-02 9.2097193e-02 -2.3972776e-01 1.0555009e+00 8.3531742e-01 -5.9990337e-02 1.4984216e-01 -2.8364696e-02 1.1804490e-01 2.3041859e-02 1.3723086e-01 8.9042764e-02 1.9836029e-01 1.7239497e-01 3.3121575e-01 3.2069917e-01 3.6239218e-01 1.8454496e-01 1.0722244e-01 8.4161270e-03 3.9568420e-02 8.1480773e-03 4.6990618e-02 1.5757261e-02 5.8064344e-02 1.8929173e-02 4.6287184e-02 -1.7559674e-04 5.3973256e-02 3.0056250e-03 3.7851647e-02 -7.2902256e-03 3.2543608e-02 -1.2680844e-02 4.5789936e-02 1.0407457e-02 1.1396580e-01 9.6571721e-02 1.4067267e-01 2.4679346e-02 6.8555251e-02 -5.1069557e-02 7.8246085e-02 -1.8727739e-01 1.1990914e+00 6.4781709e-01 -4.3916948e-02 1.3819748e-01 -1.4304897e-02 9.5324834e-02 3.2528544e-02 1.3355240e-01 1.0771337e-01 1.8595941e-01 2.1532078e-01 3.2742974e-01 3.4581882e-01 3.5788382e-01 1.8388086e-01 1.0178236e-01 4.6618079e-03 3.4838343e-02 3.1905446e-03 3.9112130e-02 6.0711461e-03 4.1652922e-02 -1.3991267e-02 1.2133493e-02 1.3485126e-02 4.3708711e-02 2.9403552e-03 3.1370659e-02 -9.2760774e-03 1.4542086e-02 4.8615034e-03 1.2099575e-01 9.8873000e-02 1.1448183e-01 1.6768869e-03 6.3109215e-02 -5.2421690e-02 5.2115227e-02 -2.0606957e-01 1.1925473e+00 6.3981207e-01 -8.2418774e-02 1.2016991e-01 -4.5684461e-02 8.0979802e-02 5.1737789e-03 9.9720912e-02 7.0289512e-02 1.7254749e-01 1.9052010e-01 2.9674723e-01 2.9924105e-01 3.4793003e-01 1.4498192e-01 7.0076019e-02 -2.4051327e-02 1.5970870e-02 -2.5194136e-02 1.9563006e-02 -9.0937017e-03 2.9551226e-02 -1.8501216e-02 3.1441054e-02 -3.8107651e-02 4.2020268e-03 -2.9520517e-02 9.9783018e-03 -3.9969045e-02 -4.2028472e-03 -3.2295108e-02 4.8033392e-02 7.3633341e-02 1.1010714e-01 -9.9613714e-03 6.4740803e-02 -1.1096498e-01 8.1417699e-02 -2.6252241e-01 6.0711658e-01 1.1593444e+00 -5.7003718e-02 1.1031768e-01 -6.6940827e-02 6.1132247e-02 -2.4596453e-02 7.6459438e-02 3.2069970e-02 1.3468694e-01 1.2334912e-01 2.5637331e-01 2.7478018e-01 3.2078927e-01 1.8245174e-01 6.6709993e-02 -2.5480683e-02 -2.2548048e-02 -4.9202615e-02 -2.1308333e-02 -4.4288014e-02 -9.7174955e-03 -3.0405500e-02 -2.0148949e-02 -4.5576954e-02 -4.0663377e-02 -5.9015072e-02 -4.4227010e-02 -6.2591647e-02 -5.5084837e-02 -6.0138954e-02 -6.0045439e-02 -2.7613003e-02 4.8347311e-02 4.2464881e-02 4.6520189e-03 -3.3774816e-02 -8.1917780e-02 -4.4222011e-02 -1.5913452e-01 9.3973845e-02 1.2885968e+00 1.2465623e-01 9.3970613e-03 -5.0028241e-02 -2.0866572e-02 -4.0734540e-02 1.9052291e-02 -3.0359056e-02 7.7851861e-02 9.4760221e-02 1.8043007e-01 2.1055375e-01 2.6483099e-01 1.8199432e-01 4.3872922e-02 -6.1337126e-02 -9.9025380e-02 -1.5505908e-01 -4.0923584e-02 -6.4297363e-02 -4.8792942e-02 -7.0451403e-02 -5.7576790e-02 -8.5245626e-02 -6.3954916e-02 -8.7377471e-02 -7.5433632e-02 -9.4453199e-02 -7.2804224e-02 -9.9629720e-02 -7.7588696e-02 -9.4789441e-02 -5.5648367e-02 5.6285174e-04 3.7573437e-02 -1.8542134e-02 -3.4599582e-02 -9.5412626e-02 -8.0400871e-02 -1.2781347e-01 -1.1181738e-01 1.2236240e+00 3.2801613e-01 -8.6783975e-02 4.3258707e-03 -9.2836970e-02 5.9974097e-03 -5.3716820e-02 3.6520854e-02 -9.2669528e-03 1.0059105e-01 1.2020613e-01 2.3567193e-01 2.5434482e-01 2.5158976e-01 5.1484979e-02 -4.4522001e-03 -8.6786929e-02 -3.5887080e-02 -8.5292245e-02 -3.4640078e-02 -7.3384878e-02 -1.6472969e-02 -8.2184486e-02 -2.9340393e-02 -8.5454235e-02 -4.1564170e-02 -9.0494297e-02 -4.3183007e-02 -1.0130911e-01 -3.3772423e-02 -1.0699727e-01 2.0403391e-02 -8.6078160e-04 9.2079505e-02 -7.7728658e-02 3.5787806e-02 -1.6285053e-01 4.0264988e-02 -3.1300655e-01 5.2478910e-01 1.1324273e+00 -1.0261915e-01 5.0207351e-02 -8.6855996e-02 3.3330971e-03 -4.9492359e-02 2.8442296e-02 4.1885008e-03 8.2081238e-02 1.1399940e-01 2.0465626e-01 2.5046567e-01 2.9170291e-01 1.8449664e-01 2.7192696e-02 -3.1311993e-02 -6.5337584e-02 -6.6188684e-02 -5.9471246e-02 -6.2103302e-02 -5.2966735e-02 -5.3039270e-02 -6.5146684e-02 -5.5892200e-02 -8.2958260e-02 -6.5220383e-02 -9.5842064e-02 -6.2367701e-02 -6.3042540e-02 1.8203542e-02 1.9740595e-02 3.7332931e-03 -5.5246256e-02 -5.5949644e-02 -1.1476911e-01 -7.9519066e-02 -1.8651575e-01 1.2285397e+00 3.1804495e-01 -1.0815344e-01 -2.0173352e-03 -9.5031743e-02 -2.5284006e-02 -4.6857677e-02 1.4556879e-02 1.6938884e-02 7.9009424e-02 1.4268921e-01 2.1898783e-01 2.5700498e-01 2.1835269e-01 6.7593036e-02 -3.4827787e-02 -6.6879000e-02 -8.0163814e-02 -8.1530281e-02 -6.6348940e-02 -6.0695405e-02 -6.9287354e-02 -6.6709599e-02 -8.1229671e-02 -7.9264607e-02 -7.9485038e-02 -8.3391939e-02 -8.2374221e-02 -9.8241826e-02 -5.9163402e-02 1.4843035e-02 3.5464286e-02 -1.1886877e-02 -4.5714888e-02 -9.9750518e-02 -7.3639132e-02 -1.5965748e-01 -9.4291035e-03 1.2890566e+00 1.5438453e-01 -3.6054561e-02 -6.2736369e-02 -5.6948274e-02 -4.9589004e-02 -2.1777785e-02 -1.2464794e-02 3.4026631e-02 6.4057386e-02 1.5937271e-01 1.9970885e-01 2.7385417e-01 1.7679879e-01 6.1264273e-02 -6.5225443e-02 -7.3729338e-02 -1.0980931e-01 -7.0772794e-02 -9.6866397e-02 -5.8996764e-02 -9.6236594e-02 -5.8812691e-02 -1.0735242e-01 -7.0887600e-02 -1.2131475e-01 -7.3651252e-02 -1.3218000e-01 -8.1140470e-02 -1.2379256e-01 -6.5919675e-03 -3.5847093e-02 2.7354249e-02 -1.0848342e-01 -1.9207443e-02 -1.9722701e-01 4.4367664e-03 -3.9001980e-01 7.3634139e-01 9.3182662e-01 -1.7106723e-01 2.2842745e-02 -1.5696662e-01 -2.7298662e-02 -1.1198513e-01 -1.5221433e-02 -4.9977021e-02 4.8961129e-02 3.9463404e-02 1.6156116e-01 2.0336870e-01 2.0939831e-01 9.1858352e-02 -4.1113211e-02 -1.0606632e-01 -1.2121885e-01 -1.0778033e-01 -1.1544562e-01 -1.0304070e-01 -1.1031838e-01 -1.0364311e-01 -1.0497532e-01 -1.1301409e-01 -1.3097132e-01 -1.1169897e-01 -1.4542965e-01 -1.2792344e-01 -1.3373480e-01 -1.1425619e-01 -1.4302224e-01 -4.0338749e-02 -5.5601705e-02 7.6096668e-03 -1.1707677e-01 -5.6443199e-02 -2.1638722e-01 -4.0224737e-02 -3.8062432e-01 6.9101154e-01 9.1605763e-01 -2.0815666e-01 2.8294744e-02 -1.8822900e-01 -3.7004224e-02 -1.4163206e-01 -1.6022759e-02 -7.5082336e-02 3.7312643e-02 1.8339815e-02 1.5674892e-01 1.5481468e-01 2.2586670e-01 3.7399712e-02 -2.2326945e-02 -1.4797968e-01 -1.1471935e-01 -1.5467334e-01 -1.1829704e-01 -1.4988749e-01 -1.0950452e-01 -1.5014873e-01 -1.0261849e-01 -1.6588632e-01 -1.2901668e-01 -1.7697099e-01 -1.2837557e-01 -1.8303893e-01 -1.3573001e-01 -1.8631573e-01 -7.3781054e-02 -8.4677711e-02 -1.4855236e-02 -1.5871030e-01 -8.3855231e-02 -2.4379492e-01 -6.1025774e-02 -4.2082653e-01 4.5465910e-01 1.0200647e+00 -2.3241023e-01 -1.9752313e-02 -2.1800340e-01 -8.8688666e-02 -1.5970693e-01 -6.1962836e-02 -1.0677240e-01 -2.3390487e-03 -6.9271785e-03 1.2609581e-01 1.3911254e-01 2.0575097e-01 5.1309572e-02 -6.1052521e-02 -1.6378586e-01 -1.3715844e-01 -1.9737532e-01 -1.3644079e-01 -1.8592439e-01 -1.4200756e-01 -1.5935145e-01 -1.4310585e-01 -1.8159105e-01 -1.5728876e-01 -1.9371117e-01 -1.4503639e-01 -1.9490055e-01 -1.4783044e-01 -1.8206038e-01 -4.9825488e-02 -8.2641956e-02 -4.8397952e-02 -1.7108846e-01 -1.1120079e-01 -2.2488731e-01 -1.1918176e-01 -3.2736241e-01 1.0909553e+00 3.6232048e-01 -2.0151624e-01 -5.9791428e-02 -1.7559058e-01 -8.3225155e-02 -1.2819677e-01 -4.9636961e-02 -4.6637721e-02 3.8587519e-03 7.2232449e-02 1.4971535e-01 1.9405645e-01 1.7671168e-01 2.7111512e-02 -8.9220395e-02 -1.2440620e-01 -1.4208846e-01 -1.2589357e-01 -1.3686927e-01 -1.1498484e-01 -1.4250221e-01 -1.1312114e-01 -1.3826140e-01 -1.3075692e-01 -1.5984002e-01 -1.3817386e-01 -1.5955024e-01 -1.3720195e-01 -1.7817140e-01 -5.5186473e-02 -5.6117151e-02 -1.7199629e-02 -1.4498100e-01 -7.8157463e-02 -2.3804918e-01 -5.6890679e-02 -4.1231372e-01 6.1705744e-01 9.3465646e-01 -2.3515636e-01 -1.7255847e-03 -2.1682929e-01 -6.1973045e-02 -1.5038516e-01 -4.2392058e-02 -9.3841026e-02 1.1372254e-02 3.1270566e-03 1.2841044e-01 1.5250080e-01 2.1446022e-01 3.7879655e-02 -4.9539505e-02 -1.5296067e-01 -1.3498448e-01 -1.6870357e-01 -1.2976363e-01 -1.5674777e-01 -1.3214081e-01 -1.5329742e-01 -1.3956516e-01 -1.5783587e-01 -1.5506334e-01 -1.6938905e-01 -1.5614220e-01 -1.8472634e-01 -1.5017835e-01 -1.8090751e-01 -1.2313467e-01 -8.5753379e-02 -4.1558886e-02 -1.1976646e-01 -1.1389576e-01 -1.9569250e-01 -1.3601900e-01 -2.7185684e-01 -1.1435360e-02 1.1922975e+00 4.9170953e-02 -9.5264301e-02 -1.3325400e-01 -1.1499601e-01 -1.4078172e-01 -8.0258620e-02 -6.1639780e-02 -3.4725055e-02 -7.3117395e-03 9.0962701e-02 1.5793260e-01 2.0649366e-01 1.1999389e-01 -6.9160805e-03 -1.1244313e-01 -1.3629456e-01 -1.5852244e-01 -1.3983421e-01 -1.3864761e-01 -1.1898465e-01 -1.3526478e-01 -1.3002766e-01 -1.5193766e-01 -1.3185116e-01 -1.5468119e-01 -1.4010902e-01 -1.6884275e-01 -1.2443118e-01 -1.7019960e-01 -1.2950446e-01 -1.4219551e-01 -3.4597431e-02 -3.9658474e-02 -3.5252258e-02 -1.3045409e-01 -9.5350046e-02 -1.9127762e-01 -8.6885655e-02 -2.9924399e-01 1.0950127e+00 4.9209631e-01 -1.6539151e-01 -2.4970016e-02 -1.3689735e-01 -4.3701304e-02 -9.0273054e-02 -8.7011728e-03 -2.6531224e-02 3.9469562e-02 8.3338077e-02 1.8783710e-01 2.2423674e-01 2.0887670e-01 6.7432820e-02 -5.6069402e-02 -9.7968504e-02 -1.2816982e-01 -1.0948296e-01 -1.0351179e-01 -1.0565339e-01 -1.0984078e-01 -9.9994506e-02 -1.2550517e-01 -1.1242064e-01 -1.2669835e-01 -1.1721548e-01 -1.4441535e-01 -1.1422903e-01 -1.4510117e-01 -4.5970257e-02 -4.7939976e-02 -5.4542974e-03 -1.3097448e-01 -6.2646864e-02 -2.1799059e-01 -3.5034561e-02 -3.9977648e-01 6.4263238e-01 8.9840242e-01 -2.5848345e-01 3.2296289e-02 -2.1254272e-01 -2.5707227e-02 -1.3661662e-01 -1.1882883e-02 -6.3982703e-02 4.8455658e-02 3.2703291e-02 1.9044660e-01 1.9883989e-01 2.7763325e-01 9.9513048e-02 -2.8052644e-04 -1.1306657e-01 -7.7284519e-02 -1.1529688e-01 -7.7684098e-02 -1.0361917e-01 -6.3610179e-02 -9.4840945e-02 -7.3463318e-02 -9.8994365e-02 -7.4158307e-02 -1.0744413e-01 -7.0510148e-02 -6.7277992e-02 2.3002236e-02 2.3671454e-02 -1.8703273e-04 -4.9861196e-02 -8.3988421e-02 -7.6282518e-02 -1.4502298e-01 -5.8102047e-03 1.3079017e+00 1.2547622e-01 -1.4308132e-02 -4.3532616e-02 -2.4927311e-02 -3.2184879e-02 2.1488945e-02 1.4676545e-02 8.2249280e-02 9.5787189e-02 2.1575671e-01 2.6446081e-01 3.3771533e-01 2.4687708e-01 1.1065410e-01 -1.8887146e-02 -9.5224053e-03 -5.1194134e-02 -1.7137416e-02 -4.2285020e-02 7.4891064e-03 -3.8869039e-02 1.0403400e-02 -5.6159200e-02 5.1426973e-03 -5.1357387e-02 4.3651090e-03 -5.1559731e-02 4.0111559e-02 5.5721024e-02 1.1893976e-01 -6.5424218e-03 4.3068027e-02 -9.1237561e-02 4.3522983e-02 -2.3717879e-01 3.4233532e-01 1.2741572e+00 7.4552801e-03 5.7487802e-02 -4.9684945e-02 1.5005205e-02 -1.7876057e-02 3.7712804e-02 2.9612022e-02 9.1571797e-02 1.1555858e-01 2.2383091e-01 2.7745987e-01 3.1818391e-01 2.1277243e-01 6.1603037e-02 -1.5754981e-02 -4.5965306e-02 -4.6009388e-02 -4.6111335e-02 -3.8116576e-02 -4.4052385e-02 -2.7597744e-02 -5.2614656e-02 -4.3576738e-02 -5.2287766e-02 -7.6917016e-02 -6.4643524e-02 -5.7929500e-02 -8.5577607e-02 -3.0644444e-02 2.4328844e-02 4.7933509e-02 -4.0445264e-02 -2.3429115e-02 -1.1755497e-01 -3.3749129e-02 -2.1814493e-01 1.4329753e-01 1.2852221e+00 7.2643003e-02 -6.4584560e-03 -7.0916326e-02 -2.8140934e-02 -5.3927673e-02 -4.8607012e-03 -4.9701890e-03 5.5243026e-02 8.3900578e-02 1.7922890e-01 2.2695936e-01 2.8345535e-01 1.8623836e-01 6.8064286e-02 -4.2547643e-02 -4.6748690e-02 -7.9046067e-02 -4.9069916e-02 -6.3522358e-02 -2.5430039e-02 -4.6933089e-02 -3.8701889e-02 -5.9331558e-02 -4.5079530e-02 -6.4461334e-02 -4.7648734e-02 -6.6530828e-02 -5.3498567e-02 -6.9155741e-02 -4.8555489e-02 -4.5524884e-02 4.6726930e-02 4.2814827e-02 2.7204795e-02 -2.9252783e-02 -4.0017324e-02 -7.4476282e-02 -7.0510611e-02 -9.7251362e-02 1.2707015e+00 3.5502619e-01 -4.2029781e-02 1.8497602e-02 -4.7308461e-02 8.4672158e-03 -5.8492391e-03 4.6271084e-02 5.2194716e-02 1.1509603e-01 1.6314243e-01 2.6066437e-01 2.9356890e-01 2.7581400e-01 1.1614796e-01 1.0219830e-02 -4.1488613e-02 -4.5807943e-02 -4.5427920e-02 -2.9407316e-02 -3.3114385e-02 -1.8076478e-02 -3.5111003e-02 -3.0536551e-02 -4.3169582e-02 -5.8735312e-02
