2.7183687e-01 6.9835253e-01 6.3004097e-01 6.7240638e-01 6.8973259e-01 7.8095691e-01 8.1821702e-01 8.0204664e-01 6.6940662e-01 6.3684383e-01 6.0770527e-01 5.9259887e-01 5.0027588e-01 1.9376684e+00 1.0679990e+00 6.2409478e-01 7.1492557e-01 6.2803705e-01 7.1077049e-01 6.8466009e-01 7.5319026e-01 7.5189415e-01 8.3353169e-01 8.4802610e-01 9.1542797e-01 8.7569991e-01 7.8964463e-01 6.7329914e-01 6.6852543e-01 6.4090243e-01 6.6814843e-01 6.6116667e-01 6.8500781e-01 6.6999097e-01 6.8159791e-01 6.6007545e-01 6.6438146e-01 6.9164846e-01 7.8579045e-01 8.1797875e-01 8.0089825e-01 6.7435110e-01 6.4991303e-01 6.3177179e-01 5.9754595e-01 5.9987329e-01 1.9558897e+00 9.7870058e-01 6.8608746e-01 7.0637799e-01 6.7849265e-01 7.1384547e-01 7.2528031e-01 7.5920195e-01 7.9255008e-01 8.3761341e-01 8.8814143e-01 9.1907769e-01 9.2233177e-01 8.0901087e-01 7.2077454e-01 6.8062055e-01 6.8351769e-01 6.8410155e-01 7.0262243e-01 6.9780472e-01 7.0983632e-01 6.8980915e-01 6.9945963e-01 6.7716075e-01 6.8707226e-01 6.6801142e-01 6.8044811e-01 6.6573827e-01 6.7795756e-01 6.8676618e-01 7.8117818e-01 8.0653840e-01 8.3384638e-01 6.9112347e-01 6.8953052e-01 6.1823869e-01 6.6924265e-01 4.7999313e-01 1.8342799e+00 1.1385958e+00 6.2743779e-01 7.5045030e-01 6.4138303e-01 7.3511841e-01 6.9611399e-01 7.7251138e-01 7.5598650e-01 8.3682251e-01 8.4908841e-01 9.1979903e-01 8.9418440e-01 8.3697105e-01 6.9695320e-01 6.7375838e-01 6.3187446e-01 6.6208827e-01 6.4015136e-01 6.7364949e-01 6.4268808e-01 6.6683169e-01 6.3140339e-01 6.5335658e-01 6.1302077e-01 6.4169700e-01 6.0245652e-01 6.4057428e-01 5.9919192e-01 7.2437907e-01 7.1986355e-01 8.1021530e-01 6.5614680e-01 6.8425272e-01 5.4055803e-01 7.0785301e-01 3.5299004e-01 1.1742619e+00 1.6902680e+00 5.3535812e-01 7.7768625e-01 5.7715861e-01 7.2740303e-01 6.3438981e-01 7.6238508e-01 7.1213375e-01 8.3260676e-01 8.1686345e-01 9.2867767e-01 8.9560934e-01 9.0731192e-01 7.3077076e-01 7.0575767e-01 6.3246461e-01 6.8422009e-01 6.3729419e-01 7.0288938e-01 6.6151202e-01 7.1704525e-01 6.6459573e-01 7.0996814e-01 6.5989951e-01 7.1061845e-01 6.5507946e-01 7.1402209e-01 6.5376866e-01 7.1751282e-01 6.6098597e-01 8.0774233e-01 7.8136366e-01 8.7709345e-01 7.2075263e-01 7.7137914e-01 6.1381328e-01 7.9746316e-01 4.5036346e-01 1.1649892e+00 1.8631148e+00 7.0736728e-01 8.3277388e-01 6.9059244e-01 7.8741162e-01 7.4343042e-01 8.2130218e-01 8.1182887e-01 8.8708018e-01 9.1810496e-01 9.9303874e-01 1.0160108e+00 9.9011937e-01 8.5262071e-01 7.7060893e-01 7.3726421e-01 7.3727057e-01 7.3969423e-01 7.5266310e-01 7.6492273e-01 7.6213802e-01 7.7079861e-01 7.5528675e-01 7.5667659e-01 7.4240892e-01 7.5463369e-01 7.3833613e-01 7.5695346e-01 7.6669673e-01 8.7691642e-01 8.5877452e-01 8.9754535e-01 7.5432523e-01 7.8660285e-01 6.7315568e-01 8.0081474e-01 4.7627326e-01 1.7617762e+00 1.4674721e+00 6.6572166e-01 8.7303695e-01 6.9521279e-01 8.3304034e-01 7.4935407e-01 8.6117653e-01 8.2001692e-01 9.4011250e-01 9.4004006e-01 1.0541524e+00 1.0211977e+00 9.7704550e-01 7.9410751e-01 7.7275363e-01 7.1147638e-01 7.5013852e-01 7.0645265e-01 7.5779720e-01 7.2035108e-01 7.6358788e-01 7.1740940e-01 7.5213836e-01 7.0350848e-01 7.3981597e-01 6.9205946e-01 7.4218887e-01 6.8850623e-01 8.1050608e-01 8.0393492e-01 8.8835199e-01 7.5797616e-01 7.6499378e-01 6.2154818e-01 7.6175230e-01 4.7114096e-01 1.0236403e+00 1.9240593e+00 7.0866168e-01 7.8537292e-01 6.4597756e-01 7.2672180e-01 6.7259464e-01 7.5674919e-01 7.3328706e-01 8.1996587e-01 8.3150949e-01 9.3758432e-01 9.4262886e-01 9.4046014e-01 7.5818487e-01 6.8789619e-01 6.1274063e-01 6.3885552e-01 5.9863685e-01 6.4435573e-01 6.0046099e-01 6.4689983e-01 5.9702506e-01 6.3772420e-01 5.8113546e-01 7.0255187e-01 6.9490188e-01 7.9867393e-01 6.0458039e-01 6.3709248e-01 4.6981951e-01 6.5366532e-01 2.6248593e-01 1.2993620e+00 1.5648701e+00 4.1450656e-01 7.0459825e-01 4.7808046e-01 6.3951432e-01 5.3618146e-01 6.6537994e-01 6.0804697e-01 7.3515730e-01 7.3050623e-01 8.5983428e-01 8.2631278e-01 8.0677019e-01 5.9757640e-01 5.7651304e-01 5.0110907e-01 5.4676881e-01 4.9447564e-01 5.4823919e-01 4.9722794e-01 5.5119479e-01 4.9424708e-01 5.3588253e-01 4.9658933e-01 6.3356780e-01 6.2126357e-01 6.8738175e-01 4.9746275e-01 5.2181434e-01 4.0800070e-01 5.0765204e-01 2.5691164e-01 1.6372550e+00 1.0144366e+00 4.0992017e-01 5.5436892e-01 4.3515452e-01 5.3075990e-01 4.8616662e-01 5.6014449e-01 5.5185073e-01 6.3385983e-01 6.6717897e-01 7.4642489e-01 7.3260891e-01 6.3769434e-01 4.8816720e-01 4.5152245e-01 4.1632361e-01 4.3190635e-01 4.3047099e-01 4.6502230e-01 4.5001670e-01 4.7028347e-01 4.4304955e-01 5.1076663e-01 5.6057336e-01 6.3013203e-01 5.5034785e-01 4.7357909e-01 3.8476474e-01 4.4235412e-01 2.8543940e-01 5.2644923e-01 1.7607590e+00 5.9166206e-01 4.7051312e-01 4.1678862e-01 4.4396793e-01 4.3991762e-01 4.8217653e-01 4.9338910e-01 5.5010008e-01 5.8641081e-01 6.6170583e-01 6.8816156e-01 6.7517464e-01 5.2382345e-01 4.3661591e-01 3.8349454e-01 3.8700251e-01 3.7452236e-01 3.9376187e-01 3.8090699e-01 3.9356706e-01 3.7247101e-01 3.7621244e-01 3.9707792e-01 4.8857867e-01 5.1803242e-01 5.0463806e-01 3.6559880e-01 3.3688935e-01 3.1529211e-01 2.8498456e-01 2.6239933e-01 1.6433954e+00 6.6667218e-01 3.4494581e-01 3.7409574e-01 3.3800836e-01 3.7403897e-01 3.8448036e-01 4.1815452e-01 4.5153001e-01 5.0027245e-01 5.5752916e-01 5.9572993e-01 5.9445026e-01 4.6831334e-01 3.7016248e-01 3.2097359e-01 3.2454054e-01 3.2113775e-01 3.3577321e-01 3.3777405e-01 3.4529599e-01 3.3310441e-01 3.2948015e-01 3.5501012e-01 4.4179147e-01 4.7656042e-01 4.5280509e-01 3.2305050e-01 2.9109396e-01 2.6563567e-01 2.1629376e-01 2.3133680e-01 1.6175083e+00 5.6922979e-01 2.9499150e-01 3.0345371e-01 2.7687353e-01 2.9773800e-01 3.1859210e-01 3.4006123e-01 3.7850353e-01 4.1157445e-01 4.8243945e-01 5.0127032e-01 5.1027807e-01 3.5973196e-01 2.7964080e-01 2.0689589e-01 2.3252259e-01 1.9359841e-01 2.3899548e-01 1.9268948e-01 2.3691870e-01 1.9736403e-01 3.2364428e-01 3.0569793e-01 3.9211439e-01 1.9088638e-01 2.2755349e-01 7.0991427e-02 2.4034529e-01 -1.4753888e-01 1.1760958e+00 9.1701030e-01 2.4287073e-02 2.8596412e-01 8.9621630e-02 2.3513505e-01 1.5661557e-01 2.6165296e-01 2.2297290e-01 3.2703720e-01 3.2414540e-01 4.0939288e-01 3.8862983e-01 3.3698063e-01 1.9514260e-01 1.6489579e-01 1.3676203e-01 1.5269193e-01 1.4455273e-01 1.6016649e-01 1.6055753e-01 1.8008176e-01 2.6136245e-01 3.0796254e-01 3.3694491e-01 1.7747240e-01 1.6735762e-01 7.2765536e-02 1.6514775e-01 -1.3301566e-01 1.2318435e+00 8.0442335e-01 1.8745267e-02 2.6375054e-01 5.8639102e-02 2.2600200e-01 1.1989128e-01 2.6022169e-01 1.9291029e-01 3.2571317e-01 2.8570324e-01 4.0166367e-01 3.2974219e-01 3.0977774e-01 1.2517113e-01 1.5338519e-01 7.2948527e-02 1.4654813e-01 8.2519157e-02 1.5955564e-01 8.2524086e-02 2.2635075e-01 2.0658230e-01 3.3257840e-01 1.5282328e-01 1.5574814e-01 -1.7388042e-02 1.4525546e-01 -1.8397236e-01 3.8440175e-01 1.3521084e+00 1.1070564e-01 1.5492481e-01 4.5206353e-02 1.0585014e-01 8.7767560e-02 1.3944177e-01 1.4661618e-01 1.9724522e-01 2.3847618e-01 2.8988692e-01 3.1331978e-01 2.7754207e-01 1.6148981e-01 8.7736250e-02 7.3931110e-02 6.5347424e-02 8.6219762e-02 8.1004967e-02 1.0293515e-01 7.9831769e-02 1.5428569e-01 1.9811530e-01 2.6945554e-01 1.7239219e-01 1.0261778e-01 -7.9065286e-04 8.0980069e-02 -1.2764345e-01 2.0694762e-01 1.3909940e+00 1.6539121e-01 1.2001538e-01 3.0491441e-02 8.3150849e-02 5.7528430e-02 1.2264081e-01 1.1684806e-01 1.8195886e-01 2.0177783e-01 2.7202277e-01 2.8083576e-01 2.8417292e-01 1.5133783e-01 9.7435859e-02 5.2843378e-02 8.0877272e-02 6.6710312e-02 1.0034481e-01 8.5901486e-02 1.0052815e-01 1.0978791e-01 2.1480151e-01 2.3337848e-01 2.4981575e-01 9.4014628e-02 8.5607357e-02 2.5062034e-02 5.6471748e-02 -1.0530617e-01 1.3523852e+00 5.4393761e-01 4.7702070e-02 1.5389016e-01 5.3510755e-02 1.4354632e-01 1.0708153e-01 1.7877233e-01 1.7981838e-01 2.4979196e-01 2.6574600e-01 3.2712139e-01 3.0018065e-01 2.3103694e-01 1.1624401e-01 1.0311059e-01 7.6239998e-02 1.1028389e-01 9.4873497e-02 1.2632441e-01 9.4931630e-02 1.6526175e-01 2.0047758e-01 2.8443252e-01 1.8380914e-01 1.1696006e-01 1.8170077e-02 9.7215360e-02 -1.0416552e-01 2.2478968e-01 1.3824385e+00 1.1427874e-01 1.3590620e-01 3.8551752e-02 9.9776375e-02 6.4589924e-02 1.3916281e-01 1.2541764e-01 2.0342313e-01 2.0408879e-01 2.8857460e-01 2.8131153e-01 2.9758334e-01 1.4389357e-01 1.1411983e-01 4.2192595e-02 9.4647838e-02 4.5436117e-02 1.1466330e-01 7.0053387e-02 2.1187598e-01 2.0026843e-01 3.1767424e-01 1.0146735e-01 1.4588256e-01 -3.0930644e-02 1.6594331e-01 -2.6268256e-01 9.4538206e-01 9.2662468e-01 -5.1580766e-02 2.3099472e-01 2.1333076e-02 1.8020833e-01 9.6429925e-02 2.1084339e-01 1.7492950e-01 2.7914434e-01 2.7965449e-01 3.5793820e-01 3.4438266e-01 3.0404075e-01 1.8292141e-01 1.5814122e-01 1.4120390e-01 1.5132103e-01 1.6657095e-01 1.7925212e-01 2.7418521e-01 3.2168948e-01 3.7813278e-01 2.1501902e-01 2.0040704e-01 7.0948448e-02 2.2027711e-01 -1.8639776e-01 9.0730766e-01 1.1422057e+00 2.0472366e-02 3.1690578e-01 5.8795362e-02 2.6250523e-01 1.2446970e-01 2.8404577e-01 1.8958922e-01 3.3415635e-01 2.7628465e-01 4.0971052e-01 3.3193711e-01 3.4584467e-01 1.5346071e-01 1.9702010e-01 1.0071708e-01 1.9027365e-01 1.1312180e-01 1.9839519e-01 1.5173927e-01 3.1908831e-01 2.8214817e-01 3.5311856e-01 1.3426621e-01 1.6794091e-01 4.5595436e-02 1.3284543e-01 -1.2384295e-01 1.4099166e+00 5.5172542e-01 1.0150886e-01 1.5310451e-01 1.0299128e-01 1.2173575e-01 1.4086592e-01 1.5067676e-01 2.0601245e-01 2.2338336e-01 3.0180879e-01 3.0377294e-01 3.2905996e-01 1.6643142e-01 1.1649654e-01 3.5680227e-02 7.8489670e-02 2.4362224e-02 8.9211510e-02 4.9491912e-02 1.9879836e-01 1.7989069e-01 2.8481576e-01 5.4763329e-02 1.0134904e-01 -7.8181888e-02 1.0920262e-01 -3.0983840e-01 1.0688226e+00 7.6490268e-01 -1.0253749e-01 1.4070409e-01 -4.1319477e-02 8.7625089e-02 2.7561307e-02 1.1386176e-01 1.0186687e-01 1.8085129e-01 1.8895479e-01 2.4876057e-01 2.4602426e-01 1.6658512e-01 5.9353663e-02 2.3435590e-02 2.0873494e-02 1.6764119e-02 3.4764944e-02 2.4298939e-02 4.6300669e-02 1.8838125e-02 1.3693611e-01 1.4308814e-01 2.2598074e-01 5.0852736e-02 6.2283858e-02 -7.9652088e-02 7.7816453e-02 -2.7964575e-01 1.0139243e+00 8.1677780e-01 -1.1714497e-01 1.5405247e-01 -5.5167433e-02 1.1485539e-01 1.5822219e-02 1.4515768e-01 9.2280960e-02 2.0544317e-01 1.8782354e-01 2.8937077e-01 2.5470822e-01 2.2479640e-01 7.7228112e-02 7.6417810e-02 2.8386646e-02 7.4616548e-02 5.6091561e-02 9.7048311e-02 7.0892445e-02 9.2937438e-02 9.7597184e-02 2.0178509e-01 2.2435012e-01 2.2457427e-01 8.2957993e-02 4.9606322e-02 2.9802385e-02 -1.5758685e-02 1.1318640e-02 1.4097939e+00 3.7430201e-01 7.3346159e-02 9.3598962e-02 6.8225915e-02 1.0721201e-01 1.2045355e-01 1.5659339e-01 1.8357479e-01 2.3927297e-01 2.7793042e-01 3.1995187e-01 3.0219299e-01 1.9713643e-01 1.1050868e-01 9.2936703e-02 8.5338349e-02 1.0033879e-01 9.9787344e-02 1.2569123e-01 1.1481234e-01 1.2816857e-01 1.0216044e-01 1.2238674e-01 9.6433319e-02 1.1886634e-01 9.1171546e-02 2.0171090e-01 2.2200653e-01 3.1514748e-01 1.5672035e-01 1.7192694e-01 3.2436861e-02 1.9494294e-01 -1.6902299e-01 8.8308938e-01 1.0964957e+00 3.4809402e-02 2.8684286e-01 7.0018635e-02 2.4244314e-01 1.3502862e-01 2.6506763e-01 1.9851600e-01 3.2805386e-01 2.9246983e-01 4.1633965e-01 3.7250046e-01 3.8872336e-01 2.0798066e-01 2.1071870e-01 1.3153630e-01 1.9996236e-01 1.4736854e-01 2.2023263e-01 1.6423709e-01 2.2176100e-01 1.5986962e-01 2.1143659e-01 1.4144210e-01 2.0021796e-01 1.3444677e-01 1.9842071e-01 1.3412579e-01 1.9727372e-01 1.4585489e-01 3.0018778e-01 2.5867983e-01 3.5220711e-01 1.6571262e-01 2.3410424e-01 7.3027523e-02 2.4911956e-01 -1.1580240e-01 1.1766364e+00 8.9674439e-01 1.2552005e-01 3.0362402e-01 1.5941288e-01 2.6244608e-01 2.1841737e-01 2.9084461e-01 2.7534807e-01 3.4207091e-01 3.6078617e-01 4.2006462e-01 4.2107544e-01 3.6835416e-01 2.4153039e-01 1.9094386e-01 1.6480857e-01 1.6629296e-01 1.6923696e-01 1.7703048e-01 1.8280961e-01 1.7647618e-01 1.7164403e-01 1.5964220e-01 1.5522778e-01 1.4205876e-01 1.5179664e-01 1.3655339e-01 1.5008780e-01 1.2676182e-01 1.7888398e-01 2.3548517e-01 2.7937923e-01 2.4611521e-01 1.7840119e-01 1.2020422e-01 1.4221948e-01 5.6974915e-02 1.1516059e-01 1.3639257e+00 3.7410686e-01 1.4996717e-01 1.8491298e-01 1.4003557e-01 1.8559843e-01 1.8690858e-01 2.3284675e-01 2.4153973e-01 3.1386900e-01 3.4029437e-01 4.0701013e-01 3.7532527e-01 2.8916015e-01 1.5402808e-01 1.3235990e-01 9.3116766e-02 1.1633289e-01 9.5703146e-02 1.3168514e-01 1.1427053e-01 1.3925794e-01 1.0484881e-01 1.3047200e-01 9.1287801e-02 1.2209804e-01 8.4389693e-02 1.7168091e-01 2.0008396e-01 2.7719403e-01 1.8509476e-01 1.6061036e-01 5.7548522e-02 1.3633136e-01 -3.8856364e-02 2.2063130e-01 1.3469304e+00 2.3664205e-01 1.5985326e-01 1.2935934e-01 1.3575288e-01 1.5506055e-01 1.7372842e-01 2.1254297e-01 2.3690756e-01 3.0761533e-01 3.5313896e-01 4.0702904e-01 3.6927597e-01 2.5582756e-01 1.3065758e-01 1.1652151e-01 7.8587729e-02 1.0494512e-01 8.1626652e-02 1.2456508e-01 9.7491565e-02 1.3081388e-01 8.5854309e-02 1.1920321e-01 6.5953369e-02 1.1256784e-01 5.8307717e-02 1.9480473e-01 1.7347722e-01 2.6915632e-01 1.0340005e-01 1.4280714e-01 -2.5132688e-02 1.5866324e-01 -2.1523478e-01 6.7004706e-01 1.1382327e+00 7.3244769e-03 1.9676371e-01 2.0925801e-02 1.4704708e-01 7.5422650e-02 1.6782076e-01 1.4019230e-01 2.3073544e-01 2.4518505e-01 3.3244278e-01 3.3698751e-01 3.0097914e-01 1.4160695e-01 7.5357771e-02 3.7652677e-02 4.3584706e-02 3.5129441e-02 4.9791965e-02 5.7424968e-02 6.2195556e-02 6.0239555e-02 4.5869462e-02 5.5402467e-02 2.8519394e-02 9.7151850e-02 1.5214314e-01 2.3063788e-01 1.5197665e-01 9.1594100e-02 -1.0887389e-02 7.3669760e-02 -1.2985006e-01 2.4102891e-01 1.3109753e+00 1.3830364e-01 1.2676473e-01 3.9361235e-02 1.0073987e-01 7.9711256e-02 1.3986520e-01 1.4228186e-01 2.0809688e-01 2.5011999e-01 3.2149917e-01 3.5685752e-01 3.3614629e-01 1.9605997e-01 1.0591619e-01 6.6720665e-02 6.3382410e-02 6.9002395e-02 6.9117487e-02 8.8536201e-02 8.1181830e-02 9.3866183e-02 6.8918335e-02 8.7613705e-02 5.4277709e-02 1.4869877e-01 1.8326771e-01 2.7263123e-01 1.4297743e-01 1.2393478e-01 -1.2931566e-02 1.3205416e-01 -1.8599050e-01 5.3328985e-01 1.2395945e+00 2.6609157e-02 1.9683009e-01 1.4386066e-02 1.3881698e-01 6.5206118e-02 1.6693342e-01 1.3146419e-01 2.3695707e-01 2.3965681e-01 3.4365855e-01 3.3713605e-01 3.3156423e-01 1.5821527e-01 1.1264646e-01 5.2337798e-02 7.9603918e-02 5.4901757e-02 8.9099577e-02 7.7639134e-02 9.0617734e-02 7.9204522e-02 7.7675677e-02 1.0907689e-01 1.7793806e-01 2.3549710e-01 1.9216092e-01 9.4627977e-02 2.6504532e-02 6.5922795e-02 -7.9121769e-02 1.8350783e-01 1.3548704e+00 1.2462695e-01 1.1557186e-01 3.3386289e-02 8.5324059e-02 6.1398096e-02 1.2126784e-01 1.1971397e-01 1.8613887e-01 2.1498453e-01 2.9491485e-01 3.1251884e-01 3.1275459e-01 1.6419874e-01 8.6742236e-02 3.4172010e-02 4.4725466e-02 3.7470758e-02 4.7097616e-02 5.4552512e-02 5.7002397e-02 5.5116330e-02 5.4877106e-02 1.4042807e-01 1.7688585e-01 2.3219353e-01 8.7374505e-02 6.5925266e-02 -3.0400036e-02 7.8662369e-02 -2.1635686e-01 1.0680883e+00 7.4509096e-01 -8.8727548e-02 1.8662742e-01 -3.2950344e-02 1.4522643e-01 3.4191293e-02 1.7811636e-01 1.1002080e-01 2.4946893e-01 2.1793251e-01 3.4372365e-01 2.8398850e-01 2.7186907e-01 8.2959337e-02 1.0193363e-01 2.4713042e-02 9.2582596e-02 4.3079633e-02 1.0900325e-01 5.8801421e-02 1.0849364e-01 5.3819095e-02 9.6154319e-02 8.4282098e-02 2.1835447e-01 2.2523413e-01 2.4459216e-01 8.9150015e-02 7.7477338e-02 4.9125929e-02 9.1128549e-03 8.1684454e-02 1.4008580e+00 2.7722579e-01 1.4625328e-01 8.4731527e-02 1.3451626e-01 1.0073550e-01 1.7541841e-01 1.4768204e-01 2.4072105e-01 2.2937944e-01 3.4081357e-01 3.1973174e-01 3.7308805e-01 1.9879676e-01 1.6986530e-01 6.5353781e-02 1.2558628e-01 6.7261032e-02 1.4150320e-01 7.7920583e-02 1.4752102e-01 6.5356104e-02 1.3471168e-01 5.6482567e-02 2.2516105e-01 1.8576356e-01 3.0398742e-01 7.6276938e-02 1.3406623e-01 -4.2251233e-02 1.4013946e-01 -2.3856250e-01 1.1305614e+00 7.7788265e-01 -1.3492446e-02 1.4819303e-01 1.4371893e-02 1.0941501e-01 7.2914249e-02 1.3415753e-01 1.3861063e-01 1.9255383e-01 2.3438334e-01 2.7334024e-01 2.9073454e-01 1.9718631e-01 9.3881362e-02 2.7002209e-02 2.7347568e-02 1.2169440e-02 4.2365474e-02 2.2599818e-02 5.3714931e-02 1.3728735e-02 4.6885999e-02 -5.3983635e-03 3.6692773e-02 -2.3003606e-02 8.7379148e-02 1.0227350e-01 2.1112846e-01 7.0457522e-02 6.4165872e-02 -8.6787433e-02 6.2398147e-02 -2.4354659e-01 3.3408488e-01 1.1874281e+00 3.4057831e-03 7.7083322e-02 -4.3160468e-02 2.9345182e-02 -3.8059831e-03 5.2684140e-02 5.3793457e-02 1.0869502e-01 1.3858171e-01 1.8842991e-01 2.1697109e-01 1.9717338e-01 8.5088171e-02 -2.5073115e-03 -2.2057378e-02 -3.2907962e-02 -9.1103188e-03 -2.1995310e-02 1.2445843e-03 -2.2780783e-02 -5.0291670e-03 -4.4309276e-02 -1.5111271e-02 -6.5773751e-02 3.4816762e-02 5.2586758e-02 1.6352542e-01 2.4899988e-02 9.2083471e-03 -1.3213168e-01 6.6280269e-03 -2.8865651e-01 3.1672004e-01 1.1565488e+00 -6.4502545e-02 4.6701179e-02 -9.7743718e-02 -6.4633222e-03 -5.8308735e-02 1.9132274e-02 -6.3276685e-04 6.8472395e-02 8.7998656e-02 1.5720295e-01 1.6126881e-01 1.5101865e-01 2.0588364e-02 -4.7281732e-02 -8.4705043e-02 -8.7249362e-02 -7.7984270e-02 -7.4770162e-02 -7.2200059e-02 -8.4724779e-02 -7.9060051e-02 -1.0508395e-01 -3.2468011e-02 -7.9190044e-03 8.3158294e-02 -3.3660949e-02 -7.0751635e-02 -1.9470889e-01 -6.5286707e-02 -3.5809499e-01 3.0095013e-01 1.0755432e+00 -2.1479499e-01 -4.6219252e-04 -1.9586565e-01 -5.7046924e-02 -1.5088068e-01 -3.0107300e-02 -8.8051879e-02 3.1726367e-02 -1.6326172e-03 1.1761026e-01 7.6709323e-02 1.0758495e-01 -7.9660128e-02 -8.8664770e-02 -1.8386483e-01 -1.2283821e-01 -1.8620665e-01 -1.1159656e-01 -1.8389840e-01 -1.0987387e-01 -1.9132140e-01 -4.2912549e-02 -7.6902503e-02 5.7548473e-02 -1.4414844e-01 -1.0821803e-01 -2.9191234e-01 -9.2150980e-02 -5.0295791e-01 6.3081667e-01 7.3644832e-01 -3.1874353e-01 -5.4264193e-02 -2.5904880e-01 -1.0696909e-01 -1.9892306e-01 -8.1944776e-02 -1.2685606e-01 -2.4461623e-02 -3.2055523e-02 5.2897146e-02 3.1603532e-02 1.3148729e-02 -1.4289180e-01 -1.5831268e-01 -2.1478627e-01 -1.7752612e-01 -2.0736382e-01 -1.6673065e-01 -1.9337525e-01 -1.6840600e-01 -1.7795169e-01 -6.8178344e-02 -5.2627694e-02 -2.1339750e-02 -1.8850696e-01 -2.0115920e-01 -2.5969049e-01 -2.3676205e-01 -3.5536695e-01 1.0670654e+00 1.7681810e-01 -2.3098750e-01 -1.5586638e-01 -2.2386307e-01 -1.6106861e-01 -1.6760343e-01 -1.2057064e-01 -1.0223906e-01 -4.8483384e-02 -1.1882435e-02 2.7205645e-02 2.6191621e-02 -6.8731056e-02 -1.6101106e-01 -1.9590028e-01 -1.9256506e-01 -1.9269777e-01 -1.7360346e-01 -1.8242457e-01 -1.6583548e-01 -1.9106531e-01 -1.2471045e-01 -7.5437425e-02 4.5308219e-03 -7.8514804e-02 -1.5007637e-01 -2.5104222e-01 -1.6704498e-01 -3.7098593e-01 -1.7094882e-02 1.1327393e+00 -9.8836352e-02 -1.1326387e-01 -2.1420655e-01 -1.4696429e-01 -1.7950149e-01 -1.0731708e-01 -1.2642382e-01 -5.1143832e-02 -4.6507545e-02 3.4610334e-02 2.4868758e-02 4.3038765e-02 -9.9878627e-02 -1.4252988e-01 -2.0299193e-01 -1.6319932e-01 -1.9441593e-01 -1.4363393e-01 -1.8832694e-01 -1.4677444e-01 -1.8879147e-01 -5.7419656e-02 -6.4210495e-02 2.1236936e-02 -1.7760983e-01 -1.5677188e-01 -2.9908955e-01 -1.5002331e-01 -5.2308755e-01 8.3087411e-01 5.3807608e-01 -3.1489149e-01 -9.8514577e-02 -2.8005672e-01 -1.3612838e-01 -2.2455738e-01 -1.1186157e-01 -1.5657863e-01 -4.9886263e-02 -7.3114948e-02 1.2308835e-02 -2.5849724e-02 -4.7775061e-02 -1.9769879e-01 -1.8902843e-01 -2.5109627e-01 -1.9378873e-01 -2.3333351e-01 -1.8214686e-01 -2.3360908e-01 -1.8819688e-01 -2.5370788e-01 -1.4072916e-01 -1.3464889e-01 -2.1861998e-02 -1.6424547e-01 -1.8139166e-01 -3.2761336e-01 -1.7747706e-01 -4.8454730e-01 1.1504889e-01 1.0020309e+00 -2.4395813e-01 -1.3589123e-01 -2.8346308e-01 -1.8232532e-01 -2.3638901e-01 -1.5107083e-01 -1.8237614e-01 -9.1835606e-02 -1.0103779e-01 -2.0384678e-02 -3.7624080e-02 -2.0818304e-02 -1.6098694e-01 -1.8681562e-01 -2.4783362e-01 -2.0696827e-01 -2.3707148e-01 -1.8609653e-01 -2.2804764e-01 -1.8520045e-01 -2.5171537e-01 -1.4667181e-01 -1.3718185e-01 -3.1920395e-02 -1.5100244e-01 -1.9026191e-01 -3.2173095e-01 -1.9827088e-01 -4.5562186e-01 1.3798460e-03 1.0448843e+00 -1.8707560e-01 -1.6727192e-01 -2.7064709e-01 -2.0894280e-01 -2.3260135e-01 -1.7520279e-01 -1.7042316e-01 -1.1402747e-01 -8.5841562e-02 -3.7760089e-02 -1.5956306e-02 -3.6239579e-02 -1.4196364e-01 -2.1423222e-01 -2.4116502e-01 -2.4443486e-01 -2.3231616e-01 -2.2858663e-01 -2.2235972e-01 -2.0764546e-01 -1.2190249e-01 -8.6796529e-02 -6.4085939e-02 -2.1893219e-01 -2.3721632e-01 -3.0908919e-01 -2.6060256e-01 -4.6362383e-01 9.2935520e-01 1.5793672e-01 -3.3291885e-01 -1.6964883e-01 -2.9991746e-01 -1.8579102e-01 -2.3699097e-01 -1.4288034e-01 -1.6636628e-01 -7.1017982e-02 -7.1521441e-02 2.1316152e-03 -2.5411630e-02 -8.2127097e-02 -1.9694233e-01 -2.1016905e-01 -2.3097321e-01 -2.0964594e-01 -2.0495868e-01 -1.9988452e-01 -1.4651985e-01 -7.7565542e-02 -6.9619811e-03 -7.7087063e-02 -1.6445876e-01 -2.4658542e-01 -1.7538125e-01 -3.9272460e-01 -1.6288957e-02 1.0573933e+00 -2.1490245e-01 -8.6433703e-02 -2.3462180e-01 -1.2170720e-01 -1.8783117e-01 -8.2123589e-02 -1.2947395e-01 -1.5327413e-02 -4.0112255e-02 6.5746646e-02 2.5294614e-02 6.8188202e-02 -1.0728361e-01 -1.0105463e-01 -1.8879797e-01 -1.1621063e-01 -1.8190166e-01 -8.9345157e-02 -1.6126134e-01 4.4350434e-04 -3.0762878e-02 1.0918138e-01 -1.0790140e-01 -6.3809746e-02 -2.6179963e-01 -4.4906546e-02 -4.9718489e-01 5.8095392e-01 8.5378537e-01 -2.5891845e-01 -4.1975116e-03 -2.0430815e-01 -5.8912640e-02 -1.4109887e-01 -2.7888215e-02 -7.0649413e-02 3.2280699e-02 1.9336346e-02 1.0186024e-01 8.0060688e-02 5.7431741e-02 -8.1553628e-02 -8.6621691e-02 -1.3213687e-01 -8.5785193e-02 -1.0805627e-01 -6.1223146e-02 -6.9800889e-02 5.1444760e-02 6.7144133e-02 1.1612523e-01 -6.0847313e-02 -6.0483222e-02 -1.5905504e-01 -7.4073182e-02 -3.6599417e-01 1.0898623e+00 5.0934156e-01 -1.5112935e-01 2.4611953e-02 -1.2061049e-01 8.6780801e-03 -5.5885513e-02 4.4540391e-02 1.5760939e-02 1.1517767e-01 1.0735172e-01 1.8355727e-01 1.3957958e-01 9.4245031e-02 -3.0818180e-02 -1.1127699e-02 -5.7504411e-02 -4.1696540e-03 -3.3195966e-02 1.8250734e-02 2.2783958e-03 1.3230036e-01 1.3749900e-01 1.8317084e-01 2.8067573e-03 9.6361950e-03 -8.5286399e-02 -1.3247263e-02 -2.6055628e-01 1.2285619e+00 5.2674469e-01 -6.8344308e-02 5.7322360e-02 -5.3841994e-02 3.9414407e-02 3.7408996e-03 7.9142910e-02 7.0526469e-02 1.4158394e-01 1.5268886e-01 2.1032323e-01 1.8051051e-01 1.0158480e-01 -1.4022289e-03 -1.3898021e-02 -3.7965629e-02 -1.5889417e-02 -2.0358475e-02 -1.0565180e-03 1.2272871e-02 9.3290921e-02 1.2975623e-01 1.2965116e-01 -1.5063157e-02 -5.0666338e-02 -9.0443007e-02 -1.0432295e-01 -2.0135732e-01 1.2142369e+00 2.4635244e-01 -9.7048346e-02 -1.6496193e-02 -8.4425205e-02 -2.3226858e-02 -3.2628367e-02 2.2870952e-02 3.1513425e-02 9.2437444e-02 1.1111993e-01 1.5985312e-01 1.4025234e-01 4.5711463e-02 -3.6086728e-02 -5.8154904e-02 -6.3510992e-02 -6.0028977e-02 -3.8439446e-02 -4.5639528e-02 1.8428461e-02 7.0443619e-02 1.4812578e-01 5.7422296e-02 -1.1600599e-02 -1.1677157e-01 -2.4958451e-02 -2.6595207e-01 1.4155237e-01 1.1925007e+00 -7.2671989e-02 3.1566617e-02 -1.0448525e-01 -1.0185607e-02 -6.7743160e-02 2.3513453e-02 -1.0849960e-02 8.0031050e-02 6.7542189e-02 1.5237158e-01 1.3666307e-01 1.4126093e-01 -1.4535192e-02 -2.3544957e-02 -8.9251743e-02 -4.7828624e-02 -8.3059621e-02 -2.4601323e-02 -7.0035540e-02 2.0029822e-02 4.6894917e-02 1.4277406e-01 6.7354929e-02 -5.9620331e-03 -1.0926042e-01 -5.7547523e-02 -1.8492984e-01 -8.6665563e-02 1.2319369e+00 1.9234747e-01 -7.1169871e-02 -1.4351264e-02 -8.1365644e-02 -5.0493362e-03 -3.6058203e-02 4.0527974e-02 2.8355134e-02 1.1399106e-01 1.0923633e-01 1.8149053e-01 1.1585679e-01 5.1865465e-02 -6.3682999e-02 -3.8018136e-02 -8.6588299e-02 -3.5376822e-02 -6.9707126e-02 -1.2938217e-02 -5.9448051e-02 -1.2657408e-02 -7.8227972e-02 2.2104063e-02 3.8874666e-02 1.4997968e-01 3.6222014e-02 -8.5605598e-04 -1.2941198e-01 -2.8146798e-02 -2.3038072e-01 8.6536325e-02 1.2226858e+00 9.5104611e-02 -2.0499034e-02 -4.4229233e-02 -4.6219763e-02 -1.9916166e-02 -9.8549300e-03 2.6793101e-02 4.4580088e-02 1.0675594e-01 1.2221182e-01 1.8164667e-01 1.3066176e-01 4.6573426e-02 -5.8638661e-02 -4.8178735e-02 -8.0103683e-02 -4.0499272e-02 -6.3784698e-02 -2.2164762e-02 -5.8011164e-02 -2.4839611e-02 -7.8378288e-02 -4.1697147e-02 -9.7815401e-02 -4.7985945e-02 -9.2621668e-02 4.1963521e-02 2.7185145e-02 1.2535627e-01 -6.7547504e-02 -1.6202322e-02 -1.7631622e-01 -5.1010547e-03 -3.8031748e-01 9.1595987e-01 6.0501793e-01 -1.7268515e-01 4.2213174e-02 -1.1950923e-01 4.5708725e-03 -5.1700434e-02 3.4395034e-02 1.5190837e-02 9.2853449e-02 1.1618896e-01 1.7011038e-01 1.6386295e-01 1.0448226e-01 -1.7366019e-02 -5.8672324e-02 -8.0371441e-02 -7.8335758e-02 -6.9508560e-02 -6.7967488e-02 -5.5609017e-02 -6.7428200e-02 -6.1619969e-02 -8.8282601e-02 -7.4241359e-02 -1.0542076e-01 -8.5417397e-02 -1.1079527e-01 -3.4368397e-03 2.2633992e-03 9.4362454e-02 -7.9716641e-02 -4.6078741e-02 -1.9700586e-01 -2.5857479e-02 -4.0651794e-01 7.1938939e-01 7.3218285e-01 -2.3320089e-01 4.4736550e-02 -1.7233418e-01 -7.9874259e-04 -1.0068304e-01 2.8763649e-02 -3.2873530e-02 8.9020825e-02 7.1391791e-02 1.8317623e-01 1.4487051e-01 1.3810529e-01 -3.6399206e-02 -3.7738513e-02 -1.0554422e-01 -5.9416176e-02 -9.8395865e-02 -3.7073896e-02 -7.3350127e-02 -1.7837539e-02 -6.7482365e-02 -2.3091930e-02 -6.9719496e-02 -2.9138205e-02 -6.9660735e-02 -2.5893140e-02 -3.9203577e-02 8.9674162e-02 7.9351849e-02 1.3042239e-01 -3.0784517e-02 1.2327582e-02 -9.5599789e-02 1.4035984e-02 -2.5488730e-01 1.1065675e+00 5.3300472e-01 -5.3501664e-02 9.2863702e-02 -2.0839522e-02 7.9332933e-02 4.8280047e-02 1.2333113e-01 1.1992314e-01 2.0066548e-01 2.3211584e-01 3.0233080e-01 2.9057098e-01 2.1436554e-01 8.2413202e-02 4.9777676e-02 2.7806225e-02 3.8411272e-02 3.7173216e-02 5.7347683e-02 5.9901313e-02 6.8694475e-02 5.7917055e-02 5.7642460e-02 4.6695721e-02 4.6029094e-02 4.4529199e-02 4.5526107e-02 3.7628056e-02 7.4655034e-02 1.5455843e-01 1.8081402e-01 1.7354100e-01 6.5424645e-02 4.7073343e-02 1.2978568e-03 2.4043143e-02 -1.2480780e-01 1.2092118e+00 5.0946928e-01 6.8908970e-03 1.2677124e-01 1.6687881e-02 1.1334686e-01 6.7942070e-02 1.5590067e-01 1.3319814e-01 2.2810270e-01 2.3930678e-01 3.2548174e-01 2.8673269e-01 2.2134579e-01 6.7087852e-02 5.0116828e-02 -1.4242597e-03 3.4347320e-02 -4.2430770e-03 4.2688987e-02 7.2235788e-03 4.5339567e-02 1.4909353e-03 2.6946078e-02 -1.5155711e-02 1.4799844e-02 -2.7636045e-02 1.2470212e-02 -3.3187664e-02 7.4803432e-03 -1.8088947e-02 1.0954952e-01 9.2245517e-02 1.4591777e-01 -1.1739280e-02 2.8085580e-02 -9.7705867e-02 2.4935143e-02 -2.7825898e-01 1.0503088e+00 5.3800560e-01 -1.1181715e-01 7.6643700e-02 -7.5994131e-02 3.9558368e-02 -2.1485293e-02 6.7500307e-02 4.5427393e-02 1.3371559e-01 1.5476711e-01 2.3360013e-01 2.1891192e-01 1.5807211e-01 -3.7150987e-03 -3.7679708e-02 -8.9126808e-02 -6.2093661e-02 -8.7832601e-02 -5.2418321e-02 -7.2356105e-02 -5.2703750e-02 -8.1710155e-02 -6.0058839e-02 -9.7348632e-02 -6.9191184e-02 -8.7452951e-02 3.0397226e-02 2.7322191e-02 8.4067827e-02 -7.6835104e-02 -4.0887959e-02 -1.7411364e-01 -2.2801566e-02 -3.7322425e-01 8.6388165e-01 6.4275441e-01 -2.0892384e-01 5.2288192e-02 -1.5468912e-01 1.4731222e-02 -9.3974644e-02 4.3008715e-02 -1.9369325e-02 1.1757725e-01 1.0363031e-01 2.3483403e-01 1.8163394e-01 1.5756004e-01 -4.1654633e-02 -3.5663375e-02 -1.2206690e-01 -5.8401922e-02 -1.2639572e-01 -4.7599296e-02 -1.0863146e-01 -3.8417961e-02 -1.1570109e-01 -4.9475340e-02 -1.3143355e-01 -6.0176300e-02 -1.3311516e-01 3.7586311e-02 -1.5568927e-02 1.0286586e-01 -9.9937588e-02 -2.7031326e-02 -2.1542823e-01 1.5764494e-04 -4.2629119e-01 6.7170179e-01 8.3421793e-01 -1.8597636e-01 2.3282731e-02 -1.4780223e-01 -2.8421124e-02 -8.9144073e-02 -5.8756705e-03 -2.1299113e-02 5.9029457e-02 8.8720349e-02 1.6869823e-01 1.7792124e-01 1.2526923e-01 -2.3540641e-02 -8.8268145e-02 -1.1646992e-01 -1.1196173e-01 -1.0928112e-01 -1.0202230e-01 -9.5087055e-02 -9.5955399e-02 -9.7337180e-02 -1.0614622e-01 -1.1088575e-01 -9.6415304e-02 3.7888444e-03 3.6589974e-02 5.1807909e-02 -9.2627276e-02 -1.1019709e-01 -1.6446045e-01 -1.3780868e-01 -2.6916643e-01 1.1171650e+00 3.1729193e-01 -1.4059208e-01 -5.1618109e-02 -1.2681781e-01 -6.1474221e-02 -7.5297829e-02 -1.8350558e-02 -6.3339785e-03 6.0798738e-02 1.1147476e-01 1.6953685e-01 1.6631541e-01 4.7271455e-02 -6.3760685e-02 -1.1440170e-01 -1.1674369e-01 -1.2753171e-01 -1.0706907e-01 -1.1470868e-01 -9.4110238e-02 -1.1650762e-01 -1.0275521e-01 -1.3210888e-01 -1.0563912e-01 -1.4787923e-01 -3.0472142e-02 -1.7526910e-02 8.0790527e-02 -8.1264432e-02 -6.9711926e-02 -2.1624975e-01 -4.8398832e-02 -4.0927689e-01 5.0731117e-01 9.5185428e-01 -2.0983552e-01 1.4485755e-02 -1.9279344e-01 -3.7949615e-02 -1.3838801e-01 -1.0050661e-02 -7.2932469e-02 4.7594334e-02 2.5932580e-02 1.4417112e-01 1.1164200e-01 1.2263861e-01 -6.3783853e-02 -8.3366740e-02 -1.6823914e-01 -1.1544385e-01 -1.6526195e-01 -1.0189762e-01 -1.5933389e-01 -9.6212652e-02 -1.6664132e-01 -1.0969776e-01 -1.7527205e-01 -3.2787703e-02 -5.1379004e-02 6.3438973e-02 -1.4133690e-01 -9.3902750e-02 -2.6204398e-01 -7.1662265e-02 -4.7061416e-01 7.2756213e-01 6.9113518e-01 -3.0293469e-01 -2.3532152e-02 -2.3696980e-01 -7.3181889e-02 -1.7364492e-01 -4.7690758e-02 -1.0096314e-01 2.2061070e-02 5.5511936e-03 1.2189929e-01 8.6692663e-02 7.1583736e-02 -1.0039347e-01 -1.1415137e-01 -1.8169361e-01 -1.3021298e-01 -1.7876979e-01 -1.1370535e-01 -1.6558524e-01 -1.0695596e-01 -1.7246839e-01 -6.6819915e-02 -5.2114613e-02 6.3634443e-02 -5.0853534e-02 -8.7623190e-02 -2.2579592e-01 -1.1494636e-01 -3.4675685e-01 6.4363544e-02 1.1521943e+00 -5.9725743e-02 -8.4306794e-02 -1.5225080e-01 -1.0994368e-01 -1.0630000e-01 -7.1798402e-02 -4.4758095e-02 -7.5214766e-03 4.6481822e-02 9.2260296e-02 1.3949030e-01 1.0740265e-01 6.1513818e-03 -8.6374076e-02 -9.7999739e-02 -1.2047078e-01 -9.2391513e-02 -1.0716557e-01 -6.8445403e-02 -9.7763985e-02 -6.9060659e-02 -1.0438029e-01 1.4229614e-02 2.6405178e-02 1.1721707e-01 -6.8507184e-02 -5.4130261e-02 -1.9934465e-01 -2.6830715e-02 -4.0821044e-01 8.2577070e-01 8.2303129e-01 -2.0648320e-01 5.4968271e-02 -1.6524117e-01 1.4421660e-02 -9.6034852e-02 3.8782653e-02 -2.6224188e-02 1.0036296e-01 7.3538511e-02 1.9023303e-01 1.4205375e-01 1.4550443e-01 -3.9194371e-02 -2.5163898e-02 -1.0853370e-01 -3.1905501e-02 -9.4278289e-02 -1.3323219e-02 -8.4918005e-02 -1.3127138e-02 -9.0687099e-02 5.7875328e-02 3.3129078e-02 1.7212572e-01 -3.1928773e-02 5.0029911e-03 -1.7647958e-01 3.1328652e-02 -3.8778796e-01 6.4452359e-01 1.0075083e+00 -1.5018573e-01 6.6176015e-02 -1.2737841e-01 7.7036629e-03 -7.3080753e-02 2.7956160e-02 -9.9952679e-03 8.1779875e-02 7.3835607e-02 1.5774342e-01 1.3785969e-01 1.2197093e-01 -2.7917299e-02 -5.4346991e-02 -1.0518483e-01 -7.2376007e-02 -9.1934921e-02 -6.2780980e-02 -8.6964899e-02 -6.6328268e-02 -1.0627252e-01 -5.6251461e-02 -3.8532132e-03 6.7929126e-02 2.6051478e-02 -7.8319755e-02 -1.4365444e-01 -1.3971547e-01 -2.0105614e-01 -2.0209247e-01 1.1507955e+00 2.0759907e-01 -1.5381810e-01 -9.2960737e-02 -1.6973019e-01 -1.0092098e-01 -1.3017411e-01 -6.3689389e-02 -6.6253964e-02 -6.2579411e-03 6.1378868e-03 6.0102103e-02 3.1528895e-02 -4.2707638e-02 -1.6158644e-01 -1.6806789e-01 -1.9697574e-01 -1.6928857e-01 -1.8447043e-01 -1.7042248e-01 -1.8139426e-01 -1.8806114e-01 -1.6260223e-01 -8.2515919e-02 -4.9566326e-02 -7.4390400e-02 -2.0008123e-01 -2.4229343e-01 -2.4443155e-01 -3.3117056e-01 -2.2465266e-01 1.0837222e+00 -8.5800188e-02 -2.1317783e-01 -2.4010287e-01 -2.2586187e-01 -2.3244763e-01 -1.7924188e-01 -1.8405203e-01 -1.2475560e-01 -1.1296043e-01 -4.6745224e-02 -4.7292158e-02 -2.7042858e-02 -1.6211719e-01 -2.1322364e-01 -2.7559948e-01 -2.5322324e-01 -2.8135459e-01 -2.4037296e-01 -2.7390463e-01 -2.4836882e-01 -2.5667303e-01 -1.4665254e-01 -1.3385504e-01 -1.1140960e-01 -2.7790291e-01 -2.7999000e-01 -3.4507295e-01 -3.2321405e-01 -4.2571062e-01 9.8693464e-01 1.2989470e-02 -3.0269887e-01 -2.4708718e-01 -2.8953174e-01 -2.5446953e-01 -2.3611108e-01 -2.0980319e-01 -1.7026946e-01 -1.4039319e-01 -8.2906893e-02 -7.0286648e-02 -4.6649810e-02 -1.6672853e-01 -2.2401240e-01 -2.8815534e-01 -2.5508063e-01 -2.8978176e-01 -2.3445797e-01 -2.7447686e-01 -2.2298799e-01 -2.7661998e-01 -1.3766225e-01 -1.5325335e-01 -3.8325435e-02 -2.3553510e-01 -2.0752533e-01 -3.7306490e-01 -1.8067932e-01 -5.9242744e-01 5.3983000e-01 7.1379204e-01 -3.7465131e-01 -1.2694002e-01 -3.3284067e-01 -1.8078415e-01 -2.7024471e-01 -1.5892689e-01 -2.0593880e-01 -1.0461432e-01 -1.1887459e-01 -3.2478569e-02 -5.6054837e-02 -7.1408673e-02 -2.1748699e-01 -2.3140039e-01 -2.7884070e-01 -2.3507357e-01 -2.5852919e-01 -2.1760063e-01 -2.5078711e-01 -2.1958236e-01 -2.6496279e-01 -1.7600669e-01 -1.4232071e-01 -5.7728918e-02 -1.5022319e-01 -2.1202439e-01 -3.0984381e-01 -2.2440470e-01 -4.2518350e-01 -8.6598318e-02 1.0619561e+00 -1.4152457e-01 -1.8267414e-01 -2.6980883e-01 -2.1430194e-01 -2.4242431e-01 -1.7581703e-01 -1.8615224e-01 -1.2075513e-01 -1.1033595e-01 -3.9881358e-02 -4.1360265e-02 -2.3825418e-02 -1.6132103e-01 -1.9613530e-01 -2.5754094e-01 -2.1442032e-01 -2.4379875e-01 -1.8779191e-01 -2.3008162e-01 -1.8101239e-01 -2.3732671e-01 -1.8671052e-01 -2.4931451e-01 -1.0992278e-01 -1.1786321e-01 4.9534559e-03 -1.7547938e-01 -1.5083219e-01 -3.2017218e-01 -1.3090013e-01 -5.0447722e-01 3.5113806e-01 9.1914442e-01 -2.5904321e-01 -8.2476948e-02 -2.5548158e-01 -1.3092226e-01 -1.9910005e-01 -1.0501403e-01 -1.3111498e-01 -4.7310813e-02 -4.3663872e-02 2.8177775e-02 1.9258111e-02 1.5826208e-02 -1.0863773e-01 -1.4484131e-01 -1.7906535e-01 -1.5750717e-01 -1.5990758e-01 -1.3865897e-01 -1.4707462e-01 -1.3701278e-01 -1.5162107e-01 -1.4378743e-01 -1.6381711e-01 -1.2805071e-01 -4.5069967e-02 4.7200993e-03 2.4934090e-03 -1.2742859e-01 -1.5618407e-01 -1.9172264e-01 -1.8175931e-01 -2.9589209e-01 1.0731763e+00 2.8815710e-01 -1.8455983e-01 -7.3939291e-02 -1.7704554e-01 -8.3638327e-02 -1.2071996e-01 -4.7365013e-02 -5.8239012e-02 2.5034079e-02 2.3644032e-02 9.1435571e-02 6.1148844e-02 1.5379929e-02 -1.0763935e-01 -1.1513430e-01 -1.4635832e-01 -1.1386967e-01 -1.3398815e-01 -9.5470615e-02 -1.3008014e-01 -9.5613560e-02 -1.4845394e-01 -5.1150387e-02 -3.4364661e-02 6.2979718e-02 -5.2751274e-02 -9.2791283e-02 -2.0743195e-01 -9.8591910e-02 -3.5013925e-01 1.4425515e-01 1.1160139e+00 -1.6129905e-01 -3.8081048e-02 -1.8222055e-01 -8.2453698e-02 -1.4157927e-01 -4.3454302e-02 -7.8451422e-02 1.6837048e-02 7.7204762e-03 1.0371031e-01 8.1708475e-02 1.0617738e-01 -5.1801268e-02 -7.3587416e-02 -1.4529431e-01 -9.5985917e-02 -1.4410704e-01 -7.2057472e-02 -1.3515936e-01 -6.4782541e-02 -1.2463383e-01 2.1931544e-02 -7.6840081e-03 1.0344485e-01 -1.0770176e-01 -6.1173478e-02 -2.2396253e-01 -4.1819211e-02 -4.2998976e-01 8.7910645e-01 6.3472318e-01 -2.3414606e-01 1.2949818e-02 -1.7211941e-01 -3.0606346e-02 -1.0283714e-01 -2.0811661e-03 -3.3698482e-02 5.5435460e-02 6.2653216e-02 1.2866976e-01 1.1554234e-01 6.8453171e-02 -5.8490278e-02 -7.9270451e-02 -1.1016503e-01 -9.1370401e-02 -9.5835149e-02 -7.4356498e-02 -8.3610836e-02 -8.1715158e-02 -5.6570101e-02 2.3010123e-02 6.5126340e-02 5.0752854e-02 -7.8579460e-02 -1.1615765e-01 -1.3507007e-01 -1.6775370e-01 -1.9704801e-01 1.1807406e+00 2.2688442e-01 -1.2231875e-01 -4.5286968e-02 -1.1779944e-01 -4.4506761e-02 -6.5786757e-02 2.2498910e-03 -8.5822995e-03 6.9267166e-02 7.7430193e-02 1.4919802e-01 1.0574142e-01 4.4208877e-02 -7.9864661e-02 -6.6963888e-02 -1.1637823e-01 -6.2996709e-02 -9.8295111e-02 -4.7090382e-02 -9.9459084e-02 -4.6270611e-02 -1.1525967e-01 2.0846326e-02 7.1499086e-03 1.2697188e-01 -5.6307695e-02 -3.5937075e-02 -2.0751065e-01 -1.7451667e-02 -3.9606603e-01 4.7457851e-01 1.0490484e+00 -1.5553622e-01 1.6632253e-02 -1.5389854e-01 -3.7966230e-02 -9.8082733e-02 -1.3639272e-02 -4.0412182e-02 4.0464372e-02 4.8021610e-02 1.1165817e-01 1.1708492e-01 8.9883616e-02 -2.6499473e-02 -7.8900275e-02 -9.6395097e-02 -9.1615886e-02 -7.8856760e-02 -7.5137327e-02 -6.4394680e-02 -8.0646386e-02 -7.3269288e-02 -8.4036185e-02 2.5916365e-02 3.8409055e-02 1.0271507e-01 -7.7392856e-02 -6.3537518e-02 -1.8405250e-01 -4.4844860e-02 -3.9259550e-01 9.2834642e-01 6.8629764e-01 -1.9290411e-01 3.2230069e-02 -1.5788885e-01 -5.3993979e-03 -9.1112762e-02 2.4095858e-02 -2.3263864e-02 8.1954992e-02 6.8675399e-02 1.5300330e-01 1.1997579e-01 8.9486961e-02 -4.5349279e-02 -5.7629391e-02 -9.5754574e-02 -6.3062509e-02 -7.8017074e-02 -4.9206531e-02 -6.9356024e-02 -5.7560855e-02 -7.2201409e-02 -8.1116962e-02 -3.2677205e-02 3.5522387e-02 9.1961916e-02 1.8210004e-02 -6.1073329e-02 -1.3618332e-01 -6.6971553e-02 -2.6500152e-01 1.1847643e-01 1.2113530e+00 -5.5864214e-02 -2.9312590e-03 -1.3656361e-01 -4.4738548e-02 -1.0343959e-01 -1.2507800e-02 -4.6340674e-02 4.0856724e-02 3.0714979e-02 1.2279484e-01 1.0449431e-01 1.2870132e-01 -2.6373899e-02 -5.0289136e-02 -1.2488059e-01 -7.8999889e-02 -1.2118308e-01 -5.3876828e-02 -1.1414225e-01 -5.2127038e-02 -1.2171305e-01 -4.8072278e-03 -5.8371302e-03 1.0748199e-01 -2.7870678e-02 -4.5417187e-02 -1.8574135e-01 -4.6043562e-02 -3.2530825e-01 1.9670595e-01 1.1383248e+00 -1.2264302e-01 -1.6038203e-03 -1.2872966e-01 -3.9798865e-02 -8.4605608e-02 -3.1324026e-03 -1.7457403e-02 6.1447975e-02 7.0627418e-02 1.4506979e-01 1.4261045e-01 1.5000643e-01 8.0687737e-03 -1.7993951e-02 -7.7423477e-02 -3.9388081e-02 -7.0787509e-02 -1.4528234e-02 -5.1281288e-02 -3.5754624e-03 -5.5578139e-02 6.9245606e-02 6.4136320e-02 1.7783771e-01 -1.9944182e-03 1.9654885e-02 -1.4035200e-01 4.4145918e-02 -3.4085947e-01 6.6971789e-01 9.9440092e-01 -1.5262181e-01 1.1601993e-01 -1.0269467e-01 5.9102956e-02 -3.8389886e-02 8.6686336e-02 3.1121315e-02 1.4916265e-01 1.2577899e-01 2.2855077e-01 1.9269408e-01 1.9176522e-01 3.4783550e-02 2.8092849e-02 -2.7056468e-02 2.0231079e-02 -1.1381824e-02 3.4614068e-02 5.4517956e-03 3.5975797e-02 3.4065281e-02 1.4988674e-01 1.6274142e-01 1.7601698e-01 1.9622720e-02 5.8915534e-03 -2.9377227e-02 -5.1311936e-02 -8.7518546e-02 1.3445558e+00 3.2017790e-01 1.9059609e-02 3.9264659e-02 1.2355423e-02 4.3542159e-02 6.4917831e-02 9.1388169e-02 1.3204953e-01 1.6842859e-01 2.2137771e-01 2.4117623e-01 2.4231954e-01 1.2531550e-01 5.8549299e-02 1.5349710e-02 2.7689439e-02 2.3935909e-02 4.9537056e-02 3.8693768e-02 6.1881019e-02 3.1522249e-02 8.8252883e-02 1.4657584e-01 2.1440069e-01 1.7530208e-01 6.7520922e-02 5.5487654e-03 1.5265592e-02 -5.1530486e-02 -4.5368685e-02 1.3194385e+00 3.7620629e-01 1.0426365e-02 8.1518606e-02 7.1393152e-03 8.3535901e-02 5.1857775e-02 1.2467093e-01 1.1792481e-01 2.0154146e-01 1.9961197e-01 2.7220976e-01 2.2313587e-01 1.6343803e-01 3.7550531e-02 4.7189563e-02 5.9031900e-03 5.2235584e-02 2.3225081e-02 7.4632646e-02 2.8353766e-02 7.1320577e-02 6.5387794e-03 1.1688332e-01 1.2695797e-01 2.3871853e-01 1.0216352e-01 7.6727987e-02 -5.4865188e-02 7.3663109e-02 -1.8674477e-01 2.6853180e-01 1.3055258e+00 9.8405403e-02 9.3281710e-02 4.1719772e-03 4.7526973e-02 3.6279562e-02 7.7789143e-02 9.4626427e-02 1.3708703e-01 1.7387838e-01 2.0869467e-01 2.3744863e-01 2.0307884e-01 1.0214955e-01 2.5887373e-02 1.2154737e-02 -3.3638220e-03 2.3795261e-02 9.9583523e-03 3.5131579e-02 4.4857590e-03 2.9681412e-02 -1.2374525e-02 1.0188571e-01 1.0196779e-01 2.0040977e-01 2.0214589e-02 3.6721950e-02 -1.1361191e-01 6.0022667e-02 -3.2933381e-01 7.7694443e-01 9.2829671e-01 -1.7168222e-01 1.2657787e-01 -1.0610094e-01 6.6850689e-02 -4.8261658e-02 8.6282070e-02 2.2299624e-02 1.4360951e-01 1.0895351e-01 2.1406775e-01 1.6652660e-01 1.6229781e-01 -6.0462584e-03 4.6233926e-04 -7.0183201e-02 -2.0886418e-02 -5.7208344e-02 -7.5610656e-03 -4.0565254e-02 -1.1653685e-02 -6.0154566e-03 9.4574148e-02 1.1585623e-01 1.1050180e-01 -3.4021289e-02 -5.6406978e-02 -6.9046786e-02 -1.4519223e-01 -1.8895027e-02 1.2695188e+00 6.4551562e-02 1.3140370e-02 -5.3915643e-02 -1.8096743e-03 -3.7960068e-02 4.1282155e-02 9.1457040e-03 1.0331988e-01 8.8545928e-02 1.8744940e-01 1.5831092e-01 1.9857484e-01 2.8319850e-02 1.3177252e-02 -7.9022894e-02 -1.0082895e-02 -7.9993920e-02 8.2350568e-03 -6.7070166e-02 1.6054133e-02 -7.2527097e-02 7.9919907e-02 4.2984367e-02 1.8905505e-01 -2.0202828e-02 2.2854334e-02 -1.7706348e-01 4.2044910e-02 -3.7599312e-01 5.8015824e-01 1.0308328e+00 -1.3446260e-01 5.6192562e-02 -1.0960972e-01 -2.8461476e-03 -5.0834030e-02 1.8980400e-02 1.3714866e-02 7.2275492e-02 1.0287953e-01 1.4746671e-01 1.6548726e-01 1.0522151e-01 -5.7842570e-03 -6.8283600e-02 -7.2088389e-02 -8.9518137e-02 -5.7701403e-02 -7.3987041e-02 -3.9292315e-02 -7.9001510e-02 -4.6133937e-02 -9.0878942e-02 3.5401069e-02 3.1219510e-02 1.2952265e-01 -5.9531804e-02 -3.1662513e-02 -1.9662522e-01 -8.2990624e-03 -4.1253027e-01 7.1027336e-01 8.8169361e-01 -1.9603831e-01 3.4276385e-02 -1.6429724e-01 -1.9520410e-02 -1.0297431e-01 3.7383468e-03 -4.0030150e-02 5.6636302e-02 4.7962232e-02 1.3208039e-01 1.0814164e-01 7.4816194e-02 -6.5976252e-02 -9.2089309e-02 -1.2677562e-01 -1.0740180e-01 -1.1229843e-01 -9.0703671e-02 -1.0093778e-01 -9.4485071e-02 -1.0945922e-01 -1.1459163e-01 -1.1509769e-01 -1.2740458e-01 -7.2736808e-02 -7.1419568e-03 5.7558187e-02 -1.0756538e-02 -8.7261385e-02 -1.6168040e-01 -1.1402133e-01 -2.5265536e-01 -5.9213454e-02 1.1611259e+00 5.8992831e-02 -7.9863978e-02 -1.1042902e-01 -9.9915299e-02 -9.3448693e-02 -6.7512536e-02 -4.5894168e-02 -7.3984314e-03 2.9491736e-02 6.6541327e-02 1.0014611e-01 8.5251146e-02 -7.8045019e-03 -9.6956249e-02 -1.1575889e-01 -1.3131228e-01 -1.0934310e-01 -1.1407352e-01 -8.9741960e-02 -1.1170663e-01 -9.0807748e-02 -1.2638152e-01 -9.7183816e-02 -1.3931806e-01 -1.0390051e-01 -1.4199974e-01 -2.6215188e-02 -2.1694206e-02 8.9330291e-02 -7.0727799e-02 -5.1982986e-02 -2.0621104e-01 -3.2402914e-02 -3.9618780e-01 4.4906456e-01 9.7540000e-01 -1.8706101e-01 2.1532879e-02 -1.6521652e-01 -2.9538667e-02 -1.1030010e-01 -4.9139730e-03 -4.1187518e-02 5.3472564e-02 5.2255650e-02 1.3618968e-01 1.2712386e-01 1.1107193e-01 -2.8332725e-02 -7.2517718e-02 -1.1103490e-01 -9.4160228e-02 -1.0072872e-01 -8.3190769e-02 -8.1715356e-02 -7.9639195e-02 -9.1118420e-02 -1.0191983e-01 -9.0592479e-02 -1.0567301e-01 -5.5950697e-03 1.9855729e-02 8.9471838e-02 -8.1494270e-02 -6.4671711e-02 -1.9007714e-01 -4.2901273e-02 -3.9083499e-01 8.2222296e-01 6.5612392e-01 -2.5063744e-01 3.7703772e-02 -1.8378234e-01 -9.9650655e-03 -1.1048005e-01 1.7529073e-02 -4.2291310e-02 8.4645234e-02 6.5749909e-02 1.7640095e-01 1.3522835e-01 1.1191309e-01 -5.2225885e-02 -5.9718756e-02 -1.1278504e-01 -7.5193697e-02 -1.0228204e-01 -6.1742810e-02 -8.3108850e-02 -6.4453249e-02 -8.2973453e-02 -8.0860014e-02 -3.0272418e-02 4.1076190e-02 8.9028599e-02 1.2982515e-02 -6.0847225e-02 -1.4452028e-01 -5.7087893e-02 -2.9275310e-01 2.5805201e-01 1.1579932e+00 -1.2787998e-01 4.5205608e-02 -1.4817214e-01 1.1824579e-04 -1.0064761e-01 2.9414373e-02 -4.7504829e-02 8.6496817e-02 4.2485946e-02 1.7983653e-01 1.2447882e-01 1.6514849e-01 -4.3526109e-02 -3.6353561e-02 -1.4041783e-01 -6.2515715e-02 -1.3513280e-01 -4.3219337e-02 -1.2323234e-01 -3.3998799e-02 -1.2934853e-01 -4.5078226e-02 -1.2862432e-01 4.4417139e-02 2.1996080e-03 1.3110119e-01 -1.0177870e-01 -2.7340557e-02 -2.1399064e-01 -6.4802541e-03 -4.1456090e-01 9.0461186e-01 6.9330604e-01 -1.7118374e-01 1.4563113e-02 -1.3216480e-01 -2.8609707e-02 -7.1101490e-02 -2.6695603e-03 -3.1858279e-03 5.9396850e-02 1.0045415e-01 1.4857305e-01 1.6389359e-01 7.8232633e-02 -3.3255208e-02 -9.1223811e-02 -9.4946539e-02 -1.1088687e-01 -8.1320420e-02 -9.8444232e-02 -6.7712049e-02 -1.0344425e-01 -7.3064323e-02 -1.1993935e-01 -3.8735566e-03 5.9055650e-03 1.0736182e-01 -5.5981710e-02 -4.5494633e-02 -2.0195265e-01 -2.7522225e-02 -3.9858409e-01 5.0826189e-01 1.0282711e+00 -1.7868354e-01 3.0966954e-02 -1.7549559e-01 -2.3254329e-02 -1.1707920e-01 3.8486073e-04 -5.0388421e-02 6.2048654e-02 4.5789314e-02 1.5052848e-01 1.1856921e-01 1.1688509e-01 -5.1836085e-02 -6.5212858e-02 -1.3088846e-01 -8.9796774e-02 -1.2313917e-01 -7.5739134e-02 -1.1336610e-01 -7.3928441e-02 -1.2334121e-01 -9.0783718e-02 -1.1174459e-01 8.8786260e-03 1.8573735e-02 4.5500531e-02 -1.1276040e-01 -1.1472528e-01 -1.7362014e-01 -1.6091517e-01 -2.5256812e-01 1.1654381e+00 1.7814685e-01 -1.5398862e-01 -1.0691626e-01 -1.4956016e-01 -1.2007314e-01 -1.0443128e-01 -8.3247372e-02 -4.0070154e-02 -1.1730898e-02 5.2035043e-02 6.5895013e-02 8.4596440e-02 -4.9703840e-02 -1.1573942e-01 -1.9278953e-01 -1.6515177e-01 -2.0036839e-01 -1.5162202e-01 -1.9586275e-01 -1.4245683e-01 -1.9934135e-01 -6.3014102e-02 -8.7362109e-02 3.0826771e-02 -1.6970345e-01 -1.3813319e-01 -3.1044687e-01 -1.1521315e-01 -5.3259828e-01 6.3054199e-01 6.7998103e-01 -3.4300525e-01 -6.4023422e-02 -2.7334733e-01 -1.2186348e-01 -2.0698279e-01 -9.9883996e-02 -1.3712901e-01 -3.9457070e-02 -3.7006825e-02 3.5030935e-02 2.0661354e-02 -1.9506769e-02 -1.5202654e-01 -1.8808326e-01 -2.1376289e-01 -2.0909417e-01 -2.0203048e-01 -2.0197092e-01 -1.9748429e-01 -1.9896723e-01 -1.0112669e-01 -7.3502045e-02 -2.0381682e-02 -1.8908152e-01 -1.9537646e-01 -3.1476129e-01 -1.8733583e-01 -5.4009785e-01 7.8260179e-01 5.7055988e-01 -3.3906597e-01 -9.8147750e-02 -3.0138056e-01 -1.3892246e-01 -2.4061072e-01 -1.1673711e-01 -1.7578431e-01 -5.2223520e-02 -7.8735928e-02 2.3409486e-02 -2.5106942e-02 -5.4191492e-02 -2.0929886e-01 -2.0433821e-01 -2.6060248e-01 -2.1370811e-01 -2.4485025e-01 -1.9575468e-01 -2.3849430e-01 -1.6923733e-01 -1.2624477e-01 -4.7851754e-02 -9.8766274e-02 -1.9938593e-01 -2.7521342e-01 -2.6443543e-01 -3.3756953e-01 -3.5626674e-01 1.0598867e+00 1.1708017e-01 -2.7691378e-01 -1.9797356e-01 -2.8006971e-01 -2.0427606e-01 -2.3206001e-01 -1.6616154e-01 -1.6580039e-01 -9.4221215e-02 -8.3957400e-02 -3.0394903e-02 -6.1879455e-02 -1.4789743e-01 -2.4461426e-01 -2.6177860e-01 -2.7490632e-01 -2.6566003e-01 -2.5426836e-01 -2.5696872e-01 -2.5501006e-01 -2.6574115e-01 -1.7866182e-01 -1.5134671e-01 -8.7490590e-02 -2.3927211e-01 -2.5173368e-01 -3.8158804e-01 -2.2922757e-01 -6.1880958e-01 5.4841598e-01 6.8283397e-01 -4.3913978e-01 -1.4846882e-01 -4.0243296e-01 -2.0758115e-01 -3.4345920e-01 -1.8324040e-01 -2.7476581e-01 -1.2484196e-01 -1.8043708e-01 -5.3609577e-02 -1.1887660e-01 -1.0770246e-01 -2.9474501e-01 -2.6304382e-01 -3.5253480e-01 -2.7239278e-01 -3.3485843e-01 -2.6024902e-01 -3.3042835e-01 -2.2964121e-01 -2.2675036e-01 -1.0744734e-01 -1.9105394e-01 -2.5221180e-01 -3.6843700e-01 -3.0972682e-01 -4.2949976e-01 -3.8115488e-01 9.1631762e-01 -3.6587677e-02 -3.7461748e-01 -2.4819696e-01 -3.6974095e-01 -2.4621558e-01 -3.1471865e-01 -1.9664738e-01 -2.4973056e-01 -1.1799417e-01 -1.6301239e-01 -4.5739673e-02 -1.3897510e-01 -1.5216192e-01 -3.2207889e-01 -2.5959622e-01 -3.5200775e-01 -2.5452755e-01 -3.3749703e-01 -2.2946940e-01 -3.2437463e-01 -1.4634762e-01 -2.0140335e-01 -3.5405921e-02 -2.7130828e-01 -1.9911447e-01 -4.1396666e-01 -1.6966926e-01 -6.3736964e-01 5.0954604e-01 6.8020363e-01 -3.8282933e-01 -1.4881619e-01 -3.2179470e-01 -2.0145664e-01 -2.4866122e-01 -1.6744290e-01 -1.7845876e-01 -1.1137849e-01 -8.1592130e-02 -3.4660782e-02 -1.7882267e-02 -8.5197267e-02 -1.7918395e-01 -2.4000816e-01 -2.3197249e-01 -2.4813651e-01 -2.1037420e-01 -2.2928201e-01 -1.9541913e-01 -2.2604248e-01 -1.0385082e-01 -1.0102378e-01 -1.1991422e-02 -1.9822124e-01 -1.8156084e-01 -3.3402815e-01 -1.6123415e-01 -5.6299813e-01 7.1161622e-01 6.4988216e-01 -3.5452881e-01 -9.3417577e-02 -3.0632521e-01 -1.4085572e-01 -2.3690090e-01 -1.0953345e-01 -1.6562112e-01 -4.3500532e-02 -6.9848105e-02 2.9491942e-02 -1.8042723e-02 -3.3316208e-02 -1.9252406e-01 -1.7790897e-01 -2.3715868e-01 -1.8052456e-01 -2.1775239e-01 -1.5931859e-01 -2.0560200e-01 -1.5617612e-01 -2.0405624e-01 -6.0795432e-02 -7.4208119e-02 1.5732490e-02 -1.7889291e-01 -1.4906629e-01 -2.8475679e-01 -1.4077335e-01 -4.8980486e-01 8.8810876e-01 5.5585923e-01 -2.8315751e-01 -7.7977542e-02 -2.5160365e-01 -1.1425718e-01 -1.8940080e-01 -8.4401255e-02 -1.2237994e-01 -1.7795042e-02 -2.9286078e-02 5.6336204e-02 2.3319849e-02 -1.5179026e-02 -1.5288406e-01 -1.4961411e-01 -1.8791439e-01 -1.4815188e-01 -1.6990844e-01 -1.2932361e-01 -1.5689327e-01 -1.2767794e-01 -1.5828656e-01 -1.4224819e-01 -1.3491469e-01 -2.4838816e-02 -4.0416215e-03 5.8825514e-03 -1.2721511e-01 -1.4613160e-01 -1.7554771e-01 -1.8909500e-01 -2.3757956e-01 1.1569376e+00 2.1463773e-01 -1.3432626e-01 -9.1548286e-02 -1.3420903e-01 -8.8392411e-02 -9.1018677e-02 -4.5646113e-02 -2.5956164e-02 2.2745622e-02 6.1461086e-02 1.0012229e-01 9.3148132e-02 -3.2066615e-03 -9.6595634e-02 -1.2328835e-01 -1.3551950e-01 -1.1961083e-01 -1.2227444e-01 -1.0081163e-01 -1.1764308e-01 -1.0515109e-01 -1.3555380e-01 -1.1750580e-01 -1.4682759e-01 -5.3568539e-02 -3.1496822e-02 6.0218284e-02 -8.4568396e-02 -8.5846100e-02 -2.2762188e-01 -6.7729277e-02 -4.1788671e-01 4.4414239e-01 9.2062720e-01 -2.8458875e-01 9.7597803e-03 -2.3178600e-01 -5.4609443e-02 -1.7572905e-01 -2.7163287e-02 -1.1163340e-01 3.1600211e-02 -1.5606628e-02 1.2039496e-01 5.7147854e-02 8.5795084e-02 -1.1470756e-01 -9.3468216e-02 -2.0049677e-01 -1.2335222e-01 -1.9251526e-01 -1.1026682e-01 -1.7876664e-01 -1.0194631e-01 -1.8159043e-01 -1.0950494e-01 -1.7610463e-01 -1.3113936e-02 -4.5260253e-02 5.4491557e-02 -1.5848914e-01 -1.0335054e-01 -2.4810082e-01 -1.1258777e-01 -3.8446503e-01 1.0369064e+00 3.1864871e-01 -2.0219352e-01 -7.5399824e-02 -1.6060497e-01 -9.5972380e-02 -9.5670292e-02 -5.7382043e-02 -2.5272449e-02 1.5137327e-02 7.9018056e-02 1.0887321e-01 1.2815425e-01 7.0355282e-03 -7.1439424e-02 -1.4102493e-01 -1.1880910e-01 -1.5707028e-01 -1.0692468e-01 -1.3853788e-01 -8.8584178e-02 -1.3398636e-01 -9.1369061e-02 -1.4768873e-01 -9.8045991e-02 -1.4759323e-01 6.8808690e-04 -2.0102975e-02 7.7075777e-02 -1.2159281e-01 -7.6283942e-02 -2.2383401e-01 -6.2289307e-02 -4.0955459e-01 9.1370414e-01 5.2433604e-01 -2.0822610e-01 -1.6628290e-02 -1.5975646e-01 -5.2896894e-02 -9.5689529e-02 -2.1745267e-02 -2.6770479e-02 4.4263663e-02 8.0616831e-02 1.3807414e-01 1.4636137e-01 6.5674561e-02 -5.2777541e-02 -1.0051083e-01 -1.0681780e-01 -1.0867340e-01 -8.8669889e-02 -9.1223149e-02 -7.1847754e-02 -8.7280404e-02 -7.1821147e-02 -9.7342818e-02 -8.2461506e-02 -1.0685935e-01 -8.7436095e-02 -9.1507807e-02 2.2426202e-02 3.5398295e-02 8.4487587e-02 -8.2896769e-02 -6.7895405e-02 -1.6167271e-01 -8.0978781e-02 -3.0896868e-01 1.0752378e+00 4.1615514e-01 -1.3222573e-01 -1.0280337e-02 -1.1184506e-01 -2.9127742e-02 -5.0801413e-02 2.1102815e-03 1.2625376e-02 7.3420684e-02 1.1603966e-01 1.6489171e-01 1.7070568e-01 7.3976741e-02 -3.3031158e-02 -8.3419538e-02 -8.3883334e-02 -9.4814113e-02 -6.9257719e-02 -8.0832169e-02 -5.1848887e-02 -8.0293241e-02 -5.7611373e-02 -9.4157999e-02 -6.4086332e-02 -1.0873959e-01 -6.4728102e-02 -1.1597642e-01 7.0355600e-03 8.9182750e-03 1.2579683e-01 -4.1561162e-02 -1.9945140e-02 -1.8146129e-01 -2.1569132e-03 -3.7214623e-01 4.6642765e-01 1.0237735e+00 -1.3428360e-01 4.3911823e-02 -1.2743479e-01 -4.5419255e-03 -7.1232566e-02 2.2029733e-02 -4.2575849e-03 8.3172191e-02 9.8856155e-02 1.8320823e-01 1.8435342e-01 1.6694319e-01 2.2078474e-02 -3.0862724e-02 -6.5418643e-02 -5.7024253e-02 -5.6557563e-02 -4.1624014e-02 -3.4438647e-02 -3.2017975e-02 -3.4249788e-02 -4.2069404e-02 -3.8505570e-02 -5.6946743e-02 -4.8453771e-02 -4.9729145e-02 5.3485700e-02 7.6096155e-02 1.3183171e-01 -2.8853734e-02 -1.5851627e-02 -1.2424261e-01 -1.0234752e-02 -3.0661635e-01 1.0075948e+00 6.0051483e-01 -1.4352588e-01 6.9925404e-02 -1.0191945e-01 3.6632162e-02 -4.3910995e-02 6.6119721e-02 3.3776670e-02 1.4390594e-01 1.4185818e-01 2.4567856e-01 2.1399026e-01 1.6645019e-01 3.2180843e-04 -1.6153027e-02 -6.8640889e-02 -3.4216467e-02 -6.1006370e-02 -2.0915846e-02 -4.3610903e-02 -1.9494529e-02 -4.4900841e-02 -3.0674986e-02 -3.4980165e-02 6.5691041e-02 9.6554819e-02 1.1701956e-01 -3.4629784e-02 -4.3570977e-02 -9.5238509e-02 -8.0660695e-02 -1.7346875e-01 1.1955582e+00 2.6857576e-01 -8.6882168e-02 1.4481149e-02 -6.6167373e-02 1.0144791e-02 -1.3506587e-02 5.7506058e-02 5.9918202e-02 1.4770039e-01 1.7714825e-01 2.5920864e-01 2.3019993e-01 1.4398650e-01 3.9735915e-03 -7.2233835e-03 -4.3696563e-02 -1.4652268e-02 -3.7496500e-02 6.4778071e-03 -2.7412073e-02 2.3386636e-02 -3.2408218e-02 8.2978056e-02 8.5710213e-02 2.0492811e-01 5.4565825e-02 5.2561768e-02 -9.7128987e-02 6.7267431e-02 -2.6986129e-01 5.1829816e-01 1.1486184e+00 -9.0215954e-02 1.2965387e-01 -5.1251196e-02 7.9854193e-02 3.5750403e-03 1.1353164e-01 7.3721053e-02 1.8207071e-01 1.8062319e-01 2.8297171e-01 2.7880944e-01 2.6181952e-01 9.4194274e-02 5.1463764e-02 8.7253774e-04 2.7617904e-02 7.1375223e-03 4.1478352e-02 2.1533040e-02 4.9907186e-02 2.0443890e-02 6.3776141e-02 1.2636020e-01 1.9242286e-01 1.7803543e-01 5.5818964e-02 6.2447080e-03 -1.3520324e-02 -2.7482141e-02 -1.0417407e-01 1.2731713e+00 4.3704930e-01 -3.3401889e-02 9.2803446e-02 -1.9366373e-02 8.4450146e-02 3.7622152e-02 1.2523827e-01 1.0445727e-01 2.0447223e-01 2.1064570e-01 2.9856561e-01 2.4904509e-01 1.7988837e-01 3.4557344e-02 3.7727527e-02 -9.6494076e-03 3.1934335e-02 3.9874235e-03 4.4895595e-02 1.2304651e-02 4.0831249e-02 2.6020015e-03 2.6776998e-02 1.8804685e-02 1.3899914e-01 1.5630712e-01 1.8026198e-01 1.8845979e-02 1.3156315e-02 -4.3943827e-02 -3.0321055e-02 -1.2093186e-01 1.2830828e+00 3.7084294e-01 -1.0221663e-02 3.8819202e-02 -6.2006345e-03 3.4455665e-02 3.8441673e-02 6.9033369e-02 1.0143027e-01 1.4206889e-01 1.9524745e-01 2.2443581e-01 2.3769225e-01 1.1858784e-01 3.2559206e-02 -2.2513846e-02 -6.1479414e-03 -2.4906152e-02 9.2492493e-03 -1.3925227e-02 1.4682235e-02 -2.0839481e-02 2.5822829e-03 -3.3294632e-02 9.0294154e-02 9.7242947e-02 1.7531924e-01 -9.3398672e-03 1.1515772e-02 -1.2631009e-01 2.3807141e-02 -3.2798186e-01 9.8696062e-01 7.6917350e-01 -1.3863763e-01 8.9457766e-02 -1.0470054e-01 4.5154544e-02 -4.9086404e-02 6.7790069e-02 1.5852217e-02 1.3245699e-01 1.1172387e-01 2.1958679e-01 1.7363760e-01 1.4804891e-01 -2.0720624e-02 -1.6320769e-02 -8.1645924e-02 -2.6140402e-02 -7.2258071e-02 -8.5802648e-03 -6.2060568e-02 -4.6266140e-03 -7.5481624e-02 2.9807762e-02 3.1586486e-02 1.5218121e-01 3.1627824e-02 -1.4626618e-03 -1.3278886e-01 -1.6742554e-02 -2.5018398e-01 1.4093860e-01 1.2245047e+00 -1.1509079e-02 -5.9882996e-03 -7.4360454e-02 -4.0203050e-02 -4.4957419e-02 -5.0026607e-03 1.0683398e-02 5.4824481e-02 1.0051270e-01 1.4972634e-01 1.8714413e-01 1.5493246e-01 3.9957975e-02 -4.9033147e-02 -6.8600664e-02 -8.6017261e-02 -6.6611166e-02 -7.2764552e-02 -4.4560322e-02 -6.4809263e-02 -9.1870157e-03 3.9579414e-02 1.1970963e-01 5.8639444e-02 -2.8342167e-02 -1.1423627e-01 -5.6203494e-02 -2.1785793e-01 2.5943638e-02 1.2182315e+00 2.8540113e-02 -2.0739677e-02 -5.8607790e-02 -4.6376891e-02 -3.5966044e-02 -5.0233126e-03 2.0583182e-02 5.8237109e-02 1.0524341e-01 1.4827365e-01 1.8655512e-01 1.6176695e-01 5.5480621e-02 -3.1975699e-02 -5.1069986e-02 -6.4597853e-02 -4.9008801e-02 -4.7190217e-02 -2.7949542e-02 -1.7459172e-02 8.0836386e-02 1.1623277e-01 1.3598868e-01 -1.9913358e-02 -3.8143820e-02 -1.0888999e-01 -6.3699090e-02 -2.7117776e-01 1.1669124e+00 4.4935988e-01 -1.1590380e-01 4.1697952e-02 -9.3571016e-02 1.8625878e-02 -3.8726074e-02 5.3758605e-02 2.7187486e-02 1.2557999e-01 1.2351825e-01 2.0351590e-01 1.5819231e-01 9.3886231e-02 -3.6617961e-02 -3.2987532e-02 -7.7656120e-02 -3.8539552e-02 -6.4549838e-02 -1.9888218e-02 -6.0571215e-02 2.6964663e-02 5.7895673e-02 1.5377146e-01 4.9496684e-02 -1.0379175e-02 -1.2362210e-01 -3.5372327e-02 -2.4570412e-01 8.5645461e-02 1.2949610e+00 6.8515734e-02 3.3772420e-03 -7.4265584e-02 -2.8732933e-02 -4.5589968e-02 8.1752554e-03 4.3962065e-04 6.5639641e-02 7.9767725e-02 1.4654949e-01 1.4647591e-01 1.4536208e-01 3.5799106e-03 -3.9272078e-02 -9.6357338e-02 -6.1307921e-02 -9.2143427e-02 -4.2477609e-02 -8.2840168e-02 -3.3169622e-02 -8.9085140e-02 4.0810040e-02 3.1847274e-02 1.3569020e-01 -4.3294701e-02 -2.9520341e-02 -1.9225032e-01 -3.8155810e-03 -4.0905053e-01 6.3768920e-01 9.9653707e-01 -1.8092618e-01 4.7146492e-02 -1.6359369e-01 -8.3825329e-03 -1.0430552e-01 1.1572378e-02 -4.5704638e-02 6.3324599e-02 4.0589595e-02 1.3038319e-01 1.0004894e-01 8.8025034e-02 -6.6630245e-02 -7.8135907e-02 -1.3124450e-01 -9.1113369e-02 -1.1618050e-01 -7.7224934e-02 -1.0834230e-01 -8.6681841e-02 -1.1753826e-01 -1.0802119e-01 -8.3175688e-02 4.9142565e-03 4.3709962e-02 1.4013490e-02 -1.0060048e-01 -1.5145041e-01 -1.3184143e-01 -2.4706730e-01 -6.1287808e-02 1.2061048e+00 3.3989706e-02 -6.4335275e-02 -1.3811770e-01 -9.1481083e-02 -1.1713315e-01 -5.2888549e-02 -6.9752012e-02 9.2056279e-03 5.7470907e-03 8.6518062e-02 7.3303902e-02 1.0556916e-01 -3.6683057e-02 -7.4730422e-02 -1.4085922e-01 -1.0446129e-01 -1.3268763e-01 -8.3502882e-02 -1.2398288e-01 -7.8507902e-02 -1.2636665e-01 -9.1147406e-02 -1.1023622e-01 8.5481308e-03 1.7211311e-02 6.1643606e-02 -1.0652564e-01 -9.8922443e-02 -1.6588125e-01 -1.3414436e-01 -2.4752436e-01 1.1783294e+00 2.1211939e-01 -1.2213842e-01 -6.5956470e-02 -1.0394335e-01 -6.7349884e-02 -4.9292707e-02 -2.5687901e-02 2.6484787e-02 5.1138798e-02 1.2236998e-01 1.3013408e-01 1.6115213e-01 2.6793820e-02 -2.6998290e-02 -1.0197346e-01 -6.2028674e-02 -1.0578513e-01 -3.7599050e-02 -8.1927297e-02 -1.2638823e-02 -7.8750147e-02 5.9187622e-02 3.5067823e-02 1.7548108e-01 -9.5627316e-03 2.4920785e-02 -1.5907828e-01 4.4321058e-02 -3.5590452e-01 6.6040931e-01 9.5953812e-01 -1.7933964e-01 1.0209915e-01 -1.0335652e-01 3.9950357e-02 -3.7597463e-02 6.5255634e-02 3.1589022e-02 1.2447224e-01 1.2908108e-01 2.0813572e-01 1.9888849e-01 1.6811568e-01 2.8290892e-02 -8.5495932e-03 -3.8458062e-02 -3.2118078e-02 -2.6537799e-02 -1.6825949e-02 -1.3044680e-02 -8.4773545e-03 8.1303812e-02 1.1648529e-01 1.6351858e-01 6.2200294e-03 -1.0503172e-02 -1.1347517e-01 -7.1018717e-03 -3.1960776e-01 1.0367160e+00 6.3200417e-01 -1.6560667e-01 8.7756765e-02 -1.1722023e-01 5.2258074e-02 -5.2980095e-02 7.6076130e-02 1.7421119e-02 1.4601779e-01 1.1516478e-01 2.2404929e-01 1.6603683e-01 1.3320766e-01 -3.4790638e-02 -1.2071513e-02 -8.1799957e-02 -1.9109129e-02 -6.5574373e-02 -6.0803796e-03 -5.7406397e-02 -1.3310687e-02 -4.4559388e-02 8.3466380e-02 7.8817528e-02 1.3201479e-01 -5.8934136e-02 -4.2956162e-02 -1.4040870e-01 -7.9401829e-02 -2.5550466e-01 1.1973403e+00 3.6344838e-01 -1.0237365e-01 -2.6763093e-02 -9.4954308e-02 -4.2556113e-02 -4.2881417e-02 -1.4069582e-02 1.2321412e-02 5.1675896e-02 9.7751978e-02 1.2845826e-01 1.2779862e-01 1.1255017e-02 -7.3642237e-02 -1.2557574e-01 -1.1742181e-01 -1.3648926e-01 -1.0952731e-01 -1.3121486e-01 -1.1026285e-01 -1.4292840e-01 -1.2812974e-01 -1.4507471e-01 -3.0736843e-02 -1.9368219e-02 2.3822071e-02 -1.4970017e-01 -1.4386021e-01 -2.4236893e-01 -1.5960555e-01 -4.0597745e-01 1.0082558e+00 3.9587805e-01 -2.4755506e-01 -9.9659750e-02 -2.3080435e-01 -1.2936080e-01 -1.8239561e-01 -1.0362413e-01 -1.2518532e-01 -4.3128062e-02 -3.6766559e-02 2.3476001e-02 6.4097893e-04 -6.4963091e-02 -1.9578433e-01 -2.1026242e-01 -2.4474540e-01 -2.1837907e-01 -2.3396941e-01 -2.0901248e-01 -2.3018096e-01 -2.1722124e-01 -2.4865094e-01 -2.3583803e-01 -2.6928655e-01 -2.0503832e-01 -1.5819487e-01 -7.9413633e-02 -1.4894321e-01 -2.2692298e-01 -3.1032849e-01 -2.5974894e-01 -4.1365754e-01 -1.7998352e-01 1.0243750e+00 -1.3235324e-01 -2.3236803e-01 -2.9035014e-01 -2.6108360e-01 -2.7270865e-01 -2.2699431e-01 -2.2361226e-01 -1.7175664e-01 -1.4898588e-01 -8.1304918e-02 -7.4561599e-02 -6.7602067e-02 -2.0249318e-01 -2.6758410e-01 -3.2533408e-01 -3.0278759e-01 -3.2975703e-01 -2.9020763e-01 -3.2083102e-01 -2.9090608e-01 -3.3244743e-01 -3.0241719e-01 -3.3269510e-01 -2.1534699e-01 -2.1099286e-01 -1.4206853e-01 -3.2580742e-01 -3.1051397e-01 -4.3224970e-01 -3.1652144e-01 -6.0595577e-01 7.6693538e-01 2.0282447e-01 -4.6480786e-01 -2.6132374e-01 -4.2144619e-01 -3.0084801e-01 -3.6434959e-01 -2.7045357e-01 -2.9653548e-01 -2.0730973e-01 -2.0012400e-01 -1.2598895e-01 -1.4537480e-01 -2.0922498e-01 -3.4218318e-01 -3.6140664e-01 -3.9550255e-01 -3.7338686e-01 -3.7962001e-01 -3.5095298e-01 -3.6541296e-01 -3.4961759e-01 -3.7163378e-01 -3.3235391e-01 -2.6159946e-01 -2.0661911e-01 -2.1467416e-01 -3.3358578e-01 -3.8243941e-01 -3.9263150e-01 -4.2565119e-01 -4.4306748e-01 9.0308404e-01 -4.7835012e-02 -3.8052020e-01 -3.0055508e-01 -3.6643696e-01 -2.9553286e-01 -3.1233982e-01 -2.4711944e-01 -2.3722233e-01 -1.6365611e-01 -1.3305095e-01 -7.4739731e-02 -8.7812197e-02 -1.7443197e-01 -2.7262284e-01 -2.9406118e-01 -3.0747226e-01 -2.9043512e-01 -2.8322642e-01 -2.6665939e-01 -2.6454571e-01 -2.6501948e-01 -2.6771733e-01 -2.5300592e-01 -1.5528165e-01 -1.1278719e-01 -8.0630015e-02 -2.2602782e-01 -2.4381204e-01 -3.0304403e-01 -2.5094042e-01 -4.3803972e-01 9.5189823e-01 2.8694931e-01 -2.9339803e-01 -1.3277096e-01 -2.6208689e-01 -1.4253234e-01 -2.0203742e-01 -1.0548464e-01 -1.2718737e-01 -2.3589403e-02 -2.1071071e-02 6.0138192e-02 3.0258703e-02 -2.8298010e-02 -1.5404964e-01 -1.6717540e-01 -1.9767183e-01 -1.7032427e-01 -1.7811695e-01 -1.5509383e-01 -1.6620994e-01 -1.5884470e-01 -1.7322740e-01 -1.6520664e-01 -8.2721159e-02 -3.5596117e-02 1.8676600e-03 -1.4313118e-01 -1.6776500e-01 -2.6313937e-01 -1.6038445e-01 -4.6277588e-01 8.0551035e-01 6.0005201e-01 -3.1941884e-01 -5.3591137e-02 -2.8412832e-01 -9.2441230e-02 -2.2621876e-01 -6.4969412e-02 -1.6157905e-01 -6.2879143e-03 -7.1672432e-02 7.3940440e-02 -1.5423527e-02 1.1686630e-02 -1.9278384e-01 -1.4393616e-01 -2.5109278e-01 -1.4694386e-01 -2.4374338e-01 -1.3162969e-01 -2.3797676e-01 -1.2719840e-01 -2.4957453e-01 -5.8324355e-02 -1.2692892e-01 4.9684996e-02 -1.8118777e-01 -1.0775931e-01 -3.3031875e-01 -8.5196959e-02 -5.3701708e-01 5.3089987e-01 8.4780935e-01 -2.8245063e-01 -8.8667685e-02 -2.4509984e-01 -1.4603124e-01 -1.7845940e-01 -1.1718551e-01 -1.0616303e-01 -5.3855917e-02 -7.5134771e-03 3.1874843e-02 7.2306239e-02 -1.0214639e-02 -1.0083844e-01 -1.8420593e-01 -1.6752160e-01 -2.0304903e-01 -1.5523979e-01 -1.9190802e-01 -1.3305050e-01 -1.9370700e-01 -6.8486765e-02 -7.8665324e-02 5.0843785e-02 -1.1704022e-01 -9.7679895e-02 -2.7379556e-01 -8.4488843e-02 -4.5432484e-01 3.6001479e-01 9.6059993e-01 -2.6919625e-01 -4.7442531e-02 -2.2122306e-01 -1.0993446e-01 -1.6627602e-01 -7.9761261e-02 -9.5377350e-02 -2.3373586e-02 -2.3220857e-03 5.1408388e-02 7.4291774e-02 2.8708102e-02 -8.1985160e-02 -1.5169774e-01 -1.5489022e-01 -1.7499387e-01 -1.4084620e-01 -1.6011314e-01 -1.2450356e-01 -1.5267178e-01 -4.0669101e-02 -3.0408438e-02 6.0338022e-02 -1.2213617e-01 -1.0349904e-01 -2.5692267e-01 -8.8768512e-02 -4.7896683e-01 7.8776866e-01 6.4658117e-01 -2.9050293e-01 -1.9138592e-02 -2.2456874e-01 -6.6210431e-02 -1.5271666e-01 -4.0819680e-02 -7.7043656e-02 2.3087883e-02 1.8804426e-02 1.0199734e-01 8.0826150e-02 3.4566136e-02 -9.2366077e-02 -1.1609479e-01 -1.3877777e-01 -1.2346515e-01 -1.1858459e-01 -1.1039985e-01 -9.9246693e-02 -1.1133394e-01 -1.8058387e-02 1.4125301e-02 8.3799268e-02 -7.0882463e-02 -8.3000782e-02 -2.1487957e-01 -5.7197897e-02 -4.3650871e-01 7.4196367e-01 8.3714151e-01 -2.4156420e-01 3.9944937e-02 -1.9696458e-01 -4.7712436e-03 -1.2973687e-01 2.2567631e-02 -5.5478313e-02 8.3740750e-02 4.1987192e-02 1.6132054e-01 1.0800371e-01 1.0954668e-01 -6.6348091e-02 -3.9578308e-02 -1.1923399e-01 -4.6218640e-02 -1.0023073e-01 -2.7885248e-02 -8.4756225e-02 -2.7973861e-02 -9.9295728e-02 7.4882362e-03 1.7072736e-02 1.3253342e-01 1.8295719e-02 -2.1498418e-02 -1.4833433e-01 -4.9221107e-02 -2.5688194e-01 4.7070738e-02 1.2256583e+00 6.8864876e-02 -4.4304004e-02 -8.0371597e-02 -7.2671904e-02 -5.7372051e-02 -3.6919397e-02 -1.0482412e-02 2.0547945e-02 6.3145029e-02 1.0511809e-01 1.3488053e-01 1.1831042e-01 4.8185604e-03 -6.5119826e-02 -9.6735690e-02 -9.2102731e-02 -8.7251506e-02 -7.3149016e-02 -7.5619054e-02 -6.1307009e-02 -8.3492303e-02 -6.7876938e-02 -1.0206420e-01 -7.7078047e-02 -1.1090572e-01 -4.8983501e-03 1.5163886e-02 1.0890309e-01 -4.2180756e-02 -3.7675756e-02 -1.7584491e-01 -1.5554561e-02 -3.7732369e-01 5.2697100e-01 9.7783166e-01 -1.8889208e-01 5.4924722e-02 -1.6547257e-01 -6.1309921e-03 -1.1002532e-01 1.8148620e-02 -4.9328730e-02 6.7142428e-02 3.7863812e-02 1.4417091e-01 1.0897308e-01 1.1909177e-01 -5.3047028e-02 -6.5307810e-02 -1.3406580e-01 -8.2980482e-02 -1.1965754e-01 -7.0611880e-02 -1.0785701e-01 -7.4285459e-02 -1.1617415e-01 -8.5279746e-02 -1.3050625e-01 -7.9983973e-02 -3.5585477e-02 4.3618633e-02 3.2818332e-02 -7.2572193e-02 -1.2183783e-01 -1.6159399e-01 -1.3899282e-01 -3.0646180e-01 1.0108735e+00 3.5975103e-01 -2.2519942e-01 -5.4681750e-03 -1.9349480e-01 -2.3034934e-02 -1.3101691e-01 7.7339441e-03 -5.9342308e-02 7.7832323e-02 3.5903936e-02 1.6907210e-01 8.5868246e-02 7.8985736e-02 -1.1563735e-01 -7.3544640e-02 -1.6710524e-01 -7.9418481e-02 -1.5882024e-01 -6.3679438e-02 -1.5121696e-01 -5.9790940e-02 -1.6452252e-01 -7.1686562e-02 -1.7695885e-01 -2.9806916e-05 -5.8371724e-02 1.0494431e-01 -1.2064926e-01 -5.0869213e-02 -2.5674885e-01 -2.7735666e-02 -4.5744358e-01 6.6533974e-01 7.5331700e-01 -2.4148674e-01 -1.6642198e-02 -1.8110831e-01 -6.6919487e-02 -1.2211527e-01 -3.9868083e-02 -4.5440343e-02 1.9137373e-02 5.4547908e-02 1.1528207e-01 1.3312925e-01 6.3164898e-02 -5.8205908e-02 -1.1846768e-01 -1.2672214e-01 -1.3403887e-01 -1.1807838e-01 -1.1862003e-01 -9.5992006e-02 -1.1364243e-01 -9.9883828e-02 -1.2466538e-01 -1.0786296e-01 -1.0140273e-01 2.1105579e-03 3.0548339e-02 5.3957796e-02 -9.5976761e-02 -1.0549329e-01 -1.6401298e-01 -1.3853350e-01 -2.5151507e-01 1.1254722e+00 2.4778021e-01 -1.1932659e-01 -5.0445002e-02 -1.0346151e-01 -4.8937239e-02 -4.6272630e-02 -5.8742601e-03 1.9805543e-02 7.2815868e-02 1.3595994e-01 1.6773626e-01 1.7491732e-01 5.3488902e-02 -3.1353247e-02 -8.8404372e-02 -7.8342196e-02 -9.2649159e-02 -6.0077075e-02 -6.9556023e-02 -3.6430141e-02 -6.4046050e-02 -3.6697372e-02 -7.6544882e-02 -4.1082048e-02 -8.3896519e-02 7.2507341e-03 4.3181582e-02 1.4836967e-01 5.0023571e-02 1.5005545e-02 -9.2258410e-02 7.5532719e-03 -1.8774287e-01 1.3052763e-01 1.2444453e+00 1.2030656e-01 4.9403191e-02 1.1035688e-02 3.4450028e-02 5.2351955e-02 7.9446737e-02 1.1552208e-01 1.4859029e-01 2.1301133e-01 2.5501729e-01 3.0676303e-01 2.7496980e-01 1.7419447e-01 6.5075767e-02 5.8209797e-02 3.2668732e-02 6.4444691e-02 4.8913512e-02 8.9480132e-02 6.4312456e-02 1.0329019e-01 6.5282810e-02 1.0012796e-01 5.9134489e-02 1.0547678e-01 5.4054947e-02 1.6650810e-01 1.8358856e-01 3.0366000e-01 1.7550336e-01 1.6980344e-01 3.3762187e-02 1.7125482e-01 -9.9819712e-02 4.0124693e-01 1.3474743e+00 1.7741463e-01 2.1127645e-01 1.1977236e-01 1.7207406e-01 1.6195419e-01 2.1178720e-01 2.2144182e-01 2.7684797e-01 3.2517525e-01 3.7844719e-01 4.1690707e-01 3.8508003e-01 2.7074430e-01 1.7174643e-01 1.5590096e-01 1.3090063e-01 1.5297774e-01 1.3982350e-01 1.7128341e-01 1.4783829e-01 1.6962269e-01 1.2901075e-01 1.5996152e-01 1.0934860e-01 1.5793724e-01 1.0525857e-01 2.2769044e-01 2.2168793e-01 3.3521163e-01 1.4244823e-01 1.8177193e-01 9.8850344e-03 1.9609627e-01 -2.0016570e-01 8.7730140e-01 9.7761002e-01 -3.5493428e-02 2.3285548e-01 2.6627024e-02 1.7618489e-01 8.6653567e-02 1.9794577e-01 1.5795193e-01 2.5679889e-01 2.6511749e-01 3.5595744e-01 3.4605181e-01 3.1200092e-01 1.5131569e-01 9.6399826e-02 5.0548308e-02 6.2075359e-02 5.2429813e-02 6.8696512e-02 7.1005366e-02 7.2410474e-02 7.3263685e-02 4.9165610e-02 1.1636359e-01 1.6183975e-01 2.3710635e-01 1.5813779e-01 8.8178661e-02 -7.8142406e-03 7.3116904e-02 -1.3308120e-01 2.9328220e-01 1.3088713e+00 4.7188749e-02 1.2651922e-01 1.0740923e-02 8.6905651e-02 4.6179039e-02 1.2359101e-01 1.0943437e-01 1.8044550e-01 2.1239532e-01 2.9182374e-01 3.1477475e-01 2.9377515e-01 1.4189390e-01 6.0667768e-02 1.5619375e-02 2.1316182e-02 1.3899426e-02 2.4672164e-02 3.1275321e-02 3.1805214e-02 4.2603251e-02 1.6923085e-02 9.5716304e-02 1.3959276e-01 2.1714524e-01 1.1060256e-01 6.1034601e-02 -4.7430256e-02 7.1052072e-02 -2.0230084e-01 4.3598209e-01 1.2377961e+00 -3.6608233e-02 1.5970159e-01 -3.5054624e-02 1.1290617e-01 2.0464567e-02 1.4874381e-01 8.9768326e-02 2.0975037e-01 1.9017218e-01 3.1881543e-01 2.9001186e-01 3.0661109e-01 1.0424600e-01 8.6370397e-02 -5.1707141e-03 5.8907926e-02 -4.6693948e-03 7.0057421e-02 1.3618156e-02 7.7995502e-02 7.6507819e-03 7.0198614e-02 -8.6068146e-03 1.2582637e-01 1.1936020e-01 2.4968059e-01 8.7193504e-02 8.8874246e-02 -6.6878174e-02 8.5745131e-02 -2.1381757e-01 3.7250460e-01 1.2421253e+00 3.4738586e-02 1.0723065e-01 -9.9183093e-03 6.4156872e-02 3.3413538e-02 9.1756528e-02 9.1462358e-02 1.5319241e-01 1.7772348e-01 2.5044278e-01 2.6721663e-01 2.4442270e-01 1.0118748e-01 2.3704854e-02 -8.0211686e-03 -3.7008337e-03 -5.5822754e-03 9.6067273e-03 7.2988442e-03 1.3979439e-02 1.7170677e-04 -1.2414028e-03 -1.4920953e-02 -1.6990065e-02 -2.1941522e-02 -2.4311785e-02 3.9286216e-03 8.8646830e-02 1.3357989e-01 1.2469866e-01 7.3974266e-04 -2.1034821e-02 -5.2810028e-02 -6.6485849e-02 -1.3881476e-01 1.2128306e+00 3.6195846e-01 -4.0751790e-02 4.3643091e-02 -2.9228039e-02 4.2193815e-02 1.6391553e-02 8.1445368e-02 8.0954644e-02 1.5788306e-01 1.7725594e-01 2.4674452e-01 2.2671926e-01 1.5855484e-01 2.4308366e-02 8.7138324e-03 -2.2531313e-02 4.0557469e-03 -9.3947148e-03 2.7355728e-02 5.3353707e-03 3.4945111e-02 2.6474613e-03 3.0877846e-02 1.6695192e-03 3.2787029e-02 -1.6058591e-03 3.6063263e-02 -2.4106250e-03 4.3485417e-02 3.7375031e-03 1.3663555e-01 1.3407140e-01 2.2222788e-01 5.2601573e-02 9.0246330e-02 -5.4223167e-02 1.1203212e-01 -2.5977474e-01 9.2285856e-01 8.5033619e-01 -7.5170086e-02 1.7937169e-01 -2.7369396e-02 1.3249780e-01 3.4043704e-02 1.5914888e-01 9.8095928e-02 2.2385012e-01 1.9724293e-01 3.1256444e-01 2.7147937e-01 2.7681987e-01 8.7538472e-02 7.4076866e-02 -8.4518130e-03 4.4529456e-02 -9.6538348e-03 5.4572504e-02 8.2025218e-05 5.2417157e-02 -1.0767753e-02 3.7445302e-02 -3.3215908e-02 2.3179140e-02 -4.2158343e-02 2.3645903e-02 -3.3075762e-02 1.1809922e-01 6.7414715e-02 1.6030772e-01 -3.5410731e-02 4.3311688e-02 -1.3067850e-01 5.9308584e-02 -3.3820643e-01 9.1513536e-01 7.0314032e-01 -1.5075728e-01 9.6162578e-02 -8.3338983e-02 4.6630398e-02 -2.3050513e-02 7.0285651e-02 4.3987159e-02 1.3237948e-01 1.5404804e-01 2.3068526e-01 2.3533567e-01 1.8053591e-01 3.7858084e-02 -2.4149354e-02 -5.1758773e-02 -5.5933106e-02 -5.2531757e-02 -4.4205767e-02 -4.1527421e-02 -4.6579328e-02 -3.6412744e-02 -6.3536561e-02 -4.8947398e-02 -7.7004381e-02 2.8807878e-02 3.8236412e-02 1.0178511e-01 -2.4026918e-02 -2.4053579e-02 -1.5116286e-01 -1.1466523e-02 -3.1373192e-01 3.4306024e-01 1.0970361e+00 -1.3318331e-01 5.2981113e-02 -1.2627246e-01 -1.6236322e-03 -7.6558649e-02 2.5142467e-02 -1.5354166e-02 8.6402840e-02 9.0274626e-02 1.9908766e-01 1.9097393e-01 1.9111274e-01 1.5015646e-02 -3.5798513e-02 -1.0610462e-01 -7.9462140e-02 -1.0722454e-01 -6.9215675e-02 -8.8611910e-02 -6.1748550e-02 -8.8065219e-02 -7.2105592e-02 -9.6611824e-02 -9.0293487e-02 -6.6868792e-02 3.0010704e-02 6.2192096e-02 4.3010704e-02 -8.0829981e-02 -1.1521987e-01 -1.2319859e-01 -1.8208060e-01 -1.3648819e-01 1.1786307e+00 1.3963854e-01 -7.6544965e-02 -7.3707834e-02 -8.6948173e-02 -6.4252227e-02 -4.2254084e-02 -1.7203470e-02 1.8370455e-02 6.8581589e-02 1.2888740e-01 1.7183767e-01 1.7659482e-01 5.3955746e-02 -5.0491831e-02 -9.6946354e-02 -1.0623863e-01 -1.0159677e-01 -9.6346247e-02 -8.2900892e-02 -8.4356702e-02 -8.0416042e-02 -9.2723720e-02 -8.6669179e-02 -1.0639807e-01 -9.0377560e-02 -1.1418953e-01 -1.7498801e-02 1.5983688e-02 9.7765400e-02 -3.8894324e-02 -5.4145061e-02 -1.7784655e-01 -3.6015562e-02 -3.5503855e-01 3.8710372e-01 1.0752222e+00 -1.5706938e-01 3.8125530e-02 -1.6320732e-01 -9.2603586e-03 -1.1297577e-01 1.6439800e-02 -5.6996515e-02 7.2572257e-02 3.9502160e-02 1.7532756e-01 1.3424190e-01 1.7280438e-01 -2.2828977e-02 -3.9555974e-02 -1.3786474e-01 -7.4617808e-02 -1.3701058e-01 -6.1365993e-02 -1.2652292e-01 -6.0767969e-02 -1.4009890e-01 -7.8081525e-02 -1.5654892e-01 -9.5896965e-02 -1.5478916e-01 6.8302672e-03 -2.9538800e-02 6.9122855e-02 -1.5274652e-01 -9.5830670e-02 -2.5299065e-01 -9.2280757e-02 -4.3167379e-01 9.6113028e-01 4.8461845e-01 -2.1813687e-01 -6.8470366e-02 -1.8904192e-01 -1.0340772e-01 -1.3205968e-01 -7.7627739e-02 -6.5545122e-02 -9.0473021e-03 3.8273911e-02 8.7030399e-02 1.0108671e-01 1.3616170e-02 -9.5211376e-02 -1.7082808e-01 -1.6629615e-01 -1.8691667e-01 -1.5457697e-01 -1.7717578e-01 -1.4106441e-01 -1.8088280e-01 -1.4928982e-01 -2.0166374e-01 -1.5701115e-01 -2.1456895e-01 -9.0387818e-02 -9.2451061e-02 2.5844161e-02 -1.4761457e-01 -1.2748490e-01 -2.9390551e-01 -1.1284757e-01 -4.8693166e-01 3.9019363e-01 9.0346013e-01 -2.8207275e-01 -7.9065513e-02 -2.5953365e-01 -1.3824450e-01 -2.1534878e-01 -1.1892622e-01 -1.4648274e-01 -6.3947141e-02 -5.3268481e-02 3.1695557e-02 3.1175777e-02 9.8152839e-03 -1.3542941e-01 -2.0329267e-01 -2.4123055e-01 -2.4140402e-01 -2.4113865e-01 -2.3032622e-01 -2.2828116e-01 -2.3738471e-01 -2.2870586e-01 -2.5278351e-01 -1.6048895e-01 -1.4181825e-01 -6.2549136e-02 -2.1499775e-01 -2.2915121e-01 -3.6542230e-01 -2.0977327e-01 -5.6814678e-01 4.5391974e-01 6.9238365e-01 -4.6579257e-01 -1.4048662e-01 -3.9490229e-01 -2.0153572e-01 -3.3804250e-01 -1.7800065e-01 -2.6817201e-01 -1.1314061e-01 -1.6635694e-01 -1.3255793e-02 -7.9854572e-02 -4.8395009e-02 -2.5975742e-01 -2.4129796e-01 -3.5416928e-01 -2.6529391e-01 -3.4950209e-01 -2.4691616e-01 -3.3799404e-01 -2.4471809e-01 -3.4306716e-01 -1.7236824e-01 -2.2138855e-01 -6.8682653e-02 -2.8392385e-01 -2.2963059e-01 -4.3093292e-01 -2.0362637e-01 -6.2618494e-01 4.0110118e-01 7.1362310e-01 -4.2163391e-01 -1.8452891e-01 -3.6259781e-01 -2.4348842e-01 -2.9940703e-01 -2.1735886e-01 -2.2882567e-01 -1.5397297e-01 -1.2906873e-01 -6.3482149e-02 -4.7841689e-02 -9.4099648e-02 -2.2384584e-01 -2.8543470e-01 -3.0661289e-01 -3.0819985e-01 -2.9179526e-01 -2.9922800e-01 -2.7597307e-01 -3.0377504e-01 -2.8329163e-01 -3.1991683e-01 -2.1857612e-01 -1.9811473e-01 -1.0300617e-01 -2.4839065e-01 -2.6367638e-01 -3.9963195e-01 -2.4947434e-01 -5.7696081e-01 1.9769026e-01 8.6066188e-01 -3.9066631e-01 -1.8786419e-01 -3.8527962e-01 -2.3871722e-01 -3.3213090e-01 -2.1247529e-01 -2.6787189e-01 -1.5365632e-01 -1.7065489e-01 -6.0604729e-02 -8.7733624e-02 -6.8332711e-02 -2.4604117e-01 -2.5893869e-01 -3.3594768e-01 -2.7888695e-01 -3.2283201e-01 -2.5665923e-01 -3.0400143e-01 -2.4625728e-01 -3.0536961e-01 -2.5253998e-01 -3.1827676e-01 -2.5709329e-01 -3.2235271e-01 -1.8835417e-01 -1.9540636e-01 -7.0735325e-02 -2.3798827e-01 -2.2439632e-01 -3.7950399e-01 -2.1551826e-01 -5.4059777e-01 9.7838691e-02 9.1299041e-01 -2.8755756e-01 -1.9316876e-01 -3.2562179e-01 -2.3746506e-01 -2.8217291e-01 -2.1362385e-01 -2.2534729e-01 -1.5288325e-01 -1.3245511e-01 -6.2606830e-02 -4.6592716e-02 -4.9351653e-02 -1.7585131e-01 -2.4381858e-01 -2.8288234e-01 -2.7036063e-01 -2.7287231e-01 -2.5486537e-01 -2.5416891e-01 -2.5227477e-01 -2.5913115e-01 -2.6358174e-01 -2.6614806e-01 -2.7152326e-01 -2.7046044e-01 -2.7320893e-01 -2.7269549e-01 -2.5082341e-01 -1.5676500e-01 -1.2097330e-01 -9.7248139e-02 -2.3850268e-01 -2.3740071e-01 -3.1090222e-01 -2.4695709e-01 -4.6606924e-01 8.7991479e-01 2.8458228e-01 -3.1418080e-01 -1.4933946e-01 -2.8581609e-01 -1.7385027e-01 -2.3030428e-01 -1.3477940e-01 -1.6524617e-01 -6.9615154e-02 -7.0947807e-02 1.5809049e-02 -1.7283305e-02 -4.5312352e-02 -1.9340822e-01 -2.0911464e-01 -2.5591090e-01 -2.1630728e-01 -2.4436194e-01 -1.9967535e-01 -2.3377959e-01 -1.9402463e-01 -2.4450419e-01 -2.1631068e-01 -2.5240855e-01 -2.1963772e-01 -2.6197463e-01 -2.3001911e-01 -2.6703253e-01 -1.8973132e-01 -1.5868030e-01 -6.5504468e-02 -1.3243020e-01 -1.9775106e-01 -2.7412320e-01 -2.2982493e-01 -3.4110651e-01 -2.4056563e-01 9.8313185e-01 -3.1212652e-02 -2.3542611e-01 -1.9309852e-01 -2.4464416e-01 -1.8305153e-01 -2.0143225e-01 -1.3130548e-01 -1.2959107e-01 -4.6979864e-02 -2.7369687e-02 4.8803107e-02 1.4036145e-02 -3.8872197e-02 -1.8467376e-01 -1.8796811e-01 -2.4606430e-01 -1.9941524e-01 -2.3083644e-01 -1.7407989e-01 -2.1490147e-01 -1.6915681e-01 -2.2563709e-01 -1.7689746e-01 -2.3987935e-01 -1.7551599e-01 -2.4221060e-01 -9.5805640e-02 -1.1316188e-01 1.9873316e-02 -1.7282485e-01 -1.3475558e-01 -3.0744717e-01 -1.0850046e-01 -4.8938080e-01 3.6356719e-01 8.6969561e-01 -2.8897906e-01 -6.8712535e-02 -2.4330525e-01 -1.2406437e-01 -1.8265701e-01 -8.8573937e-02 -1.1396983e-01 -2.2240444e-02 -2.5778042e-03 8.2923948e-02 1.0071514e-01 7.5501777e-02 -6.9197297e-02 -1.3350383e-01 -1.7344522e-01 -1.6497364e-01 -1.6914800e-01 -1.5230804e-01 -1.4547906e-01 -1.4291439e-01 -1.3828306e-01 -1.4978914e-01 -1.4596264e-01 -1.5815279e-01 -1.4981363e-01 -1.4154068e-01 -3.7893206e-02 -8.8549549e-03 2.7109012e-02 -1.3156837e-01 -1.1829001e-01 -2.1072077e-01 -1.1488201e-01 -3.7007085e-01 9.8165713e-01 4.1243627e-01 -2.0872185e-01 -3.0374671e-02 -1.7375035e-01 -5.5218119e-02 -1.1075019e-01 -1.9064998e-02 -3.3948883e-02 5.5368775e-02 7.8643899e-02 1.5944008e-01 1.4955233e-01 9.4531565e-02 -5.1071392e-02 -8.3492134e-02 -1.1613664e-01 -9.8427373e-02 -1.0345235e-01 -8.1826551e-02 -8.5558507e-02 -7.6906896e-02 -8.7179874e-02 -8.4243604e-02 -9.3956605e-02 -9.4748964e-02 -9.8486661e-02 -7.8270989e-02 1.4380381e-02 5.4653512e-02 7.1810727e-02 -7.1487190e-02 -7.0200909e-02 -1.4528881e-01 -7.7860841e-02 -3.0372904e-01 1.0498800e+00 4.6882933e-01 -1.5799756e-01 1.1205737e-02 -1.3046595e-01 -7.3771223e-03 -6.9726566e-02 3.0223366e-02 -6.1711385e-04 1.0219223e-01 1.1210757e-01 2.0927903e-01 1.8431959e-01 1.3885803e-01 -1.7047486e-02 -3.6738532e-02 -8.1758429e-02 -5.2911537e-02 -7.1581348e-02 -3.2944673e-02 -5.4445038e-02 -3.2022526e-02 -5.9753844e-02 -4.4521883e-02 -6.5841926e-02 -5.8324974e-02 -6.7008484e-02 -6.1105976e-02 -2.1189075e-02 5.5625503e-02 1.0318044e-01 5.2486966e-02 -4.1345400e-02 -8.8807538e-02 -6.0817540e-02 -1.8607410e-01 -7.4393730e-04 1.2242296e+00 8.7290459e-02 -5.6745936e-03 -6.8239201e-02 -2.4884419e-02 -4.8476102e-02 1.5360923e-02 5.3052842e-05 7.4569704e-02 8.9501550e-02 1.8359175e-01 1.9339460e-01 2.2627166e-01 8.1672777e-02 1.3016459e-02 -6.5126601e-02 -3.5074364e-02 -7.0750155e-02 -2.1812565e-02 -5.3600438e-02 -9.0978713e-03 -5.0957859e-02 -1.2810049e-02 -6.3936037e-02 -1.9114044e-02 -7.3428851e-02 -2.3349089e-02 -6.5928413e-02 6.7772770e-02 5.7737053e-02 1.5647795e-01 -3.7494411e-02 9.4970406e-03 -1.4758273e-01 3.2192061e-02 -3.4974319e-01 8.6812078e-01 7.1254537e-01 -1.7664207e-01 8.7226441e-02 -1.1204396e-01 3.8316020e-02 -4.5756245e-02 7.1615167e-02 2.4181104e-02 1.3641138e-01 1.4080231e-01 2.4619750e-01 2.2635918e-01 2.0637319e-01 3.4734774e-02 4.6845252e-03 -5.6363909e-02 -2.0390605e-02 -5.5049832e-02 -8.3018318e-03 -3.8029527e-02 3.4268108e-03 -3.8280876e-02 1.3858672e-03 -5.0031006e-02 4.2198814e-02 7.0028226e-02 1.7327859e-01 7.1615879e-02 2.5948545e-02 -7.0692558e-02 5.8107596e-03 -1.5187379e-01 9.5759618e-02 1.2666284e+00 1.0729377e-01 2.2539818e-02 8.1535648e-03 3.3228286e-03 3.5318078e-02 4.7036092e-02 9.0818052e-02 1.1783671e-01 1.8550975e-01 2.3672867e-01 3.0264207e-01 2.7687505e-01 1.7573357e-01 5.0369241e-02 3.0463907e-02 -1.4312248e-03 2.5761967e-02 8.4489491e-03 4.6754498e-02 2.2962361e-02 5.6407698e-02 1.7240054e-02 5.2917372e-02 7.9421532e-03 5.1518517e-02 1.1509735e-02 1.4980569e-01 1.4268903e-01 2.4862953e-01 5.1724905e-02 9.5529779e-02 -6.1385896e-02 1.2220032e-01 -2.6480010e-01 8.9481836e-01 9.1602825e-01 -7.3362063e-02 1.7897591e-01 -1.9279610e-02 1.3160535e-01 4.8591100e-02 1.5998584e-01 1.1855699e-01 2.2388615e-01 2.2755253e-01 3.2804818e-01 3.2044093e-01 3.0093948e-01 1.4135886e-01 9.1831563e-02 4.4989214e-02 6.4487080e-02 5.0487917e-02 8.1027380e-02 7.0485818e-02 8.0624623e-02 7.0398200e-02 6.3656044e-02 6.0137772e-02 4.8296039e-02 5.8089759e-02 4.7991038e-02 1.4166705e-01 1.7721869e-01 2.5255548e-01 1.1171952e-01 1.0041722e-01 -2.2453350e-02 1.2201743e-01 -2.0693814e-01 5.8327731e-01 1.1982382e+00 -1.8564262e-02 1.9806034e-01 -1.4307417e-02 1.4648936e-01 4.0821203e-02 1.7084188e-01 1.0539977e-01 2.3159950e-01 2.0597914e-01 3.3978184e-01 3.0404183e-01 3.4119365e-01 1.4640447e-01 1.2524564e-01 3.0703877e-02 8.8301479e-02 3.5336336e-02 1.0401653e-01 5.4419169e-02 1.1338449e-01 5.4021602e-02 1.0994154e-01 4.4507222e-02 1.0026670e-01 4.0109900e-02 9.6707927e-02 3.9614814e-02 9.6376841e-02 5.0214615e-02 1.9858920e-01 1.7300443e-01 2.6707994e-01 6.9575937e-02 1.2708603e-01 -2.2187773e-02 1.3680575e-01 -2.1347245e-01 1.1325586e+00 7.1896390e-01 -1.5102012e-02 1.7248770e-01 1.9218103e-02 1.3198003e-01 8.1882935e-02 1.6151175e-01 1.4641007e-01 2.2703521e-01 2.4885255e-01 3.3230976e-01 3.3254306e-01 2.8340106e-01 1.3526380e-01 7.6398785e-02 3.9303313e-02 5.0621533e-02 4.0373121e-02 6.0370329e-02 4.9938741e-02 6.1764034e-02 4.3316024e-02 4.7750652e-02 2.6305131e-02 3.7468839e-02 1.5443604e-02 7.4297808e-02 1.2906297e-01 2.0057870e-01 1.2848226e-01 4.9384854e-02 -1.6208437e-02 1.7620108e-02 -9.8536678e-02 4.8869798e-02 1.2835510e+00 1.5112358e-01 3.5329228e-02 2.4707962e-02 1.7198055e-02 3.9351124e-02 6.2070468e-02 9.3953289e-02 1.2870003e-01 1.9062650e-01 2.5242449e-01 3.0380210e-01 2.9886963e-01 1.8671169e-01 6.7010444e-02 2.2688430e-02 1.0025437e-02 1.4242417e-02 1.3004526e-02 3.2110892e-02 2.4491732e-02 4.1573542e-02 2.2543252e-02 3.5630682e-02 1.2425465e-02 3.1489819e-02 2.4265451e-02 1.4007323e-01 1.5604959e-01 2.1602999e-01 4.0948560e-02 6.7624091e-02 -5.9823994e-02 8.1942615e-02 -2.4737578e-01 1.0285834e+00 7.4237033e-01 -9.7962852e-02 1.5346848e-01 -4.6840170e-02 1.0960338e-01 1.2801427e-02 1.3917949e-01 8.7492373e-02 2.0709666e-01 2.0034971e-01 3.2221026e-01 2.8826301e-01 2.7024816e-01 8.0263299e-02 5.7437415e-02 -1.0670394e-02 3.1860216e-02 -5.1338080e-03 4.1414280e-02 1.1554621e-02 4.6412404e-02 6.6119989e-03 3.8061203e-02 -1.7011393e-03 2.1158060e-02 3.5665798e-02 1.4267880e-01 1.6601141e-01 1.5282195e-01 1.6064860e-02 1.4319742e-04 -2.5217891e-02 -6.2965393e-02 -3.4930735e-02 1.3077807e+00 2.4803749e-01 2.2205951e-02 1.7604234e-02 1.1206643e-02 1.9636784e-02 5.4514792e-02 6.1521225e-02 1.1774845e-01 1.5005366e-01 2.2992301e-01 2.6074832e-01 2.7823036e-01 1.4305322e-01 4.0824715e-02 -2.3606704e-02 -2.0943791e-02 -3.8638947e-02 -1.4120826e-02 -2.4487943e-02 -3.5572507e-03 -2.4951650e-02 -1.7540987e-02 -3.4552454e-02 -3.1696650e-02 -4.0305377e-02 -4.1106946e-02 1.8512700e-02 8.3029653e-02 1.3683587e-01 4.9876704e-02 -1.4065869e-02 -9.0018438e-02 -1.2253036e-02 -2.2673674e-01 2.0753384e-01 1.2435297e+00 -1.2294424e-02 7.0974772e-02 -8.2964898e-02 3.5815020e-02 -4.6740824e-02 6.8140150e-02 7.1484020e-03 1.2933192e-01 1.0108649e-01 2.3645113e-01 2.0403605e-01 2.6312612e-01 7.0539621e-02 4.3302297e-02 -7.0876874e-02 -4.4179346e-03 -7.5825357e-02 8.8889093e-03 -6.2019715e-02 1.3408034e-02 -6.6802338e-02 5.2726575e-03 -8.1924115e-02 -1.8193973e-03 -9.4140250e-02 -4.7804660e-03 -1.0139613e-01 7.2000705e-02 1.9612637e-02 1.8124228e-01 -4.7627018e-02 3.7199973e-02 -1.7279043e-01 5.9359257e-02 -3.6801071e-01 6.0422309e-01 9.7945482e-01 -1.3475255e-01 5.7236504e-02 -9.4885792e-02 7.8008423e-04 -3.7180510e-02 2.7954031e-02 2.5984199e-02 8.7856443e-02 1.3582997e-01 1.9203871e-01 2.4059378e-01 1.8885900e-01 7.7589804e-02 -3.3218325e-02 -4.2924282e-02 -7.7569976e-02 -4.1727276e-02 -7.0407595e-02 -2.7075451e-02 -6.8581865e-02 -2.8912977e-02 -8.6544665e-02 -3.2163133e-02 -9.6993572e-02 3.7111579e-02 2.6940243e-02 1.5219990e-01 -3.4657130e-02 -1.4293032e-03 -1.6911475e-01 2.5245858e-02 -3.4634192e-01 4.8844117e-01 1.0513768e+00 -1.5736069e-01 5.7273332e-02 -1.1034427e-01 5.9760448e-03 -5.1113481e-02 3.6204512e-02 1.7704553e-02 9.3910115e-02 1.3089437e-01 2.0576400e-01 2.4122314e-01 2.1103102e-01 7.5367188e-02 -1.9761865e-02 -4.3632009e-02 -5.8997853e-02 -4.2325079e-02 -5.0305509e-02 -2.3402917e-02 -4.5761198e-02 -2.0108200e-02 -5.7862332e-02 -2.4717822e-02 -7.0450122e-02 4.8750106e-02 5.4485962e-02 1.6341804e-01 1.4593703e-03 9.5454877e-03 -1.4173471e-01 3.0770335e-02 -3.1264852e-01 4.5255551e-01 1.1030339e+00 -1.1915518e-01 6.9239345e-02 -1.0067396e-01 1.5024333e-02 -4.6252320e-02 3.8312584e-02 1.4367489e-02 9.4088701e-02 1.1675375e-01 2.0294797e-01 2.2220460e-01 2.1078236e-01 6.3261468e-02 -1.7279283e-02 -5.6479083e-02 -5.5635255e-02 -4.9890309e-02 -4.6281418e-02 -2.9674954e-02 -4.4320500e-02 -2.9729590e-02 -5.8199336e-02 -3.6780118e-02 -7.2870288e-02 3.1386132e-02 5.1082778e-02 1.4198212e-01 -6.4484798e-03 -8.5755356e-03 -1.4717310e-01 1.0883759e-02 -3.2066821e-01 4.2456335e-01 1.1299273e+00 -1.1679904e-01 5.7908363e-02 -1.1590017e-01 -5.7290038e-04 -6.7569230e-02 3.4590789e-02 -3.1357827e-03 8.6417555e-02 9.3912327e-02 1.9076516e-01 1.9301645e-01 1.9642618e-01 3.8967726e-02 -2.3098619e-02 -7.5189433e-02 -6.2704454e-02 -6.9235001e-02 -5.2215215e-02 -5.2757418e-02 -5.2415031e-02 -5.5483107e-02 -6.7044716e-02 -6.2944474e-02 -8.1007383e-02 3.8396123e-03 4.0593016e-02 1.1336562e-01 -1.4453511e-02 -4.4227091e-02 -1.6200564e-01 -3.4080090e-02 -3.2548576e-01 2.9768049e-01 1.1583423e+00 -1.1384609e-01 1.2483441e-02 -1.5716109e-01 -4.4760897e-02 -1.2098433e-01 -2.6654920e-02 -6.6430606e-02 2.7261870e-02 2.2333697e-02 1.2153970e-01 1.1436579e-01 1.2736090e-01 -3.1521270e-02 -9.7191294e-02 -1.6154865e-01 -1.4725517e-01 -1.6521949e-01 -1.4665849e-01 -1.5676243e-01 -1.4838563e-01 -1.6713382e-01 -1.7166384e-01 -1.8489343e-01 -1.9270552e-01 -1.1409175e-01 -7.4609139e-02 -1.7113191e-02 -1.5277325e-01 -1.7789958e-01 -2.9437766e-01 -1.5977968e-01 -4.9021091e-01 3.7194620e-01 9.1374967e-01 -3.5259380e-01 -8.4438468e-02 -3.3212823e-01 -1.4859178e-01 -2.8234422e-01 -1.2720216e-01 -2.2060962e-01 -6.6547833e-02 -1.2708893e-01 3.3554601e-02 -3.4653583e-02 1.8995679e-02 -2.0111193e-01 -2.0303671e-01 -3.2117986e-01 -2.3957998e-01 -3.2806455e-01 -2.2525744e-01 -3.1800826e-01 -2.2222772e-01 -3.2598914e-01 -2.3282931e-01 -3.2859245e-01 -1.4200281e-01 -2.0170530e-01 -5.5346871e-02 -2.9965017e-01 -2.1050965e-01 -4.1070199e-01 -1.8010781e-01 -6.0882648e-01 6.7521371e-01 5.2340546e-01 -4.0492173e-01 -1.6076918e-01 -3.3020707e-01 -2.1307859e-01 -2.6014129e-01 -1.8166353e-01 -1.8525797e-01 -1.1466432e-01 -7.0180015e-02 -1.1105286e-02 1.9752964e-02 -4.1426908e-02 -1.6407426e-01 -2.4232963e-01 -2.5357082e-01 -2.6916876e-01 -2.4461312e-01 -2.6233726e-01 -2.2640863e-01 -2.6039060e-01 -2.2533983e-01 -2.7045268e-01 -1.5954636e-01 -1.5011364e-01 -4.2486806e-02 -1.9201489e-01 -1.9570507e-01 -3.3534887e-01 -1.7379868e-01 -4.9431222e-01 2.4267932e-01 9.4291804e-01 -3.0773867e-01 -1.0451307e-01 -2.8240008e-01 -1.5439042e-01 -2.2515136e-01 -1.2247262e-01 -1.5207763e-01 -5.8090075e-02 -4.8737829e-02 4.9965956e-02 5.1866870e-02 6.3397292e-02 -9.4198551e-02 -1.4583129e-01 -2.0324729e-01 -1.7593254e-01 -1.9769823e-01 -1.5494151e-01 -1.7786281e-01 -1.4824285e-01 -1.7573498e-01 -1.6007030e-01 -1.5475361e-01 -4.5114266e-02 -2.9887479e-02 -7.2299397e-04 -1.5887965e-01 -1.5627366e-01 -2.2244333e-01 -1.7662853e-01 -3.3358402e-01 1.0752197e+00 2.9486501e-01 -2.2125207e-01 -8.8366879e-02 -1.9428774e-01 -9.4417082e-02 -1.3660815e-01 -5.3108786e-02 -7.2689807e-02 2.2433691e-02 3.4742871e-02 1.2679041e-01 1.0021455e-01 4.1750154e-02 -1.0858722e-01 -1.2240217e-01 -1.7159116e-01 -1.2665083e-01 -1.6025523e-01 -1.0685928e-01 -1.4780671e-01 -1.0062890e-01 -1.5401472e-01 -1.1147689e-01 -1.5725284e-01 -1.6601123e-02 -2.7939033e-02 6.8978297e-02 -1.1819098e-01 -7.8119880e-02 -2.3810193e-01 -4.8050686e-02 -4.3765924e-01 6.9053355e-01 8.5399919e-01 -2.2825703e-01 1.5377465e-02 -1.8897620e-01 -2.9512696e-02 -1.2525382e-01 -3.1339398e-03 -5.6264105e-02 6.1277075e-02 4.6999780e-02 1.7242577e-01 1.4012193e-01 1.5770762e-01 -3.9586345e-02 -1.8035195e-02 -1.6545627e-01
