7.7401765e-01 1.8893363e-01 4.6307546e-01 4.5139348e-01 5.5927666e-01 4.7896369e-01 3.8850304e-01 2.5844560e-01 2.4697509e-01 2.2289127e-01 2.3596726e-01 2.5074978e-01 2.6832619e-01 2.7227777e-01 2.6277273e-01 2.6538722e-01 3.0201292e-01 4.2689549e-01 4.2867615e-01 4.0947416e-01 2.5773535e-01 2.8158887e-01 1.9672046e-01 3.0939366e-01 8.6169226e-03 1.3816699e+00 1.0437350e+00 1.8242515e-01 4.1803651e-01 2.2161900e-01 3.6498481e-01 3.0321282e-01 4.1224525e-01 3.7095517e-01 4.8726697e-01 4.9949521e-01 6.1335049e-01 6.3304473e-01 6.7729637e-01 5.0825833e-01 4.4324990e-01 3.6364590e-01 3.9234367e-01 3.5085001e-01 4.1122582e-01 3.8646465e-01 4.3112784e-01 3.7579705e-01 4.4750666e-01 4.4613521e-01 5.6677603e-01 5.8148429e-01 5.5623672e-01 4.0955818e-01 4.5069134e-01 3.5527777e-01 4.4982851e-01 2.1745420e-01 1.6310844e+00 1.0650571e+00 3.4988086e-01 5.7763042e-01 3.8960758e-01 5.4299536e-01 4.8719523e-01 5.7960800e-01 5.4694523e-01 6.4621610e-01 6.7233352e-01 7.9788172e-01 8.0093935e-01 8.4508628e-01 6.7313567e-01 6.1299054e-01 5.2741132e-01 5.5756194e-01 5.2523417e-01 5.8960221e-01 5.4746981e-01 6.0194319e-01 5.8802964e-01 7.5042304e-01 7.2671961e-01 8.0947888e-01 6.0204348e-01 6.4922938e-01 5.0685541e-01 7.1437989e-01 3.1285860e-01 1.2394847e+00 1.8483459e+00 5.6802827e-01 7.8902294e-01 6.0080964e-01 7.2592944e-01 6.6830239e-01 7.7623329e-01 7.4630056e-01 8.3985773e-01 8.5170430e-01 9.6623593e-01 1.0014338e+00 1.0704439e+00 9.3945487e-01 8.3398405e-01 7.6647578e-01 7.6723202e-01 7.5682648e-01 7.9924687e-01 7.7964252e-01 7.9815701e-01 7.9139413e-01 8.3890336e-01 8.9698289e-01 9.7218303e-01 9.9941756e-01 9.3307233e-01 8.3554978e-01 8.0645802e-01 8.1042497e-01 7.4435364e-01 8.0812134e-01 2.2241638e+00 1.2008656e+00 8.5170610e-01 9.0141504e-01 8.5460172e-01 9.3628436e-01 8.9679415e-01 9.6845030e-01 9.5447348e-01 1.0345060e+00 1.0913825e+00 1.1923958e+00 1.1984650e+00 1.1906364e+00 1.0192445e+00 9.7044646e-01 9.2120582e-01 9.3636850e-01 9.0280064e-01 9.3976047e-01 9.3647438e-01 9.8552858e-01 9.4182735e-01 9.5918855e-01 9.7128135e-01 1.1062635e+00 1.0941185e+00 1.1413378e+00 9.1956788e-01 9.8450747e-01 8.6633427e-01 1.0160787e+00 6.5525417e-01 1.9428627e+00 1.8924714e+00 8.6699565e-01 1.1163205e+00 9.0406149e-01 1.0676542e+00 9.8601385e-01 1.0956395e+00 1.0437539e+00 1.1521862e+00 1.1724638e+00 1.2773496e+00 1.2940756e+00 1.3319651e+00 1.1807861e+00 1.1128092e+00 1.0384738e+00 1.0391318e+00 1.0143183e+00 1.0415555e+00 1.0504297e+00 1.0574466e+00 1.0378656e+00 1.0316586e+00 1.0343881e+00 1.0717589e+00 1.1803974e+00 1.1701212e+00 1.1725494e+00 1.0084659e+00 1.0302515e+00 9.3260871e-01 1.0516914e+00 7.1283106e-01 1.9391294e+00 1.9177012e+00 8.8621470e-01 1.1364700e+00 9.2456233e-01 1.0891869e+00 9.7628858e-01 1.1077705e+00 1.0273575e+00 1.1581726e+00 1.1411013e+00 1.2715773e+00 1.2437614e+00 1.3273432e+00 1.1620550e+00 1.0869354e+00 9.7262683e-01 1.0232347e+00 9.3938460e-01 1.0289081e+00 9.7667312e-01 1.0248565e+00 9.8578873e-01 9.9564858e-01 9.8818473e-01 1.0761318e+00 1.1026763e+00 1.1721812e+00 1.0687089e+00 9.9663844e-01 9.5578336e-01 9.3591539e-01 9.0268896e-01 8.7060656e-01 2.2287698e+00 1.4509357e+00 8.9911748e-01 1.0557744e+00 8.9634358e-01 1.0585600e+00 9.3848814e-01 1.0649284e+00 1.0097315e+00 1.1308602e+00 1.1186501e+00 1.2431765e+00 1.2315154e+00 1.2578719e+00 1.0641533e+00 1.0217640e+00 9.0382644e-01 9.6396865e-01 8.9944745e-01 9.5879613e-01 9.0412767e-01 9.5548113e-01 9.0155738e-01 9.5896214e-01 9.7392516e-01 1.0733778e+00 1.0519885e+00 1.0315133e+00 8.8922813e-01 8.8597307e-01 8.5947198e-01 8.3162005e-01 8.2996011e-01 2.2622601e+00 1.1597403e+00 8.9286081e-01 9.1838377e-01 8.8683223e-01 9.2059338e-01 9.4444110e-01 9.6041937e-01 1.0028748e+00 1.0453619e+00 1.1307473e+00 1.1640508e+00 1.2611736e+00 1.1703704e+00 1.0784896e+00 9.2785724e-01 9.3939913e-01 8.8196792e-01 9.4185833e-01 8.9167715e-01 9.6034900e-01 8.9220846e-01 9.3924431e-01 9.2394851e-01 1.0680030e+00 1.0323858e+00 1.1286690e+00 9.0075579e-01 9.6398348e-01 8.0729036e-01 9.9177147e-01 6.1156651e-01 1.4673112e+00 2.1250485e+00 8.5193903e-01 1.0055173e+00 8.6116517e-01 9.4507319e-01 9.1058219e-01 9.9116331e-01 9.6778859e-01 1.0403456e+00 1.0567829e+00 1.1478287e+00 1.2118908e+00 1.2420427e+00 1.1417348e+00 9.9377186e-01 9.4795558e-01 9.1248751e-01 9.2218494e-01 9.1035349e-01 9.2680260e-01 9.2213628e-01 9.4503794e-01 9.2007828e-01 9.4231503e-01 9.8093575e-01 1.0969644e+00 1.0825390e+00 1.0586967e+00 9.0052716e-01 9.4296902e-01 8.6134208e-01 9.0359478e-01 7.6028448e-01 2.1884168e+00 1.4180450e+00 8.6988239e-01 9.8943953e-01 8.8743353e-01 9.9119163e-01 9.4289158e-01 9.9194266e-01 9.9232518e-01 1.0611358e+00 1.1256834e+00 1.1849021e+00 1.2249209e+00 1.1876831e+00 1.0760047e+00 9.4692848e-01 9.1434695e-01 9.0221456e-01 8.8753476e-01 9.0838253e-01 9.2323891e-01 8.8523736e-01 9.1765772e-01 8.9213594e-01 9.1497600e-01 8.8404503e-01 8.9143217e-01 9.3635899e-01 1.0627287e+00 1.0168360e+00 1.0572557e+00 8.7260325e-01 9.1983815e-01 8.1853699e-01 9.2535482e-01 6.0806801e-01 1.9964387e+00 1.6267466e+00 8.0372402e-01 1.0249935e+00 8.3668197e-01 9.7273100e-01 9.1084698e-01 9.9925691e-01 9.7412255e-01 1.0610146e+00 1.0678625e+00 1.1834668e+00 1.2119238e+00 1.2434061e+00 1.0995155e+00 9.8651993e-01 9.3646594e-01 9.2267860e-01 9.3748909e-01 9.2412491e-01 9.4192367e-01 9.3306100e-01 9.5506543e-01 9.5133717e-01 9.4323525e-01 9.4172228e-01 9.4800721e-01 9.3100926e-01 9.6803753e-01 9.8031029e-01 1.0962189e+00 1.0870464e+00 1.1310746e+00 9.5358180e-01 1.0082533e+00 8.8093296e-01 1.0373092e+00 6.5856824e-01 1.8459489e+00 1.9348115e+00 8.8061788e-01 1.0996601e+00 9.2590798e-01 1.0611177e+00 9.7895987e-01 1.0780846e+00 1.0011349e+00 1.1530406e+00 1.1272203e+00 1.2645130e+00 1.2655442e+00 1.3012605e+00 1.2186653e+00 1.0843838e+00 1.0012114e+00 1.0092224e+00 9.7025628e-01 1.0048502e+00 9.7877490e-01 1.0176894e+00 9.9789572e-01 1.0015688e+00 9.8065176e-01 9.8558468e-01 9.5712751e-01 9.8088691e-01 9.6316653e-01 9.8507233e-01 1.0403677e+00 1.0963670e+00 1.1400763e+00 9.8701147e-01 9.8923512e-01 8.7052488e-01 9.8973667e-01 7.3781439e-01 1.2239706e+00 2.2524525e+00 9.7126646e-01 1.0328742e+00 9.0051374e-01 9.8681224e-01 9.2357056e-01 1.0229009e+00 9.6970807e-01 1.0688040e+00 1.0721089e+00 1.1773212e+00 1.2148354e+00 1.3028534e+00 1.2006062e+00 1.0773867e+00 9.4608661e-01 9.3840579e-01 9.1041753e-01 9.3201059e-01 8.8732899e-01 9.5817246e-01 8.9942421e-01 9.5300175e-01 8.9203485e-01 9.4099254e-01 9.0565939e-01 1.0310823e+00 1.0315278e+00 1.1010475e+00 9.3385900e-01 9.3551940e-01 8.0797371e-01 9.4924420e-01 6.7056995e-01 1.1887223e+00 2.1799542e+00 9.0333804e-01 9.6174079e-01 8.5187580e-01 9.2454109e-01 9.0387443e-01 9.4512715e-01 9.5142369e-01 9.9907655e-01 1.0296628e+00 1.1319236e+00 1.1929995e+00 1.2404977e+00 1.1540067e+00 9.8793598e-01 9.0848918e-01 8.5988870e-01 8.7365369e-01 8.6009688e-01 8.5655291e-01 8.6689491e-01 8.7079535e-01 8.7372728e-01 8.7260516e-01 8.5567435e-01 8.6280884e-01 9.3684214e-01 9.5631501e-01 1.0568604e+00 9.5108605e-01 8.6055929e-01 7.9706680e-01 8.1606184e-01 7.3966500e-01 8.3998628e-01 2.1394080e+00 1.1300960e+00 8.3105940e-01 8.7236372e-01 8.2993257e-01 8.8896305e-01 8.5793971e-01 9.2779570e-01 9.2001959e-01 9.9124628e-01 1.0501511e+00 1.1293949e+00 1.1841330e+00 1.1447004e+00 9.8758692e-01 8.9473257e-01 8.2970523e-01 8.2425946e-01 8.0660435e-01 8.4167518e-01 8.3888634e-01 8.3836210e-01 8.1843202e-01 8.2612621e-01 8.1273417e-01 8.4197843e-01 8.5835233e-01 9.4599899e-01 9.7706654e-01 9.4557859e-01 7.9349448e-01 8.1120168e-01 7.1936100e-01 8.1138528e-01 5.6841264e-01 1.9424091e+00 1.4534032e+00 7.1277204e-01 8.8322150e-01 7.4926559e-01 8.5380412e-01 7.8273991e-01 8.8363282e-01 8.4656765e-01 9.4890503e-01 9.5751145e-01 1.0719385e+00 1.0798817e+00 1.1334796e+00 9.3864483e-01 8.5754540e-01 7.6522244e-01 7.9269613e-01 7.6220927e-01 7.7640902e-01 7.5952779e-01 7.9142938e-01 7.7810438e-01 7.9249294e-01 7.3643807e-01 7.8361833e-01 7.4409982e-01 7.7597390e-01 7.5130412e-01 8.4178442e-01 8.7517000e-01 9.4274634e-01 8.0458756e-01 7.8325751e-01 6.8112093e-01 7.4837841e-01 6.1586107e-01 7.8978878e-01 2.0979844e+00 9.5498217e-01 7.3978276e-01 7.5500195e-01 7.1234630e-01 7.6821227e-01 7.5416100e-01 7.9389133e-01 7.8647636e-01 8.8494859e-01 9.0757536e-01 1.0211930e+00 1.0318231e+00 1.0179168e+00 8.4454292e-01 7.5165735e-01 6.9693785e-01 6.9351316e-01 6.7823220e-01 6.9018878e-01 6.8309742e-01 6.8669151e-01 6.7755201e-01 6.9514118e-01 6.7282331e-01 6.8072968e-01 7.3565336e-01 8.1766921e-01 8.2779107e-01 7.5390010e-01 6.4728779e-01 6.4454614e-01 6.0867739e-01 5.8972723e-01 5.6332480e-01 1.9693586e+00 9.4712141e-01 6.0666149e-01 6.6966643e-01 6.3266870e-01 6.5824823e-01 6.8334264e-01 7.0068390e-01 7.2888666e-01 7.9432739e-01 8.5106561e-01 9.2843590e-01 9.9149748e-01 9.3167335e-01 8.1605869e-01 6.8142012e-01 6.2818128e-01 6.3000077e-01 6.2474944e-01 6.4250335e-01 6.3510485e-01 6.2312805e-01 6.3682390e-01 6.4038661e-01 6.2234141e-01 6.2459057e-01 6.0232541e-01 6.4067040e-01 7.2211050e-01 7.6187838e-01 7.8916146e-01 6.6896306e-01 6.3214210e-01 5.5622433e-01 6.2234538e-01 4.2321652e-01 8.1697233e-01 1.9044669e+00 6.9237082e-01 6.7413671e-01 5.8631905e-01 6.5500633e-01 6.2142556e-01 6.5762292e-01 6.7469199e-01 7.4070559e-01 7.4892278e-01 8.5373381e-01 8.7752442e-01 9.7376331e-01 8.8209064e-01 7.7851910e-01 6.2400088e-01 6.2393230e-01 5.8753797e-01 6.2499567e-01 5.9412872e-01 6.2731550e-01 6.0805971e-01 6.3256300e-01 5.9800179e-01 6.1313078e-01 5.7075155e-01 6.0940245e-01 6.4077152e-01 7.3579202e-01 7.3479812e-01 7.2544732e-01 5.6244774e-01 6.1273462e-01 4.9122674e-01 6.0689175e-01 3.1351351e-01 1.6351469e+00 1.3123982e+00 4.8388133e-01 6.8577786e-01 5.1101073e-01 6.5397726e-01 5.6338986e-01 6.7136748e-01 6.1391688e-01 7.3568246e-01 7.2909697e-01 8.7109714e-01 8.7819509e-01 9.1299961e-01 7.6236730e-01 6.5283876e-01 5.6846577e-01 5.5372997e-01 5.4060507e-01 5.6822430e-01 5.5918077e-01 5.5491652e-01 5.6053463e-01 5.6910071e-01 5.5026115e-01 5.6997632e-01 5.4469094e-01 5.5197149e-01 5.3783594e-01 5.7040527e-01 6.3574026e-01 6.7393587e-01 7.1509614e-01 6.0842823e-01 5.6961246e-01 4.8740407e-01 5.8415378e-01 3.6686186e-01 7.1248523e-01 1.8682395e+00 6.0822639e-01 6.0889057e-01 5.3467049e-01 5.7002747e-01 5.6317755e-01 6.1951339e-01 5.9867124e-01 6.7948550e-01 6.7852759e-01 8.0226227e-01 8.4174688e-01 9.1612945e-01 8.4904877e-01 7.1637222e-01 5.7769613e-01 5.9389762e-01 5.3375822e-01 5.6471217e-01 5.3563417e-01 5.8287171e-01 5.5858254e-01 5.8583729e-01 5.4606730e-01 5.7723117e-01 5.3300715e-01 5.4466167e-01 5.3134483e-01 5.6330856e-01 5.8430457e-01 6.8444311e-01 6.7511799e-01 6.8215221e-01 5.1035856e-01 5.1948481e-01 4.6614550e-01 5.0000485e-01 3.2925660e-01 1.7875009e+00 9.7866165e-01 4.5532307e-01 5.7282411e-01 4.4697020e-01 5.5071293e-01 4.9898370e-01 5.8106559e-01 5.6989724e-01 6.2833380e-01 6.7897520e-01 7.6272474e-01 8.0323537e-01 8.1489419e-01 6.4780216e-01 5.3133384e-01 4.7778123e-01 4.3319246e-01 4.4197137e-01 4.5298393e-01 4.4480633e-01 4.4285665e-01 4.3020116e-01 4.4691500e-01 4.3695992e-01 4.2655481e-01 4.1894871e-01 3.9099786e-01 4.1809493e-01 4.3096263e-01 5.0121429e-01 5.3233859e-01 5.9082148e-01 4.9433866e-01 4.3609891e-01 3.7018707e-01 3.9182613e-01 2.9510758e-01 4.5439623e-01 1.7649850e+00 6.8151743e-01 4.4790525e-01 4.5432994e-01 4.2120113e-01 4.6822312e-01 4.7275041e-01 5.0686259e-01 5.3362700e-01 5.8932127e-01 6.3054056e-01 7.4285219e-01 7.8490994e-01 7.5809712e-01 6.1308318e-01 4.9809825e-01 4.4045637e-01 4.5146286e-01 4.4100802e-01 4.5130000e-01 4.3664354e-01 4.7685224e-01 4.3361996e-01 4.8866080e-01 4.3311577e-01 4.6575847e-01 5.1993624e-01 6.0303158e-01 6.0600096e-01 5.6716185e-01 4.4502725e-01 4.6099603e-01 3.9788442e-01 4.1451389e-01 2.9345724e-01 1.7219535e+00 9.5238320e-01 3.8264227e-01 5.2459151e-01 4.0678675e-01 5.0955597e-01 4.5758953e-01 5.3198042e-01 5.2800969e-01 6.0099911e-01 6.2805444e-01 7.5389134e-01 7.7731355e-01 7.8369962e-01 6.1136155e-01 4.8355699e-01 4.4514970e-01 4.3218265e-01 4.1171371e-01 4.2064962e-01 4.1379207e-01 4.3183506e-01 4.1660165e-01 4.5184421e-01 5.1317976e-01 5.5333522e-01 5.9306086e-01 4.6183848e-01 4.3438599e-01 3.2773689e-01 4.1785454e-01 1.7821391e-01 7.2905253e-01 1.7387389e+00 3.7813693e-01 4.9861563e-01 3.3555209e-01 4.3192615e-01 3.6844479e-01 4.5630367e-01 4.3958211e-01 5.1676292e-01 5.0334604e-01 6.5073557e-01 6.6291701e-01 7.6433026e-01 6.1686550e-01 5.1227448e-01 3.6821261e-01 3.9178435e-01 3.2758898e-01 3.8781330e-01 3.2255468e-01 3.8513428e-01 3.9030651e-01 5.2633500e-01 5.0332029e-01 5.3007953e-01 3.1670804e-01 3.7793118e-01 2.4330123e-01 3.7812355e-01 1.7075543e-02 1.4212836e+00 1.0967405e+00 2.0221668e-01 4.3954696e-01 2.7313486e-01 3.8023006e-01 3.1787932e-01 4.0403718e-01 3.8836298e-01 4.7116107e-01 5.0776483e-01 6.1185069e-01 6.1574837e-01 6.3935550e-01 5.0000626e-01 3.8147608e-01 3.4225724e-01 3.1757241e-01 3.0434282e-01 3.2031369e-01 3.4305191e-01 3.7650136e-01 4.7560665e-01 4.6601515e-01 5.1532242e-01 3.2148606e-01 3.5925856e-01 2.0810611e-01 3.6668931e-01 -1.1254068e-02 1.1393263e+00 1.3676248e+00 1.9183155e-01 4.6408304e-01 2.3324763e-01 4.1557111e-01 2.8410165e-01 4.3009013e-01 3.5723918e-01 4.9312703e-01 4.7042967e-01 5.9886000e-01 6.1074570e-01 6.7416184e-01 4.8976952e-01 4.1860620e-01 3.2397445e-01 3.5066150e-01 3.3011936e-01 3.5519899e-01 3.3115942e-01 4.0152446e-01 4.5418924e-01 5.4111454e-01 5.1680721e-01 4.3898498e-01 3.5357080e-01 3.1111169e-01 3.5198508e-01 1.7873499e-01 4.3869687e-01 1.7782499e+00 5.1125126e-01 4.1988364e-01 3.2932181e-01 3.7725244e-01 3.4064811e-01 4.2506802e-01 4.0034505e-01 4.7614762e-01 4.6215436e-01 5.9206651e-01 5.9725038e-01 6.9215079e-01 5.6684152e-01 4.5007931e-01 3.4070562e-01 3.4830743e-01 3.2493321e-01 3.4277906e-01 3.0932499e-01 3.7852290e-01 3.0363679e-01 3.6449465e-01 3.4030670e-01 4.8154961e-01 4.5056649e-01 5.3868065e-01 2.9820918e-01 3.7705179e-01 2.0040483e-01 3.9637437e-01 1.3867483e-02 9.4720065e-01 1.5014790e+00 2.5356619e-01 4.2632349e-01 2.7750979e-01 3.6681259e-01 3.1036017e-01 3.8515741e-01 3.8616178e-01 4.5174867e-01 4.5574511e-01 5.6017363e-01 6.1308987e-01 6.3945971e-01 5.1675738e-01 4.0390549e-01 3.1281681e-01 3.1131327e-01 2.8753302e-01 3.3177651e-01 2.9896317e-01 3.0328447e-01 3.0064255e-01 3.3012914e-01 3.0023090e-01 2.9508911e-01 3.0122100e-01 3.7030612e-01 4.2395336e-01 4.5703575e-01 3.5206647e-01 3.0426421e-01 2.5096977e-01 2.7493535e-01 1.4851802e-01 2.9356465e-01 1.6034044e+00 4.8093143e-01 2.7771739e-01 2.9109864e-01 2.6411831e-01 3.2906338e-01 3.0852423e-01 3.4245781e-01 3.6433286e-01 4.2855413e-01 4.8704456e-01 5.6892700e-01 5.8661843e-01 5.6260184e-01 4.1422221e-01 3.2849837e-01 2.5994068e-01 2.7692168e-01 2.3823653e-01 2.7469779e-01 2.8890328e-01 2.6692241e-01 2.6383898e-01 2.8130645e-01 2.5219155e-01 2.8769813e-01 2.8414009e-01 3.6993904e-01 3.9252015e-01 4.5715562e-01 2.5734596e-01 3.0000129e-01 1.5320774e-01 3.0465730e-01 -2.6806086e-02 8.2145781e-01 1.3879533e+00 1.6121104e-01 3.6388183e-01 1.9032842e-01 3.1592042e-01 2.2185246e-01 3.4010292e-01 2.9266958e-01 4.1422820e-01 3.8790519e-01 5.1475344e-01 5.0627240e-01 6.4199798e-01 4.8052701e-01 3.5631839e-01 2.3701508e-01 2.4382719e-01 2.2049702e-01 2.7179217e-01 2.2814982e-01 2.7287651e-01 2.4364253e-01 2.9690610e-01 2.6759398e-01 2.9648257e-01 2.3855996e-01 2.8961570e-01 2.5213725e-01 2.9272398e-01 2.4850880e-01 3.7484343e-01 3.7336378e-01 4.6168096e-01 3.1690627e-01 3.0244140e-01 1.9698340e-01 3.2325939e-01 7.2276293e-02 4.8936975e-01 1.5588240e+00 3.9708773e-01 3.1300849e-01 2.8814211e-01 2.8177068e-01 3.0095058e-01 3.3391726e-01 3.5550141e-01 3.9276372e-01 4.3434301e-01 5.0406963e-01 6.0480989e-01 6.4472382e-01 5.9491996e-01 4.2436067e-01 3.4541664e-01 2.9021753e-01 3.0074555e-01 2.7307907e-01 3.0356347e-01 2.8013184e-01 3.0929423e-01 3.0155968e-01 3.1123329e-01 2.9302495e-01 3.0453751e-01 2.9503855e-01 3.1026454e-01 2.8338332e-01 2.9014611e-01 2.9655012e-01 2.8843582e-01 3.1577018e-01 3.8207652e-01 3.9549176e-01 4.4347819e-01 3.6571318e-01 3.3022943e-01 2.7215394e-01 2.8676062e-01 2.3059440e-01 2.6086539e-01 1.5629184e+00 6.8406044e-01 2.7170477e-01 4.0636989e-01 2.8533454e-01 3.8045871e-01 3.3624431e-01 4.1138571e-01 3.9579725e-01 4.9691066e-01 4.9394776e-01 6.3841694e-01 6.4848930e-01 6.8269756e-01 4.9321143e-01 3.9149632e-01 2.9572384e-01 3.3543561e-01 2.5533312e-01 3.2459963e-01 2.7552687e-01 3.1482224e-01 2.8537708e-01 3.3147745e-01 2.6898832e-01 3.3424634e-01 2.7890753e-01 3.1565705e-01 2.5361689e-01 3.0898818e-01 2.6156123e-01 3.0691538e-01 2.8332939e-01 4.1172305e-01 3.6502976e-01 4.5041935e-01 2.6346181e-01 3.2704204e-01 1.8354168e-01 3.6541343e-01 -1.1011496e-02 8.4703481e-01 1.3942925e+00 2.0677051e-01 4.0150598e-01 2.2885182e-01 3.4131694e-01 2.7956379e-01 3.5856966e-01 3.4932758e-01 4.0820720e-01 4.3613595e-01 5.3611544e-01 6.1739475e-01 6.6046024e-01 5.9016747e-01 4.0491475e-01 3.0478692e-01 2.5024901e-01 2.4886809e-01 2.3654901e-01 2.5092699e-01 2.4788154e-01 2.6084946e-01 2.4556653e-01 2.8245947e-01 2.3898537e-01 2.7974258e-01 2.3830796e-01 2.5628642e-01 2.3702570e-01 2.6010981e-01 2.5901734e-01 3.8324028e-01 3.5902277e-01 3.9685552e-01 2.7293075e-01 3.1023506e-01 1.7363722e-01 3.1333974e-01 4.2730447e-02 5.4350037e-01 1.5575428e+00 3.2372833e-01 3.3589631e-01 2.5409075e-01 3.0196999e-01 3.1017019e-01 3.1922418e-01 3.6893684e-01 3.8069427e-01 4.4209680e-01 5.3695148e-01 6.0064704e-01 6.8122718e-01 6.4383063e-01 4.3660615e-01 3.3928474e-01 2.6391666e-01 2.8178734e-01 2.6416385e-01 2.6083890e-01 2.7310713e-01 2.7057844e-01 2.7854323e-01 2.9167408e-01 2.6496822e-01 3.0294797e-01 2.5279815e-01 2.9605788e-01 2.5469656e-01 2.8877216e-01 2.5378543e-01 2.9849807e-01 3.0979226e-01 4.2762615e-01 3.5818730e-01 4.4167073e-01 2.4464870e-01 3.3102145e-01 1.8437922e-01 3.4203651e-01 7.7181735e-03 1.1982660e+00 1.1717912e+00 1.8132433e-01 4.1248426e-01 2.3824450e-01 3.4700343e-01 2.9026299e-01 3.7706028e-01 3.5709117e-01 4.2099483e-01 4.6732061e-01 5.8362117e-01 6.2998653e-01 7.1020397e-01 5.6494561e-01 3.9449481e-01 3.1418400e-01 2.6846759e-01 2.7749944e-01 2.4406716e-01 2.7301507e-01 2.6060140e-01 2.7182517e-01 2.6371285e-01 2.6172390e-01 2.6824445e-01 2.7789962e-01 2.4948124e-01 2.5474864e-01 2.2008278e-01 2.5643380e-01 2.2776170e-01 2.5858210e-01 2.8062453e-01 3.6601699e-01 3.4524432e-01 3.6129425e-01 2.1229372e-01 2.7955425e-01 1.2616527e-01 2.8963101e-01 -7.9255399e-02 1.1402963e+00 1.1441822e+00 1.0570748e-01 3.3522789e-01 1.5098513e-01 2.8417640e-01 2.0282487e-01 2.9971499e-01 2.5807212e-01 3.5396625e-01 3.4863594e-01 4.9635180e-01 5.4292914e-01 6.2778075e-01 4.8242428e-01 3.2231126e-01 1.9003082e-01 1.9105870e-01 1.5417637e-01 1.5821083e-01 1.6388695e-01 1.5250154e-01 1.5406818e-01 1.7286075e-01 1.5374483e-01 1.5397804e-01 1.7012504e-01 1.3476701e-01 1.4377607e-01 1.3093674e-01 1.3792628e-01 2.2382297e-01 2.5865602e-01 2.5191306e-01 2.3224236e-01 1.1918711e-01 1.3300544e-01 8.4502568e-02 1.1875650e-01 -7.5862952e-02 1.3420256e+00 6.5190762e-01 3.6900401e-02 2.2842109e-01 7.0346582e-02 2.1193130e-01 1.3642665e-01 2.1552739e-01 2.0929507e-01 2.8027573e-01 3.3251107e-01 4.5789891e-01 5.0062112e-01 5.6408235e-01 3.9981378e-01 2.2440344e-01 1.6916524e-01 1.2996519e-01 1.4514180e-01 1.1580205e-01 1.4394245e-01 1.3597737e-01 1.4106399e-01 1.3653769e-01 1.6174251e-01 1.2943386e-01 1.5555953e-01 1.2611011e-01 1.3893421e-01 1.7911982e-01 2.7634186e-01 2.5513134e-01 2.6452479e-01 1.2577840e-01 1.5146875e-01 4.2106363e-02 1.9140695e-01 -1.6650695e-01 1.0480823e+00 1.0507183e+00 2.8587596e-02 2.7504270e-01 5.3891750e-02 2.3850774e-01 1.2051341e-01 2.5087112e-01 2.0110813e-01 2.9188884e-01 3.0927298e-01 4.6511038e-01 4.9432597e-01 5.9448643e-01 4.1728143e-01 2.8398090e-01 1.6383152e-01 1.6118026e-01 1.3253011e-01 1.4996918e-01 1.3478589e-01 1.6430168e-01 1.3116703e-01 1.6794419e-01 1.4157495e-01 1.6447187e-01 1.3954486e-01 1.5239012e-01 1.4911628e-01 2.7707696e-01 2.6128184e-01 2.9863526e-01 1.7513531e-01 1.9658788e-01 8.7570582e-02 1.6754562e-01 -6.6086875e-03 2.6746889e-01 1.4914389e+00 3.3445749e-01 1.8223312e-01 1.7485430e-01 1.6144047e-01 2.0219238e-01 2.1439030e-01 2.3322964e-01 2.3870101e-01 3.2649412e-01 3.9388993e-01 4.9861825e-01 5.7911028e-01 5.2725049e-01 3.5947514e-01 2.1128915e-01 1.9205347e-01 1.5849570e-01 1.5546827e-01 1.6605312e-01 1.5919390e-01 1.7569715e-01 1.7066887e-01 1.7620791e-01 1.7485696e-01 1.6814435e-01 1.6902860e-01 1.7179724e-01 1.7261842e-01 1.7026227e-01 1.9015373e-01 2.3132241e-01 3.2456523e-01 2.8286021e-01 2.9303311e-01 1.6250758e-01 1.8244241e-01 1.3153855e-01 1.9445068e-01 -4.7193588e-02 1.3372506e+00 8.2343662e-01 1.0167365e-01 2.9669370e-01 1.2213436e-01 2.5641869e-01 2.0367016e-01 2.7415082e-01 2.6221142e-01 3.1935367e-01 3.8029603e-01 5.0135834e-01 5.2809975e-01 5.8754612e-01 4.5676230e-01 3.1062371e-01 2.0637416e-01 1.9822871e-01 1.5500929e-01 2.1545305e-01 1.8773759e-01 2.0641238e-01 1.6937792e-01 1.9038658e-01 2.0025162e-01 1.9812195e-01 1.8267169e-01 1.6075363e-01 1.6710634e-01 1.8620335e-01 1.6774157e-01 2.1658899e-01 2.8218807e-01 2.8436515e-01 2.9843551e-01 2.0114413e-01 2.0368575e-01 9.8771785e-02 2.2323685e-01 -8.6182594e-02 6.5157417e-01 1.4254877e+00 1.0233102e-01 2.8728332e-01 1.1667997e-01 2.4590450e-01 1.5924858e-01 2.7245208e-01 2.0559184e-01 3.2423425e-01 3.0067046e-01 4.5993553e-01 4.8759621e-01 6.0740475e-01 5.0004897e-01 3.5882055e-01 2.0561041e-01 2.0196530e-01 1.4003467e-01 1.7891335e-01 1.4018762e-01 1.9700913e-01 1.3096857e-01 1.9219287e-01 1.5187197e-01 2.0926936e-01 1.3672800e-01 2.0190587e-01 2.2393721e-01 3.0635940e-01 2.9055461e-01 2.5937915e-01 1.3003439e-01 1.7412031e-01 8.7458511e-02 1.3215906e-01 -1.8597075e-02 1.4675020e+00 5.5651773e-01 1.0825214e-01 2.0602342e-01 1.3143627e-01 2.2065798e-01 1.8127792e-01 2.3662240e-01 2.4241731e-01 3.1001108e-01 3.8379869e-01 4.7676597e-01 5.4627322e-01 5.5314709e-01 4.0321971e-01 2.3373329e-01 1.7623015e-01 1.4893561e-01 1.6681604e-01 1.3363623e-01 1.6929719e-01 1.4038561e-01 1.7822529e-01 1.4937875e-01 1.8191716e-01 1.3091017e-01 1.7263904e-01 1.8943496e-01 2.9443557e-01 2.9975556e-01 3.0659836e-01 1.3680004e-01 1.6251412e-01 6.9259182e-02 1.6514626e-01 -1.1299976e-01 1.2407300e+00 8.5629614e-01 2.3558852e-02 2.5252544e-01 9.9099067e-02 2.1978761e-01 1.3815993e-01 2.5065778e-01 2.1371854e-01 3.2372732e-01 3.0575448e-01 4.6606909e-01 5.1100156e-01 5.7530818e-01 3.8620102e-01 2.7051540e-01 1.4749109e-01 1.7434271e-01 1.3241638e-01 1.4863618e-01 1.3555891e-01 1.6143549e-01 1.5623791e-01 1.7171003e-01 1.3474362e-01 1.6655499e-01 1.2781829e-01 1.8031495e-01 1.7702883e-01 3.1078663e-01 2.7019708e-01 3.2143167e-01 1.3288486e-01 1.8370225e-01 4.2309104e-02 2.1065139e-01 -1.4624466e-01 1.0986283e+00 1.0234444e+00 1.8903670e-02 2.7802210e-01 7.9390081e-02 2.3339013e-01 1.5640820e-01 2.3831115e-01 2.1574421e-01 3.2058784e-01 3.2114583e-01 4.5042370e-01 4.9327566e-01 5.7814995e-01 4.1521274e-01 3.0412254e-01 1.6797227e-01 1.7770706e-01 1.5012693e-01 1.8052196e-01 1.6903842e-01 1.7248268e-01 1.5424100e-01 1.9789548e-01 1.5619410e-01 1.9487439e-01 1.4665438e-01 1.7863482e-01 1.4653751e-01 1.7085163e-01 2.2693077e-01 2.9489669e-01 3.0222196e-01 2.9248904e-01 1.3982279e-01 1.8600627e-01 9.1946211e-02 1.8807860e-01 -7.6583401e-02 1.3108462e+00 8.1461029e-01 7.0157062e-02 2.6854190e-01 1.1949906e-01 2.3655166e-01 1.8404959e-01 2.5709614e-01 2.5449557e-01 3.2239766e-01 3.4730170e-01 4.8169066e-01 5.0173805e-01 5.7320947e-01 3.9393694e-01 2.9119284e-01 1.8793209e-01 1.8645223e-01 1.3765708e-01 1.9652013e-01 1.5923758e-01 1.8667291e-01 1.5164187e-01 1.9852721e-01 1.4993760e-01 1.8132959e-01 1.3148121e-01 1.7579599e-01 1.1692324e-01 1.7638443e-01 1.4558261e-01 2.9796427e-01 2.4984343e-01 3.0015517e-01 1.1027571e-01 1.8533785e-01 2.7925816e-02 1.9150603e-01 -1.9500890e-01 1.0398926e+00 1.0472175e+00 -2.1134235e-02 2.5524400e-01 3.1743965e-02 2.0236604e-01 9.1088953e-02 2.0596802e-01 1.5395445e-01 2.5525783e-01 2.8583213e-01 3.7652069e-01 4.3764317e-01 5.0598213e-01 3.7429889e-01 2.4008230e-01 9.4089302e-02 1.0615893e-01 8.5544040e-02 7.4131747e-02 6.6986070e-02 9.6897848e-02 7.6785527e-02 1.0537818e-01 7.7066116e-02 8.3932553e-02 8.8060904e-02 1.2925299e-01 2.1929448e-01 2.1937436e-01 2.0827181e-01 7.4414624e-02 8.4419760e-02 -5.3324297e-03 1.0023484e-01 -1.9041330e-01 1.1330029e+00 8.0022576e-01 -7.2593948e-02 2.0782354e-01 -2.4378834e-03 1.7130396e-01 6.1643912e-02 1.8127647e-01 1.3499347e-01 2.6101146e-01 2.3998895e-01 3.9896650e-01 4.2563834e-01 5.0052051e-01 3.1457304e-01 2.0653755e-01 7.1635889e-02 1.1193003e-01 3.6101643e-02 9.8132149e-02 5.2916730e-02 1.0539476e-01 5.7498026e-02 1.0274760e-01 6.9652281e-02 9.1998311e-02 5.0438988e-02 1.0923882e-01 1.3590510e-01 2.3136240e-01 2.2503579e-01 1.6373778e-01 4.3543288e-02 5.8596757e-02 2.5511126e-02 -1.2739892e-02 6.3016502e-03 1.4037626e+00 3.1945281e-01 7.7268941e-02 6.0252596e-02 7.0948443e-02 7.8850433e-02 1.0724280e-01 1.3037004e-01 1.5581225e-01 1.8247895e-01 2.8289735e-01 3.5321099e-01 4.4641952e-01 4.0275812e-01 2.6495182e-01 1.0028026e-01 8.5974071e-02 3.2023167e-02 6.7672085e-02 3.2543185e-02 4.9719980e-02 5.3231859e-02 6.6594830e-02 4.7670702e-02 7.3969318e-02 3.0571247e-02 5.7942027e-02 1.2476568e-01 2.1157060e-01 1.9121888e-01 1.5795122e-01 2.0055048e-02 3.9716428e-02 -5.9139474e-03 -1.3287813e-02 -5.7482343e-02 1.3180222e+00 4.1943465e-01 1.5410808e-02 8.4541172e-02 3.7982801e-02 6.0543381e-02 7.8969023e-02 1.2422295e-01 1.3709875e-01 1.6431991e-01 2.5572635e-01 3.3665365e-01 4.1257926e-01 3.9565362e-01 2.4800094e-01 1.0981436e-01 4.6720299e-02 3.4671452e-02 3.0649475e-02 1.8170923e-02 4.6802467e-02 2.3972263e-02 5.6540505e-02 1.1745219e-02 4.8022633e-02 1.9612116e-02 4.6406998e-02 6.8303498e-03 4.0365249e-02 2.3570762e-02 1.7055266e-01 1.4320717e-01 2.0051641e-01 8.8271537e-03 7.2537651e-02 -9.7738230e-02 1.0512506e-01 -2.9391029e-01 7.1533840e-01 1.1009273e+00 -8.2968898e-02 1.3519422e-01 -4.0831126e-02 8.9409474e-02 -4.3592682e-03 1.0618608e-01 5.8212664e-02 1.5981382e-01 1.5753191e-01 2.8479674e-01 3.1773137e-01 3.7116939e-01 2.8877243e-01 1.5812504e-01 4.3346545e-02 2.2389899e-02 -1.2687269e-02 -7.0806310e-03 7.1533006e-03 2.2551288e-02 5.6689497e-03 2.0788308e-02 -1.0818746e-03 1.6224207e-02 -6.4466294e-03 1.2166706e-02 -1.8574189e-02 5.6191246e-03 -1.8119980e-02 2.0829457e-03 8.6276384e-02 1.2827886e-01 1.4738755e-01 4.5886172e-02 6.9490276e-03 -7.0010065e-02 2.7995646e-02 -2.0529168e-01 2.2901614e-01 1.2946284e+00 4.9284056e-02 6.8506794e-02 -6.1691051e-02 2.4863678e-02 -4.2154043e-02 4.1551419e-02 2.0464339e-02 8.7041706e-02 9.4892308e-02 1.9679432e-01 2.5944401e-01 3.4250482e-01 2.5924596e-01 1.6322438e-01 -1.9895698e-02 -1.2496599e-02 -7.0796547e-02 -5.0472772e-02 -7.0639398e-02 -3.8085380e-02 -5.1109514e-02 -2.8502012e-02 -7.7470284e-02 -1.6868617e-02 -5.4752314e-02 7.1381246e-02 5.7577973e-02 1.4350140e-01 -2.8409999e-02 -1.4946099e-02 -1.5007702e-01 -8.8062668e-03 -2.8912545e-01 2.6698441e-01 1.2295998e+00 -4.5402881e-02 -9.3237841e-03 -7.4302333e-02 -1.7166844e-02 -4.0197952e-02 1.1977797e-02 1.9421749e-02 5.0331777e-02 1.2021891e-01 2.1331639e-01 2.6323223e-01 3.5094365e-01 3.0941320e-01 1.0497764e-01 1.7761540e-03 -6.9366178e-02 -3.6342575e-02 -7.7073210e-02 -4.0726950e-02 -7.1680423e-02 -4.0545377e-02 -5.9518904e-02 -1.4774605e-02 -1.9986650e-02 1.0163217e-01 9.5155660e-02 1.2599331e-01 -7.6372744e-02 2.2117686e-03 -1.7297120e-01 1.7823552e-02 -3.2867339e-01 9.5403819e-01 8.0599595e-01 -2.0349993e-01 9.2258415e-02 -1.1005860e-01 3.3798824e-02 -5.0283006e-02 5.4013023e-02 1.3982168e-02 1.1953611e-01 1.3296120e-01 2.7407547e-01 2.8680919e-01 3.5633015e-01 2.0430785e-01 7.4357725e-02 -9.6805414e-03 -3.1019893e-02 -4.2831136e-02 -1.6285454e-02 -4.7739229e-02 8.2641461e-03 -2.6339240e-02 -8.2832117e-03 -1.3921232e-02 8.1305434e-02 1.0774006e-01 1.6108952e-01 6.2600550e-02 -2.4261733e-02 -4.6630924e-02 -6.4831161e-02 -1.1652565e-01 -5.7726281e-02 1.2714199e+00 3.0948751e-01 -6.8302335e-02 2.7124298e-02 -5.6170501e-02 2.1359254e-02 -2.9965305e-03 4.7036605e-02 4.9748962e-02 1.1714009e-01 1.7677194e-01 2.7324072e-01 3.1057435e-01 3.0873041e-01 1.3541408e-01 2.8291681e-02 -3.4661212e-02 -3.1744127e-02 -5.6396331e-02 -3.0042351e-02 -4.5572520e-02 -2.8761843e-02 -3.5463238e-02 -3.3223556e-02 -6.0802871e-02 -2.1188854e-02 -4.5041871e-02 4.6196454e-02 9.9474166e-02 1.1985204e-01 1.8847046e-02 -4.2966464e-02 -9.7526297e-02 -6.4824634e-02 -1.7429018e-01 -3.7113194e-02 1.2801642e+00 1.9728703e-01 -5.0529457e-02 -2.3843196e-02 -5.9539681e-02 -1.6902610e-02 3.7714362e-03 1.9409257e-02 3.7149587e-02 9.1522288e-02 1.6083493e-01 2.3803934e-01 2.9464593e-01 2.5862603e-01 1.3680119e-01 -1.2188957e-03 -4.0136914e-02 -6.0556350e-02 -6.5054760e-02 -4.4193433e-02 -4.2466486e-02 -4.4301133e-02 -4.9084237e-02 -4.4848601e-02 -4.9741674e-02 -6.6472121e-02 -4.2216618e-02 -7.2758810e-02 -7.4212637e-02 -8.2741397e-02 -6.8468601e-02 -3.6363690e-02 2.2223787e-02 5.4189057e-02 9.4985774e-02 -2.6826384e-02 -2.9205362e-02 -1.1564179e-01 -4.5226459e-02 -2.3488721e-01 1.1992769e-01 1.2655683e+00 5.9542857e-02 -1.2525596e-02 -7.4496884e-02 -3.3498749e-02 -4.6424823e-02 -1.1857638e-02 -1.1887558e-03 3.5130018e-02 7.3290407e-02 1.6230820e-01 2.3286270e-01 3.0270588e-01 2.6700850e-01 1.1691711e-01 2.4049782e-03 -4.3593436e-02 -6.2666835e-02 -7.5160086e-02 -5.5482573e-02 -5.5755169e-02 -4.2499696e-02 -5.0948272e-02 -5.1082406e-02 -5.6594630e-02 -4.7077126e-02 -8.2551204e-02 -5.0818282e-02 -5.0773447e-03 4.8285254e-02 8.9844991e-02 3.8514437e-02 -7.9097284e-02 -7.3913130e-02 -1.3286216e-01 -1.0857349e-01 -2.3991902e-01 1.1717891e+00 3.3868891e-01 -1.4355623e-01 7.4330096e-03 -1.2604744e-01 -6.5894386e-03 -8.0852814e-02 1.6754837e-02 3.0066938e-03 9.3974164e-02 1.1248024e-01 2.1601610e-01 2.9005307e-01 3.0747991e-01 1.4627871e-01 4.4885106e-03 -7.4348069e-02 -7.5026049e-02 -7.7197568e-02 -8.2970032e-02 -8.5357552e-02 -7.3146556e-02 -7.0655444e-02 -5.9936859e-02 -7.2595503e-02 -1.5747282e-02 6.3302071e-02 6.7377367e-02 9.4550438e-02 -8.0971730e-02 -5.1603459e-02 -1.6475890e-01 -1.3567988e-02 -3.6145605e-01 8.5310008e-01 8.3340313e-01 -2.1866344e-01 8.9660905e-02 -1.4746541e-01 3.3569682e-02 -9.7950079e-02 4.8532398e-02 -7.6562633e-03 1.2034397e-01 7.8611358e-02 2.5973578e-01 2.6300281e-01 3.7747825e-01 1.6880113e-01 8.0456043e-02 -7.4844390e-02 -7.9090912e-03 -1.0047417e-01 -2.3653557e-02 -1.1137693e-01 -1.2746259e-02 -8.3007952e-02 4.1617898e-03 -8.3241445e-02 -1.9755965e-02 -2.8339350e-02 1.2680730e-01 5.3377771e-02 1.1970742e-01 -8.7399515e-02 3.2135228e-03 -1.7370257e-01 -9.2614792e-04 -3.6449371e-01 9.2271839e-01 8.0227642e-01 -1.4911409e-01 5.7387818e-02 -9.6891703e-02 -1.1484642e-02 -4.9110996e-02 2.5549023e-02 1.5486366e-02 8.0309291e-02 1.1622759e-01 2.0743390e-01 2.7520749e-01 3.1571944e-01 1.7765924e-01 3.0359959e-02 -3.6503923e-02 -6.6543650e-02 -7.1031843e-02 -7.7496673e-02 -6.5900746e-02 -7.7851306e-02 -3.9972642e-02 -7.6928789e-02 -5.8341010e-02 -1.7083123e-02 8.4590774e-02 7.8714416e-02 5.0379040e-02 -1.0212117e-01 -8.4702793e-02 -1.7026522e-01 -7.2808420e-02 -3.3596459e-01 1.0783547e+00 5.6562440e-01 -1.9633106e-01 1.8687942e-02 -1.5285770e-01 -2.8704776e-02 -1.1325686e-01 -1.2169668e-02 -3.8109762e-02 5.9766710e-02 5.9562875e-02 2.0240171e-01 1.9707039e-01 2.7137683e-01 8.6172435e-02 -1.8440268e-02 -1.5092698e-01 -1.1890479e-01 -1.1811009e-01 -1.1907310e-01 -1.3753463e-01 -1.2042675e-01 -1.3731815e-01 -1.1741209e-01 -1.5241383e-01 -1.0744742e-01 -1.1237306e-01 1.0779262e-02 -3.7080679e-03 -1.5939774e-02 -1.5462880e-01 -1.1513947e-01 -2.4532222e-01 -1.0858799e-01 -4.1920465e-01 9.8336479e-01 5.6150678e-01 -2.5999817e-01 -3.6235332e-02 -2.1884776e-01 -8.4150045e-02 -1.6279790e-01 -6.1119151e-02 -9.4794642e-02 5.6607269e-03 4.3473869e-03 1.4365711e-01 1.7217008e-01 2.2276111e-01 3.3828518e-02 -5.5527742e-02 -1.6645248e-01 -1.3251602e-01 -1.9595520e-01 -1.3451806e-01 -2.0848863e-01 -1.3658448e-01 -1.5728487e-01 -1.3201442e-01 -1.0166449e-01 -5.2729165e-03 -1.9607432e-02 -2.7172782e-02 -1.8090715e-01 -1.6060371e-01 -2.5326966e-01 -1.7385033e-01 -3.3822543e-01 1.1437486e+00 3.2465494e-01 -2.4880589e-01 -8.7646200e-02 -1.9504844e-01 -1.0336229e-01 -1.4429708e-01 -9.3554783e-02 -6.2291324e-02 -4.6022138e-03 2.1042539e-02 1.4936970e-01 1.9429544e-01 2.0538726e-01 2.2946574e-02 -8.5492208e-02 -1.6489400e-01 -1.3359657e-01 -1.8717133e-01 -1.3330102e-01 -1.6139392e-01 -1.4178521e-01 -1.5672983e-01 -1.2492243e-01 -9.4442433e-02 6.8964222e-03 2.8919233e-03 -1.3510048e-05 -1.7158834e-01 -1.1531609e-01 -2.4295977e-01 -9.8155799e-02 -4.2997898e-01 9.2610802e-01 6.3864840e-01 -2.6605504e-01 -1.8941039e-02 -2.1400594e-01 -6.5365833e-02 -1.4677120e-01 -3.2566864e-02 -1.0544581e-01 4.8873291e-02 7.4109776e-03 1.7631395e-01 1.8114049e-01 2.6216262e-01 6.2097159e-02 -1.6263107e-02 -1.3153376e-01 -9.6667711e-02 -1.5693325e-01 -1.0397082e-01 -1.5450378e-01 -7.3293369e-02 -1.4494430e-01 -7.8652534e-02 -1.5321804e-01 -7.3251770e-02 -9.8735664e-02 6.6189338e-02 2.7667078e-03 5.8527457e-02 -1.3690405e-01 -6.3119295e-02 -2.3589188e-01 -2.1549545e-02 -4.3066665e-01 7.4879685e-01 8.6926731e-01 -2.0029607e-01 5.5395298e-03 -1.4590188e-01 -4.3714898e-02 -9.3688657e-02 3.9528476e-03 -5.2036234e-02 6.0276889e-02 6.5383019e-02 1.7296086e-01 2.4113034e-01 2.8008560e-01 1.5441149e-01 4.2295687e-02 -5.8440382e-02 -8.2161924e-02 -7.8807972e-02 -7.4963674e-02 -4.2370437e-02 -6.3267771e-02 -5.4084431e-02 -5.3788266e-02 -5.5130301e-02 -4.8373193e-02 -5.6720484e-02 -6.9689669e-02 -5.4294864e-02 -3.3359440e-02 5.7952667e-02 8.8000801e-02 1.1796509e-01 -4.5476561e-02 -1.0616545e-02 -1.4706667e-01 1.2347915e-02 -3.3161818e-01 5.6347629e-01 1.1160579e+00 -1.1964931e-01 7.3958982e-02 -9.1559078e-02 2.7030656e-02 -5.2794324e-02 5.4723856e-02 -8.2904256e-03 1.0167963e-01 1.0305418e-01 2.2123239e-01 2.3297413e-01 3.3840919e-01 2.3349977e-01 1.1665637e-01 -3.0535242e-02 1.6004039e-03 -4.8623114e-02 -2.4176231e-02 -2.9578546e-02 -2.0166187e-02 -2.3689830e-02 2.5012759e-03 -4.7659698e-02 -4.5324949e-04 -4.0990128e-02 -2.0731488e-02 3.4158764e-02 1.2317268e-01 1.1356715e-01 7.8942414e-02 -3.9586572e-02 -9.3932317e-03 -1.0601895e-01 -2.8817963e-02 -2.4525006e-01 1.1661625e+00 5.6751545e-01 -1.1562732e-01 6.0134572e-02 -5.8026834e-02 1.9278703e-02 -2.7990130e-02 6.3453216e-02 3.5880058e-02 1.2581239e-01 1.4792150e-01 2.4855478e-01 3.0875275e-01 3.2005196e-01 1.6408837e-01 3.1643699e-02 -4.4784962e-02 -4.9982199e-02 -6.0929294e-02 -6.7057883e-02 -5.9305458e-02 -5.8829960e-02 -6.1946671e-02 -5.2470070e-02 -7.7762758e-02 -5.4928756e-02 4.0165338e-02 5.1542804e-02 9.6320695e-02 -4.8521455e-02 -6.4412305e-02 -1.3830858e-01 -7.5772708e-02 -2.9267016e-01 1.8258828e-01 1.2250395e+00 -1.1449572e-01 -5.5917649e-03 -1.5375372e-01 -5.4701918e-02 -1.0914065e-01 -2.6021281e-02 -5.7575423e-02 2.9774475e-02 1.7173719e-02 1.6867717e-01 1.9881169e-01 2.7837524e-01 1.8630680e-01 5.3670882e-02 -1.0527952e-01 -7.2533271e-02 -1.5648916e-01 -1.0005356e-01 -1.3940318e-01 -9.7777001e-02 -1.4019956e-01 -8.8512583e-02 -1.1086583e-01 1.4886871e-02 -9.1932462e-03 8.0187792e-02 -9.6641160e-02 -8.8405683e-02 -2.1029174e-01 -9.0874051e-02 -3.4562447e-01 1.9617569e-01 1.1874867e+00 -8.8583488e-02 -7.6305624e-02 -1.2719267e-01 -1.0285003e-01 -1.0297036e-01 -7.4947538e-02 -5.2881041e-02 -2.2734339e-02 3.8591759e-02 1.0241365e-01 2.0919508e-01 2.3986605e-01 1.8289532e-01 1.2578418e-02 -6.5327059e-02 -1.2409113e-01 -1.1069548e-01 -1.3576204e-01 -1.2349594e-01 -1.0404476e-01 -9.2992045e-02 -1.1835999e-01 -1.0595223e-01 -1.2106646e-01 3.5227813e-02 2.2873216e-02 7.9544040e-02 -6.9575926e-02 -9.9488936e-02 -1.5629773e-01 -7.8801286e-02 -2.8448650e-01 1.1494353e-01 1.1976312e+00 6.8732669e-03 -4.4200370e-02 -9.1757222e-02 -7.8486530e-02 -5.5675574e-02 -2.6597932e-02 -2.1683346e-02 2.5640051e-02 7.7307758e-02 1.4926232e-01 2.3673426e-01 2.7372168e-01 2.3901860e-01 7.9066536e-02 -1.8699068e-02 -6.1049260e-02 -6.7032801e-02 -6.3734281e-02 -4.7768795e-02 -6.4693933e-02 -3.7788407e-02 -6.6268265e-02 -3.8867048e-02 -4.6636632e-02 -5.1503608e-02 -5.2993094e-02 6.8230907e-02 7.6301924e-02 1.2679771e-01 -1.9434446e-02 -3.0532787e-02 -1.4140694e-01 -2.2915316e-03 -2.8147511e-01 2.5275007e-01 1.2071044e+00 2.3443509e-02 2.1308609e-02 -6.6262898e-02 -6.4650647e-03 -4.9979115e-02 1.3813798e-02 2.4722897e-02 5.4597107e-02 1.0910266e-01 1.7938541e-01 2.4104537e-01 3.1879255e-01 2.5537677e-01 9.7366604e-02 7.8820343e-03 -3.4225204e-02 -3.0798412e-02 -4.3021864e-02 -2.7932914e-02 -4.5811521e-02 -1.9542690e-02 -2.6949700e-02 -3.5533446e-02 -2.8490076e-02 -1.6752693e-02 -6.3811287e-02 -2.0515756e-02 -6.4288503e-02 -1.2710464e-02 8.2935228e-03 1.0768868e-01 9.5858142e-02 9.4419009e-02 -3.7957069e-02 -1.7506982e-02 -1.1279043e-01 -1.0183402e-02 -2.4186847e-01 1.1510504e+00 5.5101278e-01 -9.0820580e-02 6.6458177e-02 -6.8232798e-02 4.6756333e-02 -1.1585718e-02 5.7779629e-02 4.5216181e-02 1.2653763e-01 1.5775120e-01 2.5182800e-01 2.8954945e-01 3.2877989e-01 2.1421527e-01 7.1516341e-02 -4.1386220e-03 -1.1629117e-02 -2.4914945e-02 -1.1893740e-02 -1.2643036e-02 -1.4607891e-03 -8.4235727e-04 -2.4755655e-02 -1.4236337e-02 -1.6160708e-02 -3.3844308e-02 -2.5365098e-02 -2.6938086e-02 -5.4993356e-02 -2.2227041e-02 -9.7527095e-03 9.9922691e-02 8.3223718e-02 9.1154091e-02 -5.8837883e-02 -1.1766055e-02 -1.1456408e-01 1.7014412e-02 -3.3420044e-01 8.4448681e-01 9.1762414e-01 -1.5724747e-01 9.6489406e-02 -1.0066187e-01 4.7187329e-02 -3.7424640e-02 5.7553614e-02 6.8336867e-03 1.2424022e-01 1.0424679e-01 2.5580779e-01 2.7316772e-01 3.4269356e-01 2.1283870e-01 9.9538051e-02 -8.8788462e-03 -4.1223494e-02 -3.3739168e-02 -3.4563861e-02 -3.6079729e-02 -2.6596977e-02 -2.9758773e-02 -1.6213248e-02 -5.4487120e-02 -2.4954720e-02 -4.3629866e-02 -1.8516471e-02 5.1846446e-02 7.9832515e-02 1.1115044e-01 -2.1549251e-02 -1.7840292e-02 -1.2767849e-01 3.1590099e-03 -2.9224590e-01 3.7551606e-01 1.1648889e+00 -1.3772793e-01 6.6457203e-02 -8.9264769e-02 -4.7646157e-03 -6.1984499e-02 1.7326348e-02 9.1903215e-03 8.8113714e-02 7.9877761e-02 2.1125961e-01 2.5492376e-01 3.6011292e-01 2.4144240e-01 9.1479983e-02 -3.4170235e-02 -6.2333067e-02 -8.3051947e-02 -6.5786623e-02 -8.7875304e-02 -8.6354315e-02 -6.9450141e-02 -4.6581105e-02 5.1177111e-02 6.9977527e-02 9.8135875e-02 -3.6151353e-02 -6.9019071e-02 -1.6313137e-01 -3.5821220e-02 -3.4899284e-01 4.6850415e-01 1.1738671e+00 -2.1266424e-01 5.6718025e-02 -1.7588784e-01 -5.6524976e-03 -1.3301939e-01 3.9244397e-02 -7.7527943e-02 8.2363493e-02 3.3915382e-02 2.0734302e-01 2.0461869e-01 3.3421594e-01 1.4900187e-01 7.1507802e-02 -1.0444632e-01 -7.2706064e-02 -1.3046505e-01 -8.2146469e-02 -1.4648864e-01 -7.0410617e-02 -1.0577829e-01 5.2004823e-02 1.0853381e-02 1.2719373e-01 -1.1980940e-01 -3.3406676e-02 -2.4180542e-01 -3.1204172e-02 -4.1697269e-01 4.3024648e-01 1.1196346e+00 -1.7912532e-01 -3.4808269e-02 -1.6726509e-01 -8.5212577e-02 -1.0042649e-01 -8.7963563e-02 -5.0916341e-02 -2.6683924e-03 2.5464236e-02 1.0150948e-01 2.0481590e-01 2.3434783e-01 1.4178474e-01 -2.9404795e-02 -8.8061179e-02 -1.4635821e-01 -1.1376552e-01 -1.5592809e-01 -1.1405611e-01 -1.3804989e-01 -1.0361274e-01 -1.1783674e-01 5.3017937e-02 -7.8696265e-03 5.5402974e-02 -1.5765438e-01 -1.0585622e-01 -2.3991988e-01 -7.6738309e-02 -4.6461018e-01 7.6982571e-01 8.5352309e-01 -2.6920728e-01 -1.1699537e-02 -2.0862732e-01 -7.3224332e-02 -1.5498046e-01 -4.3611163e-02 -9.1624874e-02 2.7135298e-02 -9.9801079e-04 1.3349332e-01 1.6230041e-01 2.2285776e-01 7.3405820e-02 -1.0534131e-02 -1.4578379e-01 -1.0602436e-01 -1.5582532e-01 -1.1578887e-01 -1.2542150e-01 -9.7922752e-02 -1.2477873e-01 -8.7187110e-02 -1.2007592e-01 2.1030952e-02 2.1010781e-02 7.1376460e-02 -1.0025318e-01 -8.7036996e-02 -2.1014382e-01 -7.6507311e-02 -3.5322585e-01 2.4195947e-01 1.2071360e+00 -9.0351714e-02 -3.3100183e-02 -1.3593417e-01 -7.1029199e-02 -1.0219470e-01 -3.0329659e-02 -5.4927839e-02 1.5530558e-02 1.9623145e-02 1.3366271e-01 1.6461341e-01 2.4813183e-01 1.4951753e-01 1.7982225e-02 -9.0320981e-02 -8.4871750e-02 -1.2950826e-01 -9.1840763e-02 -1.3440853e-01 -8.4916539e-02 -1.1677755e-01 -8.3047813e-02 -1.3210889e-01 -1.0369995e-01 -1.4638337e-01 -8.6199629e-02 -9.5179123e-02 2.9022283e-02 1.1816810e-02 3.0116115e-02 -1.2657096e-01 -9.8605908e-02 -2.3211417e-01 -6.6119399e-02 -4.5262266e-01 8.6187425e-01 7.3195850e-01 -2.3279489e-01 -5.4399265e-04 -2.0562042e-01 -3.8738965e-02 -1.3687396e-01 -1.2694340e-02 -6.9025052e-02 2.9019473e-02 3.0188726e-02 1.3835981e-01 1.7697532e-01 2.4057764e-01 1.1016045e-01 -1.2552222e-02 -1.1810180e-01 -9.5216213e-02 -1.2800479e-01 -1.0561367e-01 -1.3131893e-01 -8.7181506e-02 -1.3712603e-01 -9.2536873e-02 -1.1708694e-01 -1.0177069e-01 -5.8458847e-02 1.0942834e-02 3.3875341e-02 -1.5398994e-02 -1.3013566e-01 -1.4347961e-01 -1.7564026e-01 -1.9519929e-01 -2.1674482e-01 1.1776786e+00 1.9534462e-01 -1.7862883e-01 -7.0253831e-02 -1.6699566e-01 -8.7986538e-02 -1.1377784e-01 -4.6039545e-02 -5.3132659e-02 2.7186239e-02 5.3632248e-02 1.7762145e-01 2.0356256e-01 1.9731639e-01 3.0780764e-02 -7.3414989e-02 -1.2978152e-01 -1.2929900e-01 -1.5191383e-01 -1.3058372e-01 -1.4591229e-01 -1.0488201e-01 -1.5686812e-01 -9.4878731e-02 -9.0628215e-02 2.8433771e-02 8.9254488e-03 3.2043831e-02 -1.5236672e-01 -9.5990784e-02 -2.2383303e-01 -6.5146456e-02 -4.1649164e-01 8.7725606e-01 6.9094407e-01 -2.6390583e-01 1.5385547e-02 -2.0895763e-01 -3.6986596e-02 -1.4240697e-01 -3.6382778e-04 -8.3212348e-02 5.3586801e-02 2.5286834e-02 1.8392881e-01 1.9178864e-01 2.4728375e-01 8.9062245e-02 -1.6586628e-02 -1.1889788e-01 -8.1292736e-02 -1.3461991e-01 -9.3238216e-02 -1.2205434e-01 -8.5310367e-02 -1.1525636e-01 -6.3246098e-02 -9.1034487e-02 4.6526890e-02 2.3596810e-02 8.7047700e-02 -1.1083842e-01 -4.4890853e-02 -2.2022834e-01 -2.4965032e-02 -3.9583016e-01 5.0567371e-01 1.0481171e+00 -1.7399309e-01 2.4272349e-02 -1.4921954e-01 -2.3262410e-02 -1.0034670e-01 2.1926331e-03 -3.7212245e-02 4.3888559e-02 6.3907607e-02 1.6204142e-01 2.2886238e-01 2.5732333e-01 1.4517735e-01 2.4583011e-02 -7.4673976e-02 -7.8866064e-02 -1.0052374e-01 -8.3085436e-02 -7.9995931e-02 -8.6058489e-02 -8.1252020e-02 -7.8244507e-02 -6.0982752e-02 -6.7457029e-03 5.7673910e-02 8.4120261e-02 4.5039836e-02 -8.0617116e-02 -9.9517744e-02 -1.4724615e-01 -1.0108767e-01 -2.6049453e-01 1.1429324e+00 4.6731236e-01 -1.6938760e-01 2.6216612e-02 -1.1097921e-01 -2.5097976e-03 -7.9525596e-02 3.9623655e-02 -1.8450708e-02 1.1111724e-01 9.1607119e-02 2.3428777e-01 2.3061953e-01 2.8768516e-01 9.2311721e-02 9.2781667e-03 -6.3614397e-02 -4.8118837e-02 -9.1502038e-02 -2.5025748e-02 -1.0204216e-01 -1.6957036e-02 -8.9019226e-02 -1.7061110e-02 -1.4377590e-02 8.8156396e-02 6.4371712e-02 1.1106143e-01 -9.9444634e-02 -1.4206271e-02 -1.8161091e-01 -2.3317129e-02 -3.5104421e-01 9.6769009e-01
9.5862590e+01 9.5854864e+01 9.5847138e+01 9.5839413e+01 9.5831687e+01 9.5823961e+01 9.5816236e+01 9.5808510e+01 9.5800784e+01 9.5793059e+01 9.5785333e+01 9.5777607e+01 9.5769882e+01 9.5762156e+01 9.5754430e+01 9.5746705e+01 9.5738979e+01 9.5731253e+01 9.5723528e+01 9.5715802e+01 9.5708076e+01 9.5700351e+01 9.5692625e+01 9.5684899e+01 9.5677174e+01 9.5669448e+01 9.5661722e+01 9.5653997e+01 9.5646271e+01 9.5638545e+01 9.5630820e+01 9.5623094e+01 9.5615368e+01 9.5607642e+01 9.5599917e+01 9.5592191e+01 9.5584465e+01 9.5576740e+01 9.5569014e+01 9.5561288e+01 9.5553563e+01 9.5545837e+01 9.5538111e+01 9.5530386e+01 9.5522660e+01 9.5514934e+01 9.5507209e+01 9.5499483e+01 9.5491757e+01 9.5484032e+01 9.5476306e+01 9.5468580e+01 9.5460855e+01 9.5453129e+01 9.5445403e+01 9.5437678e+01 9.5429952e+01 9.5422226e+01 9.5414501e+01 9.5406775e+01 9.5399049e+01 9.5391324e+01 9.5383598e+01 9.5375872e+01 9.5368146e+01 9.5360421e+01 9.5352695e+01 9.5344969e+01 9.5337244e+01 9.5329518e+01 9.5321792e+01 9.5314067e+01 9.5306341e+01 9.5298615e+01 9.5290890e+01 9.5283164e+01 9.5275438e+01 9.5267713e+01 9.5259987e+01 9.5252261e+01 9.5244536e+01 9.5236810e+01 9.5229084e+01 9.5221359e+01 9.5213633e+01 9.5205907e+01 9.5198182e+01 9.5190456e+01 9.5182730e+01 9.5175005e+01 9.5167279e+01 9.5159553e+01 9.5151828e+01 9.5144102e+01 9.5136376e+01 9.5128651e+01 9.5120925e+01 9.5113199e+01 9.5105473e+01 9.5097748e+01 9.5090022e+01 9.5082296e+01 9.5074571e+01 9.5066845e+01 9.5059119e+01 9.5051394e+01 9.5043668e+01 9.5035942e+01 9.5028217e+01 9.5020491e+01 9.5012765e+01 9.5005040e+01 9.4997314e+01 9.4989588e+01 9.4981863e+01 9.4974137e+01 9.4966411e+01 9.4958686e+01 9.4950960e+01 9.4943234e+01 9.4935509e+01 9.4927783e+01 9.4920057e+01 9.4912332e+01 9.4904606e+01 9.4896880e+01 9.4889155e+01 9.4881429e+01 9.4873703e+01 9.4865978e+01 9.4858252e+01 9.4850526e+01 9.4842800e+01 9.4835075e+01 9.4827349e+01 9.4819623e+01 9.4811898e+01 9.4804172e+01 9.4796446e+01 9.4788721e+01 9.4780995e+01 9.4773269e+01 9.4765544e+01 9.4757818e+01 9.4750092e+01 9.4742367e+01 9.4734641e+01 9.4726915e+01 9.4719190e+01 9.4711464e+01 9.4703738e+01 9.4696013e+01 9.4688287e+01 9.4680561e+01 9.4672836e+01 9.4665110e+01 9.4657384e+01 9.4649659e+01 9.4641933e+01 9.4634207e+01 9.4626482e+01 9.4618756e+01 9.4611030e+01 9.4603305e+01 9.4595579e+01 9.4587853e+01 9.4580127e+01 9.4572402e+01 9.4564676e+01 9.4556950e+01 9.4549225e+01 9.4541499e+01 9.4533773e+01 9.4526048e+01 9.4518322e+01 9.4510596e+01 9.4502871e+01 9.4495145e+01 9.4487419e+01 9.4479694e+01 9.4471968e+01 9.4464242e+01 9.4456517e+01 9.4448791e+01 9.4441065e+01 9.4433340e+01 9.4425614e+01 9.4417888e+01 9.4410163e+01 9.4402437e+01 9.4394711e+01 9.4386986e+01 9.4379260e+01 9.4371534e+01 9.4363809e+01 9.4356083e+01 9.4348357e+01 9.4340632e+01 9.4332906e+01 9.4325180e+01 9.4317454e+01 9.4309729e+01 9.4302003e+01 9.4294277e+01 9.4286552e+01 9.4278826e+01 9.4271100e+01 9.4263375e+01 9.4255649e+01 9.4247923e+01 9.4240198e+01 9.4232472e+01 9.4224746e+01 9.4217021e+01 9.4209295e+01 9.4201569e+01 9.4193844e+01 9.4186118e+01 9.4178392e+01 9.4170667e+01 9.4162941e+01 9.4155215e+01 9.4147490e+01 9.4139764e+01 9.4132038e+01 9.4124313e+01 9.4116587e+01 9.4108861e+01 9.4101136e+01 9.4093410e+01 9.4085684e+01 9.4077959e+01 9.4070233e+01 9.4062507e+01 9.4054781e+01 9.4047056e+01 9.4039330e+01 9.4031604e+01 9.4023879e+01 9.4016153e+01 9.4008427e+01 9.4000702e+01 9.3992976e+01 9.3985250e+01 9.3977525e+01 9.3969799e+01 9.3962073e+01 9.3954348e+01 9.3946622e+01 9.3938896e+01 9.3931171e+01 9.3923445e+01 9.3915719e+01 9.3907994e+01 9.3900268e+01 9.3892542e+01 9.3884817e+01 9.3877091e+01 9.3869365e+01 9.3861640e+01 9.3853914e+01 9.3846188e+01 9.3838463e+01 9.3830737e+01 9.3823011e+01 9.3815286e+01 9.3807560e+01 9.3799834e+01 9.3792108e+01 9.3784383e+01 9.3776657e+01 9.3768931e+01 9.3761206e+01 9.3753480e+01 9.3745754e+01 9.3738029e+01 9.3730303e+01 9.3722577e+01 9.3714852e+01 9.3707126e+01 9.3699400e+01 9.3691675e+01 9.3683949e+01 9.3676223e+01 9.3668498e+01 9.3660772e+01 9.3653046e+01 9.3645321e+01 9.3637595e+01 9.3629869e+01 9.3622144e+01 9.3614418e+01 9.3606692e+01 9.3598967e+01 9.3591241e+01 9.3583515e+01 9.3575790e+01 9.3568064e+01 9.3560338e+01 9.3552613e+01 9.3544887e+01 9.3537161e+01 9.3529435e+01 9.3521710e+01 9.3513984e+01 9.3506258e+01 9.3498533e+01 9.3490807e+01 9.3483081e+01 9.3475356e+01 9.3467630e+01 9.3459904e+01 9.3452179e+01 9.3444453e+01 9.3436727e+01 9.3429002e+01 9.3421276e+01 9.3413550e+01 9.3405825e+01 9.3398099e+01 9.3390373e+01 9.3382648e+01 9.3374922e+01 9.3367196e+01 9.3359471e+01 9.3351745e+01 9.3344019e+01 9.3336294e+01 9.3328568e+01 9.3320842e+01 9.3313117e+01 9.3305391e+01 9.3297665e+01 9.3289940e+01 9.3282214e+01 9.3274488e+01 9.3266762e+01 9.3259037e+01 9.3251311e+01 9.3243585e+01 9.3235860e+01 9.3228134e+01 9.3220408e+01 9.3212683e+01 9.3204957e+01 9.3197231e+01 9.3189506e+01 9.3181780e+01 9.3174054e+01 9.3166329e+01 9.3158603e+01 9.3150877e+01 9.3143152e+01 9.3135426e+01 9.3127700e+01 9.3119975e+01 9.3112249e+01 9.3104523e+01 9.3096798e+01 9.3089072e+01 9.3081346e+01 9.3073621e+01 9.3065895e+01 9.3058169e+01 9.3050444e+01 9.3042718e+01 9.3034992e+01 9.3027267e+01 9.3019541e+01 9.3011815e+01 9.3004089e+01 9.2996364e+01 9.2988638e+01 9.2980912e+01 9.2973187e+01 9.2965461e+01 9.2957735e+01 9.2950010e+01 9.2942284e+01 9.2934558e+01 9.2926833e+01 9.2919107e+01 9.2911381e+01 9.2903656e+01 9.2895930e+01 9.2888204e+01 9.2880479e+01 9.2872753e+01 9.2865027e+01 9.2857302e+01 9.2849576e+01 9.2841850e+01 9.2834125e+01 9.2826399e+01 9.2818673e+01 9.2810948e+01 9.2803222e+01 9.2795496e+01 9.2787771e+01 9.2780045e+01 9.2772319e+01 9.2764594e+01 9.2756868e+01 9.2749142e+01 9.2741416e+01 9.2733691e+01 9.2725965e+01 9.2718239e+01 9.2710514e+01 9.2702788e+01 9.2695062e+01 9.2687337e+01 9.2679611e+01 9.2671885e+01 9.2664160e+01 9.2656434e+01 9.2648708e+01 9.2640983e+01 9.2633257e+01 9.2625531e+01 9.2617806e+01 9.2610080e+01 9.2602354e+01 9.2594629e+01 9.2586903e+01 9.2579177e+01 9.2571452e+01 9.2563726e+01 9.2556000e+01 9.2548275e+01 9.2540549e+01 9.2532823e+01 9.2525098e+01 9.2517372e+01 9.2509646e+01 9.2501921e+01 9.2494195e+01 9.2486469e+01 9.2478743e+01 9.2471018e+01 9.2463292e+01 9.2455566e+01 9.2447841e+01 9.2440115e+01 9.2432389e+01 9.2424664e+01 9.2416938e+01 9.2409212e+01 9.2401487e+01 9.2393761e+01 9.2386035e+01 9.2378310e+01 9.2370584e+01 9.2362858e+01 9.2355133e+01 9.2347407e+01 9.2339681e+01 9.2331956e+01 9.2324230e+01 9.2316504e+01 9.2308779e+01 9.2301053e+01 9.2293327e+01 9.2285602e+01 9.2284030e+01 9.2288182e+01 9.2292333e+01 9.2296484e+01 9.2300635e+01 9.2304786e+01 9.2308938e+01 9.2313089e+01 9.2317240e+01 9.2321391e+01 9.2325543e+01 9.2329694e+01 9.2333845e+01 9.2337996e+01 9.2342148e+01 9.2346299e+01 9.2350450e+01 9.2354601e+01 9.2358752e+01 9.2362904e+01 9.2367055e+01 9.2371206e+01 9.2375357e+01 9.2379509e+01 9.2383660e+01 9.2387811e+01 9.2391962e+01 9.2396114e+01 9.2400265e+01 9.2404416e+01 9.2408567e+01 9.2412719e+01 9.2416870e+01 9.2421021e+01 9.2425172e+01 9.2429323e+01 9.2433475e+01 9.2437626e+01 9.2441777e+01 9.2445928e+01 9.2450080e+01 9.2454231e+01 9.2458382e+01 9.2462533e+01 9.2466685e+01 9.2470836e+01 9.2474987e+01 9.2479138e+01 9.2483289e+01 9.2487441e+01 9.2491592e+01 9.2495743e+01 9.2499894e+01 9.2504046e+01 9.2508197e+01 9.2523092e+01 9.2538085e+01 9.2553079e+01 9.2568073e+01 9.2583066e+01 9.2598060e+01 9.2613053e+01 9.2628047e+01 9.2643040e+01 9.2658034e+01 9.2673027e+01 9.2688021e+01 9.2703014e+01 9.2718008e+01 9.2733002e+01 9.2747995e+01 9.2762989e+01 9.2777982e+01 9.2792976e+01 9.2807969e+01 9.2822963e+01 9.2837956e+01 9.2852950e+01 9.2867943e+01 9.2882937e+01 9.2897931e+01 9.2912924e+01 9.2927918e+01 9.2942911e+01 9.2957905e+01 9.2972898e+01 9.2987892e+01 9.3002885e+01 9.3017879e+01 9.3032872e+01 9.3047866e+01 9.3062860e+01 9.3077853e+01 9.3092847e+01 9.3107840e+01 9.3122834e+01 9.3137827e+01 9.3152821e+01 9.3167814e+01 9.3182808e+01 9.3197801e+01 9.3212795e+01 9.3227789e+01 9.3242782e+01 9.3257776e+01 9.3272769e+01 9.3287763e+01 9.3302756e+01 9.3317750e+01 9.3324280e+01 9.3321019e+01 9.3317758e+01 9.3314497e+01 9.3311236e+01 9.3307975e+01 9.3304714e+01 9.3301453e+01 9.3298192e+01 9.3294931e+01 9.3291670e+01 9.3288409e+01 9.3285148e+01 9.3281887e+01 9.3278626e+01 9.3275365e+01 9.3272104e+01 9.3268843e+01 9.3265582e+01 9.3262321e+01 9.3259060e+01 9.3255799e+01 9.3252538e+01 9.3249277e+01 9.3246016e+01 9.3242755e+01 9.3239494e+01 9.3236233e+01 9.3232972e+01 9.3229711e+01 9.3226450e+01 9.3223189e+01 9.3219928e+01 9.3216667e+01 9.3213406e+01 9.3210145e+01 9.3206884e+01 9.3203623e+01 9.3200362e+01 9.3197101e+01 9.3193840e+01 9.3190579e+01 9.3187318e+01 9.3184057e+01 9.3180796e+01 9.3177535e+01 9.3174274e+01 9.3171013e+01 9.3167752e+01 9.3164491e+01 9.3161230e+01 9.3157969e+01 9.3154708e+01 9.3151447e+01 9.3148186e+01 9.3141794e+01 9.3135190e+01 9.3128585e+01 9.3121981e+01 9.3115376e+01 9.3108772e+01 9.3102167e+01 9.3095563e+01 9.3088958e+01 9.3082354e+01 9.3075749e+01 9.3069145e+01 9.3062540e+01 9.3055936e+01 9.3049331e+01 9.3042727e+01 9.3036122e+01 9.3029518e+01 9.3022913e+01 9.3016309e+01 9.3009704e+01 9.3003100e+01 9.2996495e+01 9.2989891e+01 9.2983286e+01 9.2976682e+01 9.2970077e+01 9.2963473e+01 9.2956868e+01 9.2950264e+01 9.2943659e+01 9.2937055e+01 9.2930450e+01 9.2923846e+01 9.2917241e+01 9.2910637e+01 9.2904032e+01 9.2897428e+01 9.2890823e+01 9.2884219e+01 9.2877614e+01 9.2871010e+01 9.2864405e+01 9.2857801e+01 9.2851196e+01 9.2844592e+01 9.2837987e+01 9.2831383e+01 9.2824778e+01 9.2818174e+01 9.2811569e+01 9.2804965e+01 9.2798360e+01 9.2791756e+01 9.2783288e+01 9.2772129e+01 9.2760970e+01 9.2749811e+01 9.2738652e+01 9.2727493e+01 9.2716334e+01 9.2705175e+01 9.2694016e+01 9.2682857e+01 9.2671698e+01 9.2660539e+01 9.2649380e+01 9.2638221e+01 9.2627062e+01 9.2615903e+01 9.2604744e+01 9.2593585e+01 9.2582426e+01 9.2571267e+01 9.2560108e+01 9.2548949e+01 9.2537790e+01 9.2526631e+01 9.2515472e+01 9.2504313e+01 9.2493154e+01 9.2481995e+01 9.2470837e+01 9.2459678e+01 9.2448519e+01 9.2437360e+01 9.2426201e+01 9.2415042e+01 9.2403883e+01 9.2392724e+01 9.2381565e+01 9.2370406e+01 9.2359247e+01 9.2348088e+01 9.2336929e+01 9.2325770e+01 9.2314611e+01 9.2303452e+01 9.2292293e+01 9.2281134e+01 9.2269975e+01 9.2258816e+01 9.2247657e+01 9.2236498e+01 9.2225339e+01 9.2214180e+01 9.2203021e+01 9.2191862e+01 9.2180703e+01 9.2160463e+01 9.2139005e+01 9.2117548e+01 9.2096091e+01 9.2074633e+01 9.2053176e+01 9.2031719e+01 9.2010262e+01 9.1988804e+01 9.1967347e+01 9.1945890e+01 9.1924432e+01 9.1902975e+01 9.1881518e+01 9.1860061e+01 9.1838603e+01 9.1817146e+01 9.1795689e+01 9.1774231e+01 9.1752774e+01 9.1731317e+01 9.1709860e+01 9.1688402e+01 9.1666945e+01 9.1645488e+01 9.1624030e+01 9.1602573e+01 9.1581116e+01 9.1559659e+01 9.1538201e+01 9.1516744e+01 9.1495287e+01 9.1473829e+01 9.1452372e+01 9.1430915e+01 9.1409458e+01 9.1388000e+01 9.1366543e+01 9.1345086e+01 9.1323628e+01 9.1302171e+01 9.1280714e+01 9.1259257e+01 9.1237799e+01 9.1216342e+01 9.1194885e+01 9.1173427e+01 9.1151970e+01 9.1130513e+01 9.1109056e+01 9.1087598e+01 9.1066141e+01 9.1044684e+01 9.1023226e+01 9.1007193e+01 9.1001035e+01 9.0994876e+01 9.0988718e+01 9.0982560e+01 9.0976401e+01 9.0970243e+01 9.0964084e+01 9.0957926e+01 9.0951768e+01 9.0945609e+01 9.0939451e+01 9.0933292e+01 9.0927134e+01 9.0920975e+01 9.0914817e+01 9.0908659e+01 9.0902500e+01 9.0896342e+01 9.0890183e+01 9.0884025e+01 9.0877867e+01 9.0871708e+01 9.0865550e+01 9.0859391e+01 9.0853233e+01 9.0847074e+01 9.0840916e+01 9.0834758e+01 9.0828599e+01 9.0822441e+01 9.0816282e+01 9.0810124e+01 9.0803966e+01 9.0797807e+01 9.0791649e+01 9.0785490e+01 9.0779332e+01 9.0773174e+01 9.0767015e+01 9.0760857e+01 9.0754698e+01 9.0748540e+01 9.0742381e+01 9.0736223e+01 9.0730065e+01 9.0723906e+01 9.0717748e+01 9.0711589e+01 9.0705431e+01 9.0699273e+01 9.0693114e+01 9.0686956e+01 9.0680797e+01 9.0674639e+01 9.0661894e+01 9.0647775e+01 9.0633655e+01 9.0619536e+01 9.0605416e+01 9.0591297e+01 9.0577177e+01 9.0563058e+01 9.0548938e+01 9.0534818e+01 9.0520699e+01 9.0506579e+01 9.0492460e+01 9.0478340e+01 9.0464221e+01 9.0450101e+01 9.0435982e+01 9.0421862e+01 9.0407743e+01 9.0393623e+01 9.0379503e+01 9.0365384e+01 9.0351264e+01 9.0337145e+01 9.0323025e+01 9.0308906e+01 9.0294786e+01 9.0280667e+01 9.0266547e+01 9.0252427e+01 9.0238308e+01 9.0224188e+01 9.0210069e+01 9.0195949e+01 9.0181830e+01 9.0167710e+01 9.0153591e+01 9.0139471e+01 9.0125352e+01 9.0111232e+01 9.0097112e+01 9.0082993e+01 9.0068873e+01 9.0054754e+01 9.0040634e+01 9.0026515e+01 9.0012395e+01 8.9998276e+01 8.9984156e+01 8.9970037e+01 8.9955917e+01 8.9941797e+01 8.9927678e+01 8.9913558e+01 8.9898022e+01 8.9879182e+01 8.9860341e+01 8.9841501e+01 8.9822660e+01 8.9803820e+01 8.9784979e+01 8.9766138e+01 8.9747298e+01 8.9728457e+01 8.9709617e+01 8.9690776e+01 8.9671935e+01 8.9653095e+01 8.9634254e+01 8.9615414e+01 8.9596573e+01 8.9577733e+01 8.9558892e+01 8.9540051e+01 8.9521211e+01 8.9502370e+01 8.9483530e+01 8.9464689e+01 8.9445848e+01 8.9427008e+01 8.9408167e+01 8.9389327e+01 8.9370486e+01 8.9351646e+01 8.9332805e+01 8.9313964e+01 8.9295124e+01 8.9276283e+01 8.9257443e+01 8.9238602e+01 8.9219761e+01 8.9200921e+01 8.9182080e+01 8.9163240e+01 8.9144399e+01 8.9125559e+01 8.9106718e+01 8.9087877e+01 8.9069037e+01 8.9050196e+01 8.9031356e+01 8.9012515e+01 8.8993674e+01 8.8974834e+01 8.8955993e+01 8.8937153e+01 8.8918312e+01 8.8899472e+01 8.8880631e+01 8.8871393e+01 8.8864980e+01 8.8858567e+01 8.8852154e+01 8.8845741e+01 8.8839328e+01 8.8832915e+01 8.8826502e+01 8.8820089e+01 8.8813676e+01 8.8807263e+01 8.8800850e+01 8.8794437e+01 8.8788024e+01 8.8781611e+01 8.8775198e+01 8.8768785e+01 8.8762372e+01 8.8755959e+01 8.8749546e+01 8.8743133e+01 8.8736720e+01 8.8730307e+01 8.8723894e+01 8.8717481e+01 8.8711067e+01 8.8704654e+01 8.8698241e+01 8.8691828e+01 8.8685415e+01 8.8679002e+01 8.8672589e+01 8.8666176e+01 8.8659763e+01 8.8653350e+01 8.8646937e+01 8.8640524e+01 8.8634111e+01 8.8627698e+01 8.8621285e+01 8.8614872e+01 8.8608459e+01 8.8602046e+01 8.8595633e+01 8.8589220e+01 8.8582807e+01 8.8576394e+01 8.8569981e+01 8.8563568e+01 8.8557154e+01 8.8550741e+01 8.8544328e+01 8.8537915e+01 8.8531502e+01 8.8524325e+01 8.8514800e+01 8.8505274e+01 8.8495749e+01 8.8486223e+01 8.8476698e+01 8.8467172e+01 8.8457647e+01 8.8448121e+01 8.8438596e+01 8.8429070e+01 8.8419545e+01 8.8410019e+01 8.8400494e+01 8.8390968e+01 8.8381443e+01 8.8371917e+01 8.8362392e+01 8.8352866e+01 8.8343341e+01 8.8333815e+01 8.8324290e+01 8.8314764e+01 8.8305239e+01 8.8295713e+01 8.8286188e+01 8.8276662e+01 8.8267137e+01 8.8257611e+01 8.8248086e+01 8.8238560e+01 8.8229035e+01 8.8219509e+01 8.8209984e+01 8.8200458e+01 8.8190933e+01 8.8181407e+01 8.8171882e+01 8.8162356e+01 8.8152831e+01 8.8143305e+01 8.8133780e+01 8.8124254e+01 8.8114729e+01 8.8105204e+01 8.8095678e+01 8.8086153e+01 8.8076627e+01 8.8067102e+01 8.8057576e+01 8.8048051e+01 8.8038525e+01 8.8029000e+01 8.8019474e+01 8.8009949e+01 8.8004437e+01 8.8000501e+01 8.7996565e+01 8.7992629e+01 8.7988693e+01 8.7984757e+01 8.7980821e+01 8.7976885e+01 8.7972949e+01 8.7969013e+01 8.7965077e+01 8.7961141e+01 8.7957205e+01 8.7953269e+01 8.7949333e+01 8.7945397e+01 8.7941461e+01 8.7937524e+01 8.7933588e+01 8.7929652e+01 8.7925716e+01 8.7921780e+01 8.7917844e+01 8.7913908e+01 8.7909972e+01 8.7906036e+01 8.7902100e+01 8.7898164e+01 8.7894228e+01 8.7890292e+01 8.7886356e+01 8.7882420e+01 8.7878484e+01 8.7874548e+01 8.7870612e+01 8.7866676e+01 8.7862740e+01 8.7858804e+01 8.7854867e+01 8.7850931e+01 8.7846995e+01 8.7843059e+01 8.7839123e+01 8.7835187e+01 8.7831251e+01 8.7827315e+01 8.7823379e+01 8.7819443e+01 8.7815507e+01 8.7811571e+01 8.7807635e+01 8.7803699e+01 8.7799763e+01 8.7795827e+01 8.7794408e+01 8.7803660e+01 8.7812912e+01 8.7822164e+01 8.7831416e+01 8.7840668e+01 8.7849920e+01 8.7859172e+01 8.7868424e+01 8.7877676e+01 8.7886928e+01 8.7896180e+01 8.7905432e+01 8.7914684e+01 8.7923936e+01 8.7933188e+01 8.7942440e+01 8.7951692e+01 8.7960944e+01 8.7970196e+01 8.7979448e+01 8.7988700e+01 8.7997952e+01 8.8007204e+01 8.8016456e+01 8.8025708e+01 8.8034960e+01 8.8044212e+01 8.8053464e+01 8.8062716e+01 8.8071968e+01 8.8081219e+01 8.8090471e+01 8.8099723e+01 8.8108975e+01 8.8118227e+01 8.8127479e+01 8.8136731e+01 8.8145983e+01 8.8155235e+01 8.8164487e+01 8.8173739e+01 8.8182991e+01 8.8192243e+01 8.8201495e+01 8.8210747e+01 8.8219999e+01 8.8229251e+01 8.8238503e+01 8.8247755e+01 8.8257007e+01 8.8266259e+01 8.8275511e+01 8.8284763e+01 8.8294015e+01 8.8294498e+01 8.8290536e+01 8.8286574e+01 8.8282612e+01 8.8278650e+01 8.8274688e+01 8.8270726e+01 8.8266764e+01 8.8262802e+01 8.8258840e+01 8.8254878e+01 8.8250916e+01 8.8246954e+01 8.8242992e+01 8.8239030e+01 8.8235068e+01 8.8231106e+01 8.8227144e+01 8.8223182e+01 8.8219220e+01 8.8215258e+01 8.8211296e+01 8.8207334e+01 8.8203372e+01 8.8199410e+01 8.8195448e+01 8.8191486e+01 8.8187524e+01 8.8183562e+01 8.8179600e+01 8.8175638e+01 8.8171676e+01 8.8167714e+01 8.8163752e+01 8.8159790e+01 8.8155828e+01 8.8151866e+01 8.8147904e+01 8.8143942e+01 8.8139980e+01 8.8136018e+01 8.8132056e+01 8.8128094e+01 8.8124132e+01 8.8120170e+01 8.8116208e+01 8.8112246e+01 8.8108284e+01 8.8104322e+01 8.8100360e+01 8.8096398e+01 8.8092436e+01 8.8088474e+01 8.8084512e+01 8.8077368e+01 8.8050070e+01 8.8022771e+01 8.7995473e+01 8.7968174e+01 8.7940876e+01 8.7913577e+01 8.7886279e+01 8.7858981e+01 8.7831682e+01 8.7804384e+01 8.7777085e+01 8.7749787e+01 8.7722488e+01 8.7695190e+01 8.7667892e+01 8.7640593e+01 8.7613295e+01 8.7585996e+01 8.7558698e+01 8.7531400e+01 8.7504101e+01 8.7476803e+01 8.7449504e+01 8.7422206e+01 8.7394907e+01 8.7367609e+01 8.7340311e+01 8.7313012e+01 8.7285714e+01 8.7258415e+01 8.7231117e+01 8.7203818e+01 8.7176520e+01 8.7149222e+01 8.7121923e+01 8.7094625e+01 8.7067326e+01 8.7040028e+01 8.7012729e+01 8.6985431e+01 8.6958133e+01 8.6930834e+01 8.6903536e+01 8.6876237e+01 8.6848939e+01 8.6821640e+01 8.6794342e+01 8.6767044e+01 8.6739745e+01 8.6712447e+01 8.6685148e+01 8.6657850e+01 8.6630552e+01 8.6603253e+01 8.6574298e+01 8.6544279e+01 8.6514261e+01 8.6484242e+01 8.6454224e+01 8.6424205e+01 8.6394187e+01 8.6364168e+01 8.6334149e+01 8.6304131e+01 8.6274112e+01 8.6244094e+01 8.6214075e+01 8.6184057e+01 8.6154038e+01 8.6124020e+01 8.6094001e+01 8.6063983e+01 8.6033964e+01 8.6003945e+01 8.5973927e+01 8.5943908e+01 8.5913890e+01 8.5883871e+01 8.5853853e+01 8.5823834e+01 8.5793816e+01 8.5763797e+01 8.5733778e+01 8.5703760e+01 8.5673741e+01 8.5643723e+01 8.5613704e+01 8.5583686e+01 8.5553667e+01 8.5523649e+01 8.5493630e+01 8.5463612e+01 8.5433593e+01 8.5403574e+01 8.5373556e+01 8.5343537e+01 8.5313519e+01 8.5283500e+01 8.5253482e+01 8.5223463e+01 8.5193445e+01 8.5163426e+01 8.5133407e+01 8.5103389e+01 8.5073370e+01 8.5043352e+01 8.5013333e+01 8.4983315e+01 8.4955097e+01 8.4947086e+01 8.4939075e+01 8.4931064e+01 8.4923054e+01 8.4915043e+01 8.4907032e+01 8.4899021e+01 8.4891011e+01 8.4883000e+01 8.4874989e+01 8.4866978e+01 8.4858967e+01 8.4850957e+01 8.4842946e+01 8.4834935e+01 8.4826924e+01 8.4818914e+01 8.4810903e+01 8.4802892e+01 8.4794881e+01 8.4786870e+01 8.4778860e+01 8.4770849e+01 8.4762838e+01 8.4754827e+01 8.4746817e+01 8.4738806e+01 8.4730795e+01 8.4722784e+01 8.4714773e+01 8.4706763e+01 8.4698752e+01 8.4690741e+01 8.4682730e+01 8.4674720e+01 8.4666709e+01 8.4658698e+01 8.4650687e+01 8.4642676e+01 8.4634666e+01 8.4626655e+01 8.4618644e+01 8.4610633e+01 8.4602623e+01 8.4594612e+01 8.4586601e+01 8.4578590e+01 8.4570579e+01 8.4562569e+01 8.4554558e+01 8.4546547e+01 8.4538536e+01 8.4530526e+01 8.4522515e+01 8.4515089e+01 8.4508133e+01 8.4501178e+01 8.4494222e+01 8.4487266e+01 8.4480311e+01 8.4473355e+01 8.4466399e+01 8.4459444e+01 8.4452488e+01 8.4445532e+01 8.4438577e+01 8.4431621e+01 8.4424665e+01 8.4417710e+01 8.4410754e+01 8.4403798e+01 8.4396842e+01 8.4389887e+01 8.4382931e+01 8.4375975e+01 8.4369020e+01 8.4362064e+01 8.4355108e+01 8.4348153e+01 8.4341197e+01 8.4334241e+01 8.4327286e+01 8.4320330e+01 8.4313374e+01 8.4306419e+01 8.4299463e+01 8.4292507e+01 8.4285552e+01 8.4278596e+01 8.4271640e+01 8.4264684e+01 8.4257729e+01 8.4250773e+01 8.4243817e+01 8.4236862e+01 8.4229906e+01 8.4222950e+01 8.4215995e+01 8.4209039e+01 8.4202083e+01 8.4195128e+01 8.4188172e+01 8.4181216e+01 8.4174261e+01 8.4167305e+01 8.4160349e+01 8.4153394e+01 8.4146438e+01 8.4139616e+01 8.4137563e+01 8.4135510e+01 8.4133457e+01 8.4131404e+01 8.4129351e+01 8.4127298e+01 8.4125245e+01 8.4123192e+01 8.4121139e+01 8.4119086e+01 8.4117033e+01 8.4114980e+01 8.4112927e+01 8.4110874e+01 8.4108821e+01 8.4106768e+01 8.4104715e+01 8.4102662e+01 8.4100609e+01 8.4098557e+01 8.4096504e+01 8.4094451e+01 8.4092398e+01 8.4090345e+01 8.4088292e+01 8.4086239e+01 8.4084186e+01 8.4082133e+01 8.4080080e+01 8.4078027e+01 8.4075974e+01 8.4073921e+01 8.4071868e+01 8.4069815e+01 8.4067762e+01 8.4065709e+01 8.4063656e+01 8.4061603e+01 8.4059550e+01 8.4057497e+01 8.4055444e+01 8.4053391e+01 8.4051338e+01 8.4049285e+01 8.4047232e+01 8.4045179e+01 8.4043126e+01 8.4041073e+01 8.4039020e+01 8.4036968e+01 8.4034915e+01 8.4032862e+01 8.4030809e+01 8.4028756e+01 8.4043082e+01 8.4073788e+01 8.4104494e+01 8.4135200e+01 8.4165906e+01 8.4196612e+01 8.4227318e+01 8.4258024e+01 8.4288730e+01 8.4319436e+01 8.4350142e+01 8.4380848e+01 8.4411554e+01 8.4442260e+01 8.4472966e+01 8.4503672e+01 8.4534378e+01 8.4565084e+01 8.4595790e+01 8.4626496e+01 8.4657202e+01 8.4687908e+01 8.4718614e+01 8.4749320e+01 8.4780026e+01 8.4810732e+01 8.4841438e+01 8.4872144e+01 8.4902850e+01 8.4933556e+01 8.4964262e+01 8.4994968e+01 8.5025674e+01 8.5056380e+01 8.5087086e+01 8.5117791e+01 8.5148497e+01 8.5179203e+01 8.5209909e+01 8.5240615e+01 8.5271321e+01 8.5302027e+01 8.5332733e+01 8.5363439e+01 8.5394145e+01 8.5424851e+01 8.5455557e+01 8.5486263e+01 8.5516969e+01 8.5547675e+01 8.5578381e+01 8.5609087e+01 8.5639793e+01 8.5670499e+01 8.5701205e+01 8.5715036e+01 8.5728394e+01 8.5741753e+01 8.5755111e+01 8.5768469e+01 8.5781827e+01 8.5795185e+01 8.5808543e+01 8.5821901e+01 8.5835259e+01 8.5848617e+01 8.5861975e+01 8.5875334e+01 8.5888692e+01 8.5902050e+01 8.5915408e+01 8.5928766e+01 8.5942124e+01 8.5955482e+01 8.5968840e+01 8.5982198e+01 8.5995557e+01 8.6008915e+01 8.6022273e+01 8.6035631e+01 8.6048989e+01 8.6062347e+01 8.6075705e+01 8.6089063e+01 8.6102421e+01 8.6115779e+01 8.6129138e+01 8.6142496e+01 8.6155854e+01 8.6169212e+01 8.6182570e+01 8.6195928e+01 8.6209286e+01 8.6222644e+01 8.6236002e+01 8.6249360e+01 8.6262719e+01 8.6276077e+01 8.6289435e+01 8.6302793e+01 8.6316151e+01 8.6329509e+01 8.6342867e+01 8.6356225e+01 8.6369583e+01 8.6382942e+01 8.6396300e+01 8.6409658e+01 8.6423016e+01 8.6432863e+01 8.6438340e+01 8.6443818e+01 8.6449295e+01 8.6454772e+01 8.6460249e+01 8.6465726e+01 8.6471203e+01 8.6476680e+01 8.6482157e+01 8.6487634e+01 8.6493111e+01 8.6498589e+01 8.6504066e+01 8.6509543e+01 8.6515020e+01 8.6520497e+01 8.6525974e+01 8.6531451e+01 8.6536928e+01 8.6542405e+01 8.6547882e+01 8.6553360e+01 8.6558837e+01 8.6564314e+01 8.6569791e+01 8.6575268e+01 8.6580745e+01 8.6586222e+01 8.6591699e+01 8.6597176e+01 8.6602653e+01 8.6608131e+01 8.6613608e+01 8.6619085e+01 8.6624562e+01 8.6630039e+01 8.6635516e+01 8.6640993e+01 8.6646470e+01 8.6651947e+01 8.6657424e+01 8.6662902e+01 8.6668379e+01 8.6673856e+01 8.6679333e+01 8.6684810e+01 8.6690287e+01 8.6695764e+01 8.6701241e+01 8.6706718e+01 8.6712195e+01 8.6717673e+01 8.6723150e+01 8.6728627e+01 8.6742302e+01 8.6756708e+01 8.6771114e+01 8.6785520e+01 8.6799925e+01 8.6814331e+01 8.6828737e+01 8.6843143e+01 8.6857549e+01 8.6871955e+01 8.6886360e+01 8.6900766e+01 8.6915172e+01 8.6929578e+01 8.6943984e+01 8.6958390e+01 8.6972795e+01 8.6987201e+01 8.7001607e+01 8.7016013e+01 8.7030419e+01 8.7044825e+01 8.7059230e+01 8.7073636e+01 8.7088042e+01 8.7102448e+01 8.7116854e+01 8.7131260e+01 8.7145665e+01 8.7160071e+01 8.7174477e+01 8.7188883e+01 8.7203289e+01 8.7217695e+01 8.7232100e+01 8.7246506e+01 8.7260912e+01 8.7275318e+01 8.7289724e+01 8.7304130e+01 8.7318535e+01 8.7332941e+01 8.7347347e+01 8.7361753e+01 8.7376159e+01 8.7390565e+01 8.7404970e+01 8.7419376e+01 8.7433782e+01 8.7448188e+01 8.7462594e+01 8.7477000e+01 8.7491405e+01 8.7505811e+01 8.7519708e+01 8.7532812e+01 8.7545916e+01 8.7559021e+01 8.7572125e+01 8.7585229e+01 8.7598333e+01 8.7611437e+01 8.7624541e+01 8.7637645e+01 8.7650749e+01 8.7663853e+01 8.7676957e+01 8.7690061e+01 8.7703165e+01 8.7716269e+01 8.7729374e+01 8.7742478e+01 8.7755582e+01 8.7768686e+01 8.7781790e+01 8.7794894e+01 8.7807998e+01 8.7821102e+01 8.7834206e+01 8.7847310e+01 8.7860414e+01 8.7873518e+01 8.7886623e+01 8.7899727e+01 8.7912831e+01 8.7925935e+01 8.7939039e+01 8.7952143e+01 8.7965247e+01 8.7978351e+01 8.7991455e+01 8.8004559e+01 8.8017663e+01 8.8030767e+01 8.8043872e+01 8.8056976e+01 8.8070080e+01 8.8083184e+01 8.8096288e+01 8.8109392e+01 8.8122496e+01 8.8135600e+01 8.8148704e+01 8.8161808e+01 8.8174912e+01 8.8188016e+01 8.8201121e+01 8.8214225e+01 8.8227329e+01 8.8235604e+01 8.8243117e+01 8.8250629e+01 8.8258142e+01 8.8265655e+01 8.8273167e+01 8.8280680e+01 8.8288193e+01 8.8295705e+01 8.8303218e+01 8.8310731e+01 8.8318243e+01 8.8325756e+01 8.8333269e+01 8.8340781e+01 8.8348294e+01 8.8355807e+01 8.8363319e+01 8.8370832e+01 8.8378345e+01 8.8385858e+01 8.8393370e+01 8.8400883e+01 8.8408396e+01 8.8415908e+01 8.8423421e+01 8.8430934e+01 8.8438446e+01 8.8445959e+01 8.8453472e+01 8.8460984e+01 8.8468497e+01 8.8476010e+01 8.8483522e+01 8.8491035e+01 8.8498548e+01 8.8506061e+01 8.8513573e+01 8.8521086e+01 8.8528599e+01 8.8536111e+01 8.8543624e+01 8.8551137e+01 8.8558649e+01 8.8566162e+01 8.8573675e+01 8.8581187e+01 8.8588700e+01 8.8596213e+01 8.8603725e+01 8.8611238e+01 8.8618751e+01 8.8626263e+01 8.8633776e+01 8.8647993e+01 8.8675437e+01 8.8702881e+01 8.8730325e+01 8.8757769e+01 8.8785212e+01 8.8812656e+01 8.8840100e+01 8.8867544e+01 8.8894988e+01 8.8922432e+01 8.8949876e+01 8.8977320e+01 8.9004764e+01 8.9032208e+01 8.9059651e+01 8.9087095e+01 8.9114539e+01 8.9141983e+01 8.9169427e+01 8.9196871e+01 8.9224315e+01 8.9251759e+01 8.9279203e+01 8.9306647e+01 8.9334090e+01 8.9361534e+01 8.9388978e+01 8.9416422e+01 8.9443866e+01 8.9471310e+01 8.9498754e+01 8.9526198e+01 8.9553642e+01 8.9581086e+01 8.9608529e+01 8.9635973e+01 8.9663417e+01 8.9690861e+01 8.9718305e+01 8.9745749e+01 8.9773193e+01 8.9800637e+01 8.9828081e+01 8.9855525e+01 8.9882968e+01 8.9910412e+01 8.9937856e+01 8.9965300e+01 8.9992744e+01 9.0020188e+01 9.0047632e+01 9.0075076e+01 9.0102520e+01 9.0129964e+01 9.0142611e+01 9.0151766e+01 9.0160922e+01 9.0170078e+01 9.0179234e+01 9.0188389e+01 9.0197545e+01 9.0206701e+01 9.0215857e+01 9.0225012e+01 9.0234168e+01 9.0243324e+01 9.0252480e+01 9.0261635e+01 9.0270791e+01 9.0279947e+01 9.0289103e+01 9.0298258e+01 9.0307414e+01 9.0316570e+01 9.0325726e+01 9.0334881e+01 9.0344037e+01 9.0353193e+01 9.0362349e+01 9.0371504e+01 9.0380660e+01 9.0389816e+01 9.0398972e+01 9.0408128e+01 9.0417283e+01 9.0426439e+01 9.0435595e+01 9.0444751e+01 9.0453906e+01 9.0463062e+01 9.0472218e+01 9.0481374e+01 9.0490529e+01 9.0499685e+01 9.0508841e+01 9.0517997e+01 9.0527152e+01 9.0536308e+01 9.0545464e+01 9.0554620e+01 9.0563775e+01 9.0572931e+01 9.0582087e+01 9.0591243e+01 9.0600398e+01 9.0609554e+01 9.0618710e+01 9.0627866e+01 9.0633869e+01 9.0631839e+01 9.0629809e+01 9.0627779e+01 9.0625749e+01 9.0623718e+01 9.0621688e+01 9.0619658e+01 9.0617628e+01 9.0615598e+01 9.0613568e+01 9.0611538e+01 9.0609508e+01 9.0607477e+01 9.0605447e+01 9.0603417e+01 9.0601387e+01 9.0599357e+01 9.0597327e+01 9.0595297e+01 9.0593267e+01 9.0591237e+01 9.0589206e+01 9.0587176e+01 9.0585146e+01 9.0583116e+01 9.0581086e+01 9.0579056e+01 9.0577026e+01 9.0574996e+01 9.0572966e+01 9.0570935e+01 9.0568905e+01 9.0566875e+01 9.0564845e+01 9.0562815e+01 9.0560785e+01 9.0558755e+01 9.0556725e+01 9.0554695e+01 9.0552664e+01 9.0550634e+01 9.0548604e+01 9.0546574e+01 9.0544544e+01 9.0542514e+01 9.0540484e+01 9.0538454e+01 9.0536424e+01 9.0534393e+01 9.0532363e+01 9.0530333e+01 9.0528303e+01 9.0526273e+01 9.0524243e+01 9.0529770e+01 9.0537757e+01 9.0545743e+01 9.0553729e+01 9.0561715e+01 9.0569701e+01 9.0577687e+01 9.0585673e+01 9.0593659e+01 9.0601646e+01 9.0609632e+01 9.0617618e+01 9.0625604e+01 9.0633590e+01 9.0641576e+01 9.0649562e+01 9.0657548e+01 9.0665535e+01 9.0673521e+01 9.0681507e+01 9.0689493e+01 9.0697479e+01 9.0705465e+01 9.0713451e+01 9.0721437e+01 9.0729424e+01 9.0737410e+01 9.0745396e+01 9.0753382e+01 9.0761368e+01 9.0769354e+01 9.0777340e+01 9.0785326e+01 9.0793313e+01 9.0801299e+01 9.0809285e+01 9.0817271e+01 9.0825257e+01 9.0833243e+01 9.0841229e+01 9.0849215e+01 9.0857202e+01 9.0865188e+01 9.0873174e+01 9.0881160e+01 9.0889146e+01 9.0897132e+01 9.0905118e+01 9.0913104e+01 9.0921091e+01 9.0929077e+01 9.0937063e+01 9.0945049e+01 9.0953035e+01 9.0962279e+01 9.0975798e+01 9.0989318e+01 9.1002837e+01 9.1016356e+01 9.1029876e+01 9.1043395e+01 9.1056915e+01 9.1070434e+01 9.1083954e+01 9.1097473e+01 9.1110992e+01 9.1124512e+01 9.1138031e+01 9.1151551e+01 9.1165070e+01 9.1178589e+01 9.1192109e+01 9.1205628e+01 9.1219148e+01 9.1232667e+01 9.1246187e+01 9.1259706e+01 9.1273225e+01 9.1286745e+01 9.1300264e+01 9.1313784e+01 9.1327303e+01 9.1340822e+01 9.1354342e+01 9.1367861e+01 9.1381381e+01 9.1394900e+01 9.1408420e+01 9.1421939e+01 9.1435458e+01 9.1448978e+01 9.1462497e+01 9.1476017e+01 9.1489536e+01 9.1503055e+01 9.1516575e+01 9.1530094e+01 9.1543614e+01 9.1557133e+01 9.1570653e+01 9.1584172e+01 9.1597691e+01 9.1611211e+01 9.1624730e+01 9.1638250e+01 9.1651769e+01 9.1665288e+01 9.1678808e+01 9.1692327e+01 9.1700102e+01 9.1705414e+01 9.1710727e+01 9.1716040e+01 9.1721352e+01 9.1726665e+01 9.1731977e+01 9.1737290e+01 9.1742602e+01 9.1747915e+01 9.1753228e+01 9.1758540e+01 9.1763853e+01 9.1769165e+01 9.1774478e+01 9.1779790e+01 9.1785103e+01 9.1790415e+01 9.1795728e+01 9.1801041e+01 9.1806353e+01 9.1811666e+01 9.1816978e+01 9.1822291e+01 9.1827603e+01 9.1832916e+01 9.1838229e+01 9.1843541e+01 9.1848854e+01 9.1854166e+01 9.1859479e+01 9.1864791e+01 9.1870104e+01 9.1875416e+01 9.1880729e+01 9.1886042e+01 9.1891354e+01 9.1896667e+01 9.1901979e+01 9.1907292e+01 9.1912604e+01 9.1917917e+01 9.1923230e+01 9.1928542e+01 9.1933855e+01 9.1939167e+01 9.1944480e+01 9.1949792e+01 9.1955105e+01 9.1960418e+01 9.1965730e+01 9.1971043e+01 9.1976355e+01 9.1981668e+01 9.1985866e+01 9.1984724e+01 9.1983583e+01 9.1982442e+01 9.1981301e+01 9.1980159e+01 9.1979018e+01 9.1977877e+01 9.1976736e+01 9.1975595e+01 9.1974453e+01 9.1973312e+01 9.1972171e+01 9.1971030e+01 9.1969888e+01 9.1968747e+01 9.1967606e+01 9.1966465e+01 9.1965323e+01 9.1964182e+01 9.1963041e+01 9.1961900e+01 9.1960759e+01 9.1959617e+01 9.1958476e+01 9.1957335e+01 9.1956194e+01 9.1955052e+01 9.1953911e+01 9.1952770e+01 9.1951629e+01 9.1950487e+01 9.1949346e+01 9.1948205e+01 9.1947064e+01 9.1945923e+01 9.1944781e+01 9.1943640e+01 9.1942499e+01 9.1941358e+01 9.1940216e+01 9.1939075e+01 9.1937934e+01 9.1936793e+01 9.1935651e+01 9.1934510e+01 9.1933369e+01 9.1932228e+01 9.1931087e+01 9.1929945e+01 9.1928804e+01 9.1927663e+01 9.1926522e+01 9.1925380e+01 9.1924239e+01 9.1922904e+01 9.1921463e+01 9.1920022e+01 9.1918581e+01 9.1917140e+01 9.1915699e+01 9.1914258e+01 9.1912817e+01 9.1911375e+01 9.1909934e+01 9.1908493e+01 9.1907052e+01 9.1905611e+01 9.1904170e+01 9.1902729e+01 9.1901288e+01 9.1899847e+01 9.1898405e+01 9.1896964e+01 9.1895523e+01 9.1894082e+01 9.1892641e+01 9.1891200e+01 9.1889759e+01 9.1888318e+01 9.1886877e+01 9.1885435e+01 9.1883994e+01 9.1882553e+01 9.1881112e+01 9.1879671e+01 9.1878230e+01 9.1876789e+01 9.1875348e+01 9.1873907e+01 9.1872465e+01 9.1871024e+01 9.1869583e+01 9.1868142e+01 9.1866701e+01 9.1865260e+01 9.1863819e+01 9.1862378e+01 9.1860937e+01 9.1859495e+01 9.1858054e+01 9.1856613e+01 9.1855172e+01 9.1853731e+01 9.1852290e+01 9.1850849e+01 9.1849408e+01 9.1847967e+01 9.1846525e+01 9.1846033e+01 9.1852622e+01 9.1859211e+01 9.1865800e+01 9.1872389e+01 9.1878978e+01 9.1885566e+01 9.1892155e+01 9.1898744e+01 9.1905333e+01 9.1911922e+01 9.1918511e+01 9.1925099e+01 9.1931688e+01 9.1938277e+01 9.1944866e+01 9.1951455e+01 9.1958044e+01 9.1964633e+01 9.1971221e+01 9.1977810e+01 9.1984399e+01 9.1990988e+01 9.1997577e+01 9.2004166e+01 9.2010754e+01 9.2017343e+01 9.2023932e+01 9.2030521e+01 9.2037110e+01 9.2043699e+01 9.2050288e+01 9.2056876e+01 9.2063465e+01 9.2070054e+01 9.2076643e+01 9.2083232e+01 9.2089821e+01 9.2096409e+01 9.2102998e+01 9.2109587e+01 9.2116176e+01 9.2122765e+01 9.2129354e+01 9.2135943e+01 9.2142531e+01 9.2149120e+01 9.2155709e+01 9.2162298e+01 9.2168887e+01 9.2175476e+01 9.2182064e+01 9.2188653e+01 9.2195242e+01 9.2201831e+01 9.2210283e+01 9.2220024e+01 9.2229766e+01 9.2239507e+01 9.2249249e+01 9.2258990e+01 9.2268732e+01 9.2278473e+01 9.2288215e+01 9.2297956e+01 9.2307698e+01 9.2317439e+01 9.2327181e+01 9.2336922e+01 9.2346664e+01 9.2356405e+01 9.2366147e+01 9.2375888e+01 9.2385630e+01 9.2395371e+01 9.2405113e+01 9.2414854e+01 9.2424596e+01 9.2434337e+01 9.2444078e+01 9.2453820e+01 9.2463561e+01 9.2473303e+01 9.2483044e+01 9.2492786e+01 9.2502527e+01 9.2512269e+01 9.2522010e+01 9.2531752e+01 9.2541493e+01 9.2551235e+01 9.2560976e+01 9.2570718e+01 9.2580459e+01 9.2590201e+01 9.2599942e+01 9.2609684e+01 9.2619425e+01 9.2629167e+01 9.2638908e+01 9.2648650e+01 9.2658391e+01 9.2668133e+01 9.2677874e+01 9.2687616e+01 9.2697357e+01 9.2707099e+01 9.2716840e+01 9.2726582e+01 9.2736670e+01 9.2751859e+01 9.2767048e+01 9.2782238e+01 9.2797427e+01 9.2812616e+01 9.2827806e+01 9.2842995e+01 9.2858184e+01 9.2873374e+01 9.2888563e+01 9.2903752e+01 9.2918942e+01 9.2934131e+01 9.2949320e+01 9.2964510e+01 9.2979699e+01 9.2994888e+01 9.3010078e+01 9.3025267e+01 9.3040456e+01 9.3055646e+01 9.3070835e+01 9.3086024e+01 9.3101213e+01 9.3116403e+01 9.3131592e+01 9.3146781e+01 9.3161971e+01 9.3177160e+01 9.3192349e+01 9.3207539e+01 9.3222728e+01 9.3237917e+01 9.3253107e+01 9.3268296e+01 9.3283485e+01 9.3298675e+01 9.3313864e+01 9.3329053e+01 9.3344243e+01 9.3359432e+01 9.3374621e+01 9.3389811e+01 9.3405000e+01 9.3420189e+01 9.3435378e+01 9.3450568e+01 9.3465757e+01 9.3480946e+01 9.3496136e+01 9.3511325e+01 9.3526514e+01 9.3541704e+01 9.3556893e+01 9.3567077e+01 9.3572935e+01 9.3578793e+01 9.3584651e+01 9.3590509e+01 9.3596367e+01 9.3602225e+01 9.3608084e+01 9.3613942e+01 9.3619800e+01 9.3625658e+01 9.3631516e+01 9.3637374e+01 9.3643232e+01 9.3649090e+01 9.3654948e+01 9.3660806e+01 9.3666664e+01 9.3672522e+01 9.3678380e+01 9.3684238e+01 9.3690096e+01 9.3695954e+01 9.3701812e+01 9.3707670e+01 9.3713528e+01 9.3719386e+01 9.3725244e+01 9.3731102e+01 9.3736960e+01 9.3742818e+01 9.3748676e+01 9.3754534e+01 9.3760392e+01 9.3766250e+01 9.3772108e+01 9.3777966e+01 9.3783824e+01 9.3789682e+01 9.3795540e+01 9.3801398e+01 9.3807256e+01 9.3813114e+01 9.3818972e+01 9.3824830e+01 9.3830688e+01 9.3836546e+01 9.3842404e+01 9.3848262e+01 9.3854120e+01 9.3859978e+01 9.3865836e+01 9.3871694e+01 9.3877552e+01 9.3883411e+01 9.3889309e+01 9.3895207e+01 9.3901105e+01 9.3907003e+01 9.3912901e+01 9.3918800e+01 9.3924698e+01 9.3930596e+01 9.3936494e+01 9.3942392e+01 9.3948290e+01 9.3954188e+01 9.3960087e+01 9.3965985e+01 9.3971883e+01 9.3977781e+01 9.3983679e+01 9.3989577e+01 9.3995476e+01 9.4001374e+01 9.4007272e+01 9.4013170e+01 9.4019068e+01 9.4024966e+01 9.4030864e+01 9.4036763e+01 9.4042661e+01 9.4048559e+01 9.4054457e+01 9.4060355e+01 9.4066253e+01 9.4072152e+01 9.4078050e+01 9.4083948e+01 9.4089846e+01 9.4095744e+01 9.4101642e+01 9.4107540e+01 9.4113439e+01 9.4119337e+01 9.4125235e+01 9.4131133e+01 9.4137031e+01 9.4142929e+01 9.4148827e+01 9.4154726e+01 9.4160624e+01 9.4166522e+01 9.4172420e+01 9.4178318e+01 9.4184216e+01 9.4190115e+01 9.4196013e+01 9.4201911e+01 9.4206956e+01 9.4211083e+01 9.4215210e+01 9.4219336e+01 9.4223463e+01 9.4227590e+01 9.4231717e+01 9.4235844e+01 9.4239971e+01 9.4244098e+01 9.4248225e+01 9.4252352e+01 9.4256479e+01 9.4260606e+01 9.4264733e+01 9.4268860e+01 9.4272987e+01 9.4277114e+01 9.4281241e+01 9.4285368e+01 9.4289495e+01 9.4293622e+01 9.4297749e+01 9.4301876e+01 9.4306002e+01 9.4310129e+01 9.4314256e+01 9.4318383e+01 9.4322510e+01 9.4326637e+01 9.4330764e+01 9.4334891e+01 9.4339018e+01 9.4343145e+01 9.4347272e+01 9.4351399e+01 9.4355526e+01 9.4359653e+01 9.4363780e+01 9.4367907e+01 9.4372034e+01 9.4376161e+01 9.4380288e+01 9.4384415e+01 9.4388542e+01 9.4392668e+01 9.4396795e+01 9.4400922e+01 9.4405049e+01 9.4409176e+01 9.4413303e+01 9.4417430e+01 9.4421557e+01 9.4425684e+01 9.4429811e+01 9.4433938e+01 9.4438065e+01 9.4442192e+01 9.4446319e+01 9.4450446e+01 9.4454573e+01 9.4458700e+01 9.4462827e+01 9.4466954e+01 9.4471081e+01 9.4475208e+01 9.4479334e+01 9.4483461e+01 9.4487588e+01 9.4491715e+01 9.4495842e+01 9.4499969e+01 9.4504096e+01 9.4508223e+01 9.4512350e+01 9.4516477e+01 9.4520604e+01 9.4524731e+01 9.4528858e+01 9.4532985e+01 9.4537112e+01 9.4541239e+01 9.4545366e+01 9.4549493e+01 9.4553620e+01 9.4557747e+01 9.4561874e+01 9.4566000e+01 9.4570127e+01 9.4574254e+01 9.4578381e+01 9.4582508e+01 9.4586635e+01 9.4590762e+01 9.4594889e+01 9.4599016e+01 9.4603143e+01 9.4607270e+01 9.4611397e+01 9.4615524e+01 9.4619651e+01 9.4623778e+01 9.4627905e+01 9.4632032e+01 9.4636159e+01 9.4640286e+01 9.4644413e+01 9.4648540e+01 9.4652666e+01 9.4656793e+01 9.4660920e+01 9.4665047e+01 9.4669174e+01 9.4673301e+01 9.4677428e+01 9.4681555e+01 9.4685682e+01 9.4689809e+01 9.4693936e+01 9.4698063e+01 9.4702190e+01 9.4706317e+01 9.4710444e+01 9.4714571e+01 9.4718698e+01 9.4722825e+01 9.4726952e+01 9.4731079e+01 9.4735206e+01 9.4739332e+01 9.4743459e+01 9.4747586e+01 9.4751713e+01 9.4755840e+01 9.4759967e+01 9.4764094e+01 9.4768221e+01 9.4772348e+01 9.4776475e+01 9.4780602e+01 9.4784729e+01 9.4788856e+01 9.4792983e+01 9.4797110e+01 9.4801237e+01 9.4805364e+01 9.4809491e+01 9.4813618e+01 9.4817745e+01 9.4821872e+01 9.4825998e+01 9.4830125e+01 9.4834252e+01 9.4838379e+01 9.4842506e+01 9.4846633e+01 9.4850760e+01 9.4854887e+01 9.4859014e+01 9.4863141e+01 9.4867268e+01 9.4871395e+01 9.4875522e+01 9.4879649e+01 9.4883776e+01 9.4887903e+01 9.4892030e+01 9.4896157e+01 9.4900284e+01 9.4904411e+01 9.4908538e+01 9.4912664e+01 9.4916791e+01 9.4920918e+01 9.4925045e+01 9.4929172e+01 9.4933299e+01 9.4937426e+01 9.4941553e+01 9.4945680e+01 9.4949807e+01 9.4953934e+01 9.4958061e+01 9.4962188e+01 9.4966315e+01 9.4970442e+01 9.4974569e+01 9.4978696e+01 9.4982823e+01 9.4986950e+01 9.4991077e+01 9.4995204e+01 9.4999330e+01 9.5003457e+01 9.5007584e+01 9.5011711e+01 9.5015838e+01 9.5019965e+01 9.5024092e+01 9.5028219e+01 9.5032346e+01 9.5036473e+01 9.5040600e+01 9.5044727e+01 9.5048854e+01 9.5052981e+01 9.5057108e+01 9.5061235e+01 9.5065362e+01 9.5069489e+01 9.5073616e+01 9.5077743e+01 9.5081870e+01 9.5085996e+01 9.5090123e+01 9.5094250e+01 9.5098377e+01 9.5102504e+01 9.5106631e+01 9.5110758e+01 9.5114885e+01 9.5119012e+01 9.5123139e+01 9.5127266e+01 9.5131393e+01 9.5135520e+01 9.5139647e+01 9.5143774e+01 9.5147901e+01 9.5152028e+01 9.5156155e+01 9.5160282e+01 9.5164409e+01 9.5168536e+01 9.5172662e+01 9.5176789e+01 9.5180916e+01 9.5185043e+01 9.5189170e+01 9.5193297e+01 9.5197424e+01 9.5201551e+01 9.5205678e+01 9.5209805e+01 9.5213932e+01 9.5218059e+01 9.5222186e+01 9.5226313e+01 9.5230440e+01 9.5234567e+01 9.5238694e+01 9.5242821e+01 9.5246948e+01 9.5251075e+01 9.5255202e+01 9.5259328e+01 9.5263455e+01 9.5267582e+01 9.5271709e+01 9.5275836e+01 9.5279963e+01 9.5284090e+01 9.5288217e+01 9.5292344e+01 9.5296471e+01 9.5300598e+01 9.5304725e+01 9.5308852e+01 9.5312979e+01 9.5317106e+01 9.5321233e+01 9.5325360e+01 9.5329487e+01 9.5333614e+01 9.5337741e+01 9.5341868e+01 9.5345994e+01 9.5350121e+01 9.5354248e+01 9.5358375e+01 9.5362502e+01 9.5366629e+01 9.5370756e+01 9.5374883e+01 9.5379010e+01 9.5383137e+01 9.5387264e+01 9.5391391e+01 9.5395518e+01 9.5399645e+01 9.5403772e+01 9.5407899e+01 9.5412026e+01 9.5416153e+01 9.5420280e+01 9.5424407e+01 9.5428534e+01 9.5432660e+01 9.5436787e+01 9.5440914e+01 9.5445041e+01 9.5449168e+01 9.5453295e+01 9.5457422e+01 9.5461549e+01 9.5465676e+01 9.5469803e+01 9.5473930e+01 9.5478057e+01 9.5482184e+01 9.5486311e+01 9.5490438e+01 9.5494565e+01 9.5498692e+01 9.5502819e+01 9.5506946e+01 9.5511073e+01 9.5515200e+01 9.5519326e+01 9.5523453e+01 9.5527580e+01 9.5531707e+01 9.5535834e+01 9.5539961e+01 9.5544088e+01 9.5548215e+01 9.5552342e+01 9.5556469e+01 9.5560596e+01 9.5564723e+01 9.5568850e+01 9.5572977e+01 9.5577104e+01 9.5581231e+01 9.5585358e+01 9.5589485e+01 9.5593612e+01 9.5597739e+01 9.5601866e+01 9.5605992e+01 9.5610119e+01 9.5614246e+01 9.5618373e+01 9.5622500e+01 9.5626627e+01 9.5630754e+01 9.5634881e+01 9.5639008e+01 9.5643135e+01 9.5647262e+01 9.5651389e+01 9.5655516e+01 9.5659643e+01 9.5663770e+01 9.5667897e+01 9.5672024e+01 9.5676151e+01 9.5680278e+01 9.5684405e+01 9.5688532e+01 9.5692658e+01 9.5696785e+01 9.5700912e+01 9.5705039e+01 9.5709166e+01 9.5713293e+01 9.5717420e+01 9.5721547e+01 9.5725674e+01 9.5729801e+01 9.5733928e+01 9.5738055e+01 9.5742182e+01 9.5746309e+01 9.5750436e+01 9.5754563e+01 9.5758690e+01 9.5762817e+01 9.5766944e+01 9.5771071e+01 9.5775198e+01 9.5779324e+01 9.5783451e+01 9.5787578e+01 9.5791705e+01 9.5795832e+01 9.5799959e+01 9.5804086e+01 9.5808213e+01 9.5812340e+01 9.5816467e+01 9.5820594e+01 9.5824721e+01 9.5828848e+01 9.5832975e+01 9.5837102e+01 9.5841229e+01 9.5845356e+01 9.5849483e+01 9.5853610e+01 9.5857737e+01 9.5861864e+01 9.5865990e+01 9.5870117e+01 9.5874244e+01 9.5878371e+01 9.5882498e+01 9.5886625e+01 9.5890752e+01 9.5894879e+01 9.5899006e+01 9.5903133e+01 9.5907260e+01 9.5911387e+01 9.5915514e+01 9.5919641e+01 9.5923768e+01 9.5927895e+01 9.5932022e+01 9.5936149e+01 9.5940276e+01 9.5944403e+01 9.5948530e+01 9.5952656e+01 9.5956783e+01 9.5960910e+01 9.5965037e+01 9.5969164e+01 9.5973291e+01 9.5977418e+01 9.5981545e+01 9.5985672e+01 9.5989799e+01 9.5993926e+01 9.5998053e+01 9.6002180e+01 9.6006307e+01 9.6010434e+01 9.6014561e+01 9.6018688e+01 9.6022815e+01 9.6026942e+01 9.6031069e+01 9.6035196e+01 9.6039322e+01 9.6043449e+01 9.6047576e+01 9.6051703e+01 9.6055830e+01 9.6059957e+01 9.6064084e+01 9.6068211e+01 9.6072338e+01 9.6076465e+01 9.6080592e+01 9.6084719e+01 9.6088846e+01 9.6092973e+01 9.6097100e+01 9.6101227e+01 9.6105354e+01 9.6109481e+01 9.6113608e+01 9.6117735e+01
