0
-0.20477294921875
-0.16357421875
-0.1513671875
-0.1422119140625
-0.1544189453125
-0.18157958984375
-0.172119140625
-0.162353515625
-0.2001953125
-0.24078369140625
-0.27557373046875
-0.31829833984375
-0.33843994140625
-0.29327392578125
-0.208740234375
-0.15594482421875
-0.08270263671875
-0.029296875
-0.06103515625
-0.118408203125
-0.135498046875
-0.1007080078125
-0.06805419921875
-0.07659912109375
-0.1177978515625
-0.155029296875
-0.16448974609375
-0.15716552734375
-0.16571044921875
-0.17791748046875
-0.1702880859375
-0.16357421875
-0.14556884765625
-0.13092041015625
-0.14617919921875
-0.14739990234375
-0.1300048828125
-0.09613037109375
-0.08941650390625
-0.07598876953125
-0.06378173828125
-0.06134033203125
-0.0799560546875
-0.0848388671875
-0.10223388671875
-0.1104736328125
-0.09552001953125
-0.08575439453125
-0.10101318359375
-0.1104736328125
-0.0994873046875
-0.08392333984375
-0.06805419921875
-0.057373046875
-0.05706787109375
-0.05767822265625
-0.0592041015625
-0.06317138671875
-0.0830078125
-0.1226806640625
-0.13885498046875
-0.12451171875
-0.12298583984375
-0.1458740234375
-0.16021728515625
-0.16265869140625
-0.1361083984375
-0.0946044921875
-0.0665283203125
-0.06072998046875
-0.048828125
-0.0592041015625
-0.07080078125
-0.06256103515625
-0.03875732421875
-0.04730224609375
-0.05340576171875
-0.04638671875
-0.0537109375
-0.067138671875
-0.0653076171875
-0.05950927734375
-0.06591796875
-0.115966796875
-0.1556396484375
-0.142822265625
-0.1214599609375
-0.09796142578125
-0.06622314453125
-0.01434326171875
-0.010986328125
-0.01007080078125
-0.01373291015625
-0.02410888671875
-0.03753662109375
-0.054931640625
-0.06317138671875
-0.05218505859375
-0.02471923828125
-0.03082275390625
-0.01800537109375
0.03631591796875
0.07232666015625
0.052490234375
0.01617431640625
-0.00946044921875
-0.03265380859375
-0.04180908203125
-0.0482177734375
-0.057373046875
-0.064697265625
-0.06622314453125
-0.06744384765625
-0.05889892578125
-0.07781982421875
-0.086669921875
-0.06866455078125
-0.054931640625
-0.0457763671875
-0.02532958984375
0.03509521484375
0.0885009765625
0.0946044921875
0.054931640625
0.008544921875
-0.0201416015625
-0.03265380859375
-0.0335693359375
-0.03326416015625
-0.0384521484375
-0.035400390625
-0.02655029296875
-0.01739501953125
0.0177001953125
0.04364013671875
0.03204345703125
0.02197265625
0.04241943359375
0.06622314453125
0.05950927734375
0.04852294921875
0.04241943359375
0.05462646484375
0.08087158203125
0.0933837890625
0.087890625
0.1239013671875
0.18829345703125
0.17669677734375
0.1092529296875
0.079345703125
0.08941650390625
0.12725830078125
0.20111083984375
0.255126953125
0.255126953125
0.24139404296875
0.24017333984375
0.2197265625
0.1885986328125
0.16082763671875
0.1318359375
0.11322021484375
0.10650634765625
0.120849609375
0.1336669921875
0.12969970703125
0.15838623046875
0.20416259765625
0.21392822265625
0.18341064453125
0.16082763671875
0.18890380859375
0.2386474609375
0.29296875
0.26092529296875
0.19439697265625
0.16571044921875
0.1513671875
0.16265869140625
0.1953125
0.21697998046875
0.211181640625
0.21942138671875
0.2197265625
0.2374267578125
0.2520751953125
0.2752685546875
0.26947021484375
0.250244140625
0.23956298828125
0.22430419921875
0.2008056640625
0.1837158203125
0.1708984375
0.1434326171875
0.07965087890625
0.0115966796875
-0.01861572265625
-0.0238037109375
-0.02044677734375
-0.02685546875
-0.00762939453125
0.01129150390625
0.02044677734375
0.035400390625
0.047607421875
0.0390625
0.02227783203125
0.02960205078125
0.028076171875
0.00946044921875
-0.00885009765625
-0.01129150390625
-0.01953125
-0.04852294921875
-0.0701904296875
-0.0592041015625
-0.06134033203125
-0.0604248046875
-0.0262451171875
-0.01373291015625
-0.05157470703125
-0.09765625
-0.11138916015625
-0.14251708984375
-0.17486572265625
-0.17852783203125
-0.13702392578125
-0.069580078125
-0.00396728515625
0.03662109375
0.0408935546875
0.02105712890625
-0.010986328125
-0.02655029296875
-0.0457763671875
-0.0567626953125
-0.07781982421875
-0.0677490234375
-0.05401611328125
-0.06256103515625
-0.08758544921875
-0.115966796875
-0.12725830078125
-0.0921630859375
-0.0311279296875
-0.01739501953125
-0.04730224609375
-0.0689697265625
-0.05950927734375
-0.04364013671875
-0.0347900390625
-0.032958984375
-0.0390625
-0.0469970703125
-0.040283203125
-0.03204345703125
-0.0360107421875
-0.05096435546875
-0.0482177734375
-0.040283203125
-0.05615234375
-0.08880615234375
-0.101318359375
-0.0921630859375
-0.08331298828125
-0.07568359375
-0.0726318359375
-0.0335693359375
0.0201416015625
0.03662109375
-0.00244140625
-0.0482177734375
-0.09307861328125
-0.1123046875
-0.0958251953125
-0.09613037109375
-0.1153564453125
-0.16998291015625
-0.242919921875
-0.30120849609375
-0.33599853515625
-0.34393310546875
-0.3350830078125
-0.32806396484375
-0.31219482421875
-0.302734375
-0.303955078125
-0.31097412109375
-0.3265380859375
-0.33172607421875
-0.32562255859375
-0.28167724609375
-0.21636962890625
-0.12786865234375
-0.01556396484375
0.11077880859375
0.26336669921875
0.450439453125
0.63385009765625
0.8184814453125
1.011962890625
1.25
1.5130615234375
1.8231201171875
2.17681884765625
2.52288818359375
2.8173828125
3.05145263671875
3.2440185546875
3.3734130859375
3.45611572265625
3.5418701171875
3.6248779296875
3.646240234375
3.59710693359375
3.45794677734375
3.25592041015625
2.99591064453125
2.74566650390625
2.5262451171875
2.2998046875
2.06390380859375
1.80694580078125
1.502685546875
1.18316650390625
0.89996337890625
0.69305419921875
0.54718017578125
0.36163330078125
0.167236328125
0.05950927734375
0.04058837890625
0.0689697265625
0.11383056640625
0.1605224609375
0.17578125
0.17364501953125
0.18646240234375
0.20416259765625
0.21881103515625
0.2130126953125
0.18890380859375
0.1605224609375
0.14129638671875
0.1312255859375
0.12908935546875
0.1434326171875
0.16754150390625
0.181884765625
0.1678466796875
0.14739990234375
0.1507568359375
0.15594482421875
0.12603759765625
0.0689697265625
0.010986328125
-0.0128173828125
-0.0103759765625
-0.0048828125
0.0006103515625
0.01251220703125
0.03082275390625
0.028076171875
0.0201416015625
0.0128173828125
0.0103759765625
-0.0018310546875
-0.00885009765625
-0.006103515625
-0.00946044921875
-0.0128173828125
-0.00762939453125
-0.0030517578125
-0.0140380859375
-0.029296875
-0.0433349609375
-0.0469970703125
-0.04486083984375
-0.03143310546875
-0.02410888671875
-0.0128173828125
-0.00335693359375
-0.013427734375
-0.008544921875
-0.0018310546875
-0.01220703125
-0.01678466796875
-0.02105712890625
-0.01861572265625
-0.0274658203125
-0.0494384765625
-0.08453369140625
-0.12451171875
-0.15533447265625
-0.1531982421875
-0.1141357421875
-0.05767822265625
0.0018310546875
0.0750732421875
0.09979248046875
0.0946044921875
0.09307861328125
0.08941650390625
0.0628662109375
0.037841796875
0.0140380859375
0.01251220703125
0.0494384765625
0.052490234375
0.0457763671875
0.03204345703125
0.0091552734375
-0.00701904296875
-0.01739501953125
-0.00274658203125
0.0445556640625
0.09063720703125
0.079345703125
0.0469970703125
0.023193359375
0.008544921875
0.00335693359375
0.015869140625
0.0469970703125
0.08270263671875
0.06683349609375
0.054931640625
0.04547119140625
0.0421142578125
0.04058837890625
0.0494384765625
0.07415771484375
0.1025390625
0.12115478515625
0.10986328125
0.106201171875
0.13519287109375
0.15380859375
0.1318359375
0.09490966796875
0.078125
0.0738525390625
0.074462890625
0.08514404296875
0.1116943359375
0.13824462890625
0.14373779296875
0.14251708984375
0.14251708984375
0.13641357421875
0.1129150390625
0.11810302734375
0.1385498046875
0.14312744140625
0.14862060546875
0.16326904296875
0.1544189453125
0.14404296875
0.1336669921875
0.13214111328125
0.13946533203125
0.16082763671875
0.18035888671875
0.19195556640625
0.22125244140625
0.2587890625
0.27008056640625
0.252685546875
0.23773193359375
0.24017333984375
0.245361328125
0.24200439453125
0.2197265625
0.2001953125
0.18890380859375
0.16387939453125
0.130615234375
0.1214599609375
0.18829345703125
0.25970458984375
0.29052734375
0.30914306640625
0.29266357421875
0.2703857421875
0.299072265625
0.35736083984375
0.419921875
0.4364013671875
0.41595458984375
0.37445068359375
0.34454345703125
0.34698486328125
0.35858154296875
0.3558349609375
0.33966064453125
0.3314208984375
0.35003662109375
0.38421630859375
0.39764404296875
0.3961181640625
0.41839599609375
0.469970703125
0.52337646484375
0.51513671875
0.518798828125
0.5126953125
0.4913330078125
0.43670654296875
0.38787841796875
0.37139892578125
0.4034423828125
0.474853515625
0.5670166015625
0.6463623046875
0.6658935546875
0.638427734375
0.62042236328125
0.60272216796875
0.604248046875
0.6298828125
0.66925048828125
0.7098388671875
0.68756103515625
0.64910888671875
0.6231689453125
0.61431884765625
0.63812255859375
0.660400390625
0.6591796875
0.67047119140625
0.7110595703125
0.7647705078125
0.802001953125
0.79498291015625
0.78948974609375
0.8099365234375
0.82550048828125
0.823974609375
0.833740234375
0.82000732421875
0.8038330078125
0.79803466796875
0.81634521484375
0.82489013671875
0.8184814453125
0.802001953125
0.78887939453125
0.8111572265625
0.83251953125
0.84136962890625
0.86090087890625
0.90118408203125
0.936279296875
0.94970703125
0.93597412109375
0.90972900390625
0.8746337890625
0.8367919921875
0.82733154296875
0.83892822265625
0.84014892578125
0.84259033203125
0.8428955078125
0.81756591796875
0.78826904296875
0.77484130859375
0.748291015625
0.7073974609375
0.67840576171875
0.66375732421875
0.648193359375
0.61553955078125
0.552978515625
0.50079345703125
0.48126220703125
0.47515869140625
0.48431396484375
0.504150390625
0.50933837890625
0.46844482421875
0.38848876953125
0.3271484375
0.30853271484375
0.30853271484375
0.27740478515625
0.22735595703125
0.17974853515625
0.146484375
0.12176513671875
0.11993408203125
0.13946533203125
0.15106201171875
0.140380859375
0.09033203125
0.0347900390625
-0.0030517578125
-0.04058837890625
-0.0433349609375
-0.03875732421875
-0.0189208984375
0.01617431640625
0.01678466796875
0.00335693359375
-0.00885009765625
-0.04425048828125
-0.079345703125
-0.08697509765625
-0.0909423828125
-0.12176513671875
-0.15594482421875
-0.1904296875
-0.213623046875
-0.2093505859375
-0.20721435546875
-0.208740234375
-0.20355224609375
-0.18524169921875
-0.16571044921875
-0.15960693359375
-0.17608642578125
-0.1708984375
-0.14923095703125
-0.14556884765625
-0.1702880859375
-0.19866943359375
-0.21087646484375
-0.1934814453125
-0.179443359375
-0.19195556640625
-0.19195556640625
-0.1788330078125
-0.16998291015625
-0.1544189453125
-0.1507568359375
-0.1806640625
-0.23712158203125
-0.29449462890625
-0.31707763671875
-0.2777099609375
-0.22247314453125
-0.18218994140625
-0.17242431640625
-0.15777587890625
-0.150146484375
-0.14923095703125
-0.1605224609375
-0.17791748046875
-0.19866943359375
-0.2093505859375
-0.20782470703125
-0.205078125
-0.21240234375
-0.21636962890625
-0.21759033203125
-0.19866943359375
-0.17242431640625
-0.15472412109375
-0.14007568359375
-0.17578125
-0.20721435546875
-0.20355224609375
-0.15960693359375
-0.14495849609375
-0.1812744140625
-0.21728515625
-0.2349853515625
-0.23284912109375
-0.20660400390625
-0.19805908203125
-0.2081298828125
-0.21484375
-0.19134521484375
-0.16448974609375
-0.157470703125
-0.1739501953125
-0.172119140625
-0.16571044921875
-0.1666259765625
-0.1885986328125
-0.2069091796875
-0.18341064453125
-0.12786865234375
-0.10955810546875
-0.1373291015625
-0.16937255859375
-0.1922607421875
-0.1971435546875
-0.1953125
-0.18798828125
-0.18646240234375
-0.15777587890625
-0.1580810546875
-0.1788330078125
-0.194091796875
-0.1800537109375
-0.14312744140625
-0.13275146484375
-0.14801025390625
-0.16448974609375
-0.1593017578125
-0.1483154296875
-0.14434814453125
-0.14801025390625
-0.14739990234375
-0.14801025390625
-0.1556396484375
-0.16998291015625
-0.19012451171875
-0.18157958984375
-0.155029296875
-0.14129638671875
-0.13336181640625
-0.12908935546875
-0.15289306640625
-0.18707275390625
-0.19439697265625
-0.18829345703125
-0.17120361328125
-0.13916015625
-0.09063720703125
-0.07965087890625
-0.09918212890625
-0.108642578125
-0.09918212890625
-0.103759765625
-0.14556884765625
-0.1959228515625
-0.21209716796875
-0.201416015625
-0.1824951171875
-0.1715087890625
-0.16265869140625
-0.15045166015625
-0.10894775390625
-0.0665283203125
-0.06622314453125
-0.06103515625
-0.06805419921875
-0.10162353515625
-0.14190673828125
-0.15960693359375
-0.1641845703125
-0.1629638671875
-0.15472412109375
-0.1361083984375
-0.13275146484375
-0.133056640625
-0.13641357421875
-0.11138916015625
-0.0848388671875
-0.087890625
-0.10223388671875
-0.1055908203125
-0.1007080078125
-0.0872802734375
-0.06561279296875
-0.07598876953125
-0.115966796875
-0.16143798828125
-0.1715087890625
-0.13458251953125
-0.0689697265625
-0.0469970703125
-0.08941650390625
-0.10986328125
-0.10345458984375
-0.103759765625
-0.081787109375
-0.03936767578125
-0.05035400390625
-0.07781982421875
-0.07537841796875
-0.08087158203125
-0.09429931640625
-0.10040283203125
-0.0775146484375
-0.0494384765625
-0.03814697265625
-0.0360107421875
-0.03204345703125
-0.02349853515625
-0.0115966796875
-0.00640869140625
0.02960205078125
0.0775146484375
0.08880615234375
0.09613037109375
0.1336669921875
0.17822265625
0.19134521484375
0.1763916015625
0.14892578125
0.11016845703125
0.09063720703125
0.08544921875
0.09063720703125
0.1007080078125
0.107421875
0.1153564453125
0.1275634765625
0.13916015625
0.1629638671875
0.19012451171875
0.184326171875
0.1708984375
0.1605224609375
0.14678955078125
0.12451171875
0.111083984375
0.13214111328125
0.13214111328125
0.14068603515625
0.15594482421875
0.18341064453125
0.22979736328125
0.22613525390625
0.20904541015625
0.20172119140625
0.22247314453125
0.2264404296875
0.216064453125
0.184326171875
0.15472412109375
0.15899658203125
0.17822265625
0.1922607421875
0.19622802734375
0.1995849609375
0.23590087890625
0.283203125
0.2740478515625
0.24749755859375
0.21209716796875
0.1812744140625
0.16998291015625
0.13885498046875
0.07293701171875
0.01190185546875
-0.03173828125
-0.0567626953125
-0.04913330078125
-0.01373291015625
0.0
-0.01495361328125
-0.00335693359375
0.030517578125
0.02685546875
-0.00640869140625
-0.003662109375
0.0262451171875
0.013427734375
-0.01129150390625
-0.0311279296875
-0.04791259765625
-0.06805419921875
-0.09552001953125
-0.11138916015625
-0.11077880859375
-0.1123046875
-0.11444091796875
-0.11077880859375
-0.10467529296875
-0.0830078125
-0.07598876953125
-0.09002685546875
-0.11627197265625
-0.135498046875
-0.1434326171875
-0.1324462890625
-0.11962890625
-0.10833740234375
-0.11810302734375
-0.16326904296875
-0.19683837890625
-0.20111083984375
-0.205078125
-0.211181640625
-0.20843505859375
-0.19195556640625
-0.17547607421875
-0.1226806640625
-0.0860595703125
-0.11383056640625
-0.1263427734375
-0.13763427734375
-0.1483154296875
-0.17364501953125
-0.1983642578125
-0.19287109375
-0.1873779296875
-0.19927978515625
-0.19927978515625
-0.19744873046875
-0.1947021484375
-0.189208984375
-0.159912109375
-0.13702392578125
-0.13336181640625
-0.12847900390625
-0.11138916015625
-0.09552001953125
-0.0994873046875
-0.1019287109375
-0.11138916015625
-0.12664794921875
-0.13519287109375
-0.14495849609375
-0.15655517578125
-0.167236328125
-0.17608642578125
-0.17852783203125
-0.16876220703125
-0.15838623046875
-0.15411376953125
-0.1495361328125
-0.1483154296875
-0.16082763671875
-0.17730712890625
-0.21240234375
-0.25177001953125
-0.27130126953125
-0.2838134765625
-0.34088134765625
-0.39337158203125
-0.4266357421875
-0.45623779296875
-0.482177734375
-0.5010986328125
-0.5078125
-0.4888916015625
-0.45867919921875
-0.4541015625
-0.430908203125
-0.39093017578125
-0.35247802734375
-0.28594970703125
-0.2044677734375
-0.08819580078125
0.06439208984375
0.23651123046875
0.479736328125
0.75164794921875
0.97320556640625
1.16485595703125
1.4263916015625
1.7535400390625
2.0703125
2.37823486328125
2.647705078125
2.90130615234375
3.14422607421875
3.338623046875
3.47930908203125
3.54766845703125
3.57574462890625
3.61297607421875
3.61602783203125
3.54705810546875
3.39508056640625
3.1817626953125
2.90924072265625
2.5994873046875
2.26959228515625
1.96868896484375
1.71722412109375
1.45477294921875
1.1810302734375
0.91888427734375
0.72418212890625
0.62713623046875
0.5328369140625
0.4315185546875
0.355224609375
0.286865234375
0.2215576171875
0.155029296875
0.10406494140625
0.1007080078125
0.125732421875
0.120849609375
0.13824462890625
0.1739501953125
0.1715087890625
0.17486572265625
0.18646240234375
0.1861572265625
0.1690673828125
0.13641357421875
0.106201171875
0.07476806640625
0.0531005859375
0.03936767578125
0.02838134765625
0.02655029296875
0.02899169921875
0.01861572265625
-0.0079345703125
-0.0299072265625
-0.03997802734375
-0.04638671875
-0.04364013671875
-0.04791259765625
-0.07965087890625
-0.0958251953125
-0.0787353515625
-0.07843017578125
-0.09918212890625
-0.11077880859375
-0.11810302734375
-0.1177978515625
-0.11566162109375
-0.11871337890625
-0.128173828125
-0.12298583984375
-0.1177978515625
-0.11383056640625
-0.10406494140625
-0.1043701171875
-0.086669921875
-0.07293701171875
-0.07080078125
-0.0714111328125
-0.087890625
-0.10223388671875
-0.120849609375
-0.13458251953125
-0.1611328125
-0.20782470703125
-0.24078369140625
-0.22735595703125
-0.1849365234375
-0.1239013671875
-0.03265380859375
0.0390625
0.02227783203125
-0.02960205078125
-0.04364013671875
-0.02532958984375
-0.0042724609375
-0.0140380859375
-0.0396728515625
-0.07110595703125
-0.0775146484375
-0.0506591796875
-0.04974365234375
-0.0726318359375
-0.09521484375
-0.09735107421875
-0.0799560546875
-0.0628662109375
-0.05828857421875
-0.06500244140625
-0.0604248046875
-0.0439453125
-0.0274658203125
-0.0347900390625
-0.059814453125
-0.096435546875
-0.10833740234375
-0.0927734375
-0.04241943359375
0.0079345703125
0.0537109375
0.08148193359375
0.0555419921875
0.0225830078125
0.01739501953125
0.02349853515625
0.0262451171875
0.01708984375
0.0079345703125
0.0006103515625
-0.01556396484375
-0.0299072265625
-0.01556396484375
-0.00885009765625
-0.02777099609375
-0.03204345703125
-0.01373291015625
0.02105712890625
0.074462890625
0.10772705078125
0.11138916015625
0.1025390625
0.09735107421875
0.09613037109375
0.079345703125
0.08209228515625
0.0775146484375
0.06195068359375
0.04547119140625
0.0543212890625
0.0836181640625
0.1092529296875
0.11932373046875
0.09613037109375
0.08209228515625
0.08056640625
0.0762939453125
0.09613037109375
0.11871337890625
0.140380859375
0.1397705078125
0.12420654296875
0.12725830078125
0.137939453125
0.12939453125
0.1275634765625
0.11474609375
0.1104736328125
0.1019287109375
0.0970458984375
0.09918212890625
0.120849609375
0.16143798828125
0.1971435546875
0.20538330078125
0.18646240234375
0.16693115234375
0.17608642578125
0.1922607421875
0.1995849609375
0.19805908203125
0.2032470703125
0.2252197265625
0.23468017578125
0.20904541015625
0.17578125
0.1806640625
0.2056884765625
0.2362060546875
0.2447509765625
0.27008056640625
0.31158447265625
0.36041259765625
0.37322998046875
0.34881591796875
0.3118896484375
0.26214599609375
0.223388671875
0.21270751953125
0.19775390625
0.2056884765625
0.2532958984375
0.30853271484375
0.33843994140625
0.38177490234375
0.44403076171875
0.47393798828125
0.50445556640625
0.526123046875
0.5279541015625
0.5126953125
0.517578125
0.52825927734375
0.5169677734375
0.48797607421875
0.496826171875
0.5377197265625
0.56671142578125
0.57220458984375
0.56182861328125
0.56793212890625
0.59722900390625
0.63079833984375
0.623779296875
0.6256103515625
0.64727783203125
0.6640625
0.65887451171875
0.65216064453125
0.65216064453125
0.648193359375
0.64849853515625
0.6512451171875
0.65460205078125
0.66375732421875
0.67901611328125
0.7073974609375
0.73211669921875
0.74676513671875
0.73577880859375
0.726318359375
0.73883056640625
0.76019287109375
0.79376220703125
0.81695556640625
0.81298828125
0.7861328125
0.75836181640625
0.74920654296875
0.73822021484375
0.72540283203125
0.7318115234375
0.74676513671875
0.7598876953125
0.76629638671875
0.77056884765625
0.75286865234375
0.73822021484375
0.7373046875
0.74249267578125
0.7391357421875
0.73150634765625
0.72540283203125
0.70068359375
0.67230224609375
0.65948486328125
0.62744140625
0.584716796875
0.5438232421875
0.50994873046875
0.4638671875
0.43731689453125
0.44891357421875
0.4315185546875
0.3790283203125
0.3558349609375
0.35003662109375
0.34881591796875
0.33843994140625
0.32867431640625
0.29144287109375
0.2313232421875
0.16265869140625
0.13275146484375
0.13519287109375
0.150146484375
0.142822265625
0.09765625
0.04852294921875
0.00732421875
-0.0250244140625
-0.01953125
0.02044677734375
0.05523681640625
0.04058837890625
0.03631591796875
0.0360107421875
0.02532958984375
-0.013427734375
-0.05279541015625
-0.09613037109375
-0.1312255859375
-0.140380859375
-0.1458740234375
-0.1531982421875
-0.16021728515625
-0.16815185546875
-0.1739501953125
-0.17730712890625
-0.19287109375
-0.21484375
-0.23651123046875
-0.25787353515625
-0.26763916015625
-0.2545166015625
-0.2459716796875
-0.23529052734375
-0.22552490234375
-0.21331787109375
-0.194091796875
-0.20263671875
-0.20660400390625
-0.1898193359375
-0.2044677734375
-0.220947265625
-0.21026611328125
-0.17120361328125
-0.1751708984375
-0.22735595703125
-0.2484130859375
-0.25177001953125
-0.264892578125
-0.2630615234375
-0.24993896484375
-0.24993896484375
-0.23162841796875
-0.23681640625
-0.26611328125
-0.2740478515625
-0.247802734375
-0.2227783203125
-0.208740234375
-0.21759033203125
-0.23193359375
-0.2386474609375
-0.23529052734375
-0.2398681640625
-0.24322509765625
-0.2423095703125
-0.2410888671875
-0.23101806640625
-0.22979736328125
-0.235595703125
-0.238037109375
-0.2325439453125
-0.22796630859375
-0.22857666015625
-0.21240234375
-0.19866943359375
-0.189208984375
-0.17547607421875
-0.17730712890625
-0.18096923828125
-0.18768310546875
-0.198974609375
-0.21514892578125
-0.2447509765625
-0.263671875
-0.26214599609375
-0.24688720703125
-0.24322509765625
-0.244140625
-0.23834228515625
-0.24444580078125
-0.24993896484375
-0.23773193359375
-0.20721435546875
-0.1898193359375
-0.18157958984375
-0.1739501953125
-0.19012451171875
-0.2093505859375
-0.20782470703125
-0.1861572265625
-0.18157958984375
-0.19805908203125
-0.21453857421875
-0.2166748046875
-0.1959228515625
-0.18463134765625
-0.19134521484375
-0.19500732421875
-0.18768310546875
-0.17059326171875
-0.1556396484375
-0.14984130859375
-0.1544189453125
-0.14373779296875
-0.11138916015625
-0.1080322265625
-0.13092041015625
-0.15838623046875
-0.155029296875
-0.13427734375
-0.1275634765625
-0.12359619140625
-0.1239013671875
-0.12176513671875
-0.11138916015625
-0.10040283203125
-0.09918212890625
-0.11444091796875
-0.13153076171875
-0.1416015625
-0.150146484375
-0.1495361328125
-0.1495361328125
-0.15533447265625
-0.16876220703125
-0.17303466796875
-0.16693115234375
-0.16510009765625
-0.16326904296875
-0.16845703125
-0.1617431640625
-0.1300048828125
-0.1129150390625
-0.11688232421875
-0.1220703125
-0.1007080078125
-0.087890625
-0.1116943359375
-0.140380859375
-0.1617431640625
-0.16845703125
-0.15228271484375
-0.1092529296875
-0.096435546875
-0.107421875
-0.10986328125
-0.113525390625
-0.12237548828125
-0.12542724609375
-0.1324462890625
-0.15869140625
-0.17242431640625
-0.1715087890625
-0.16204833984375
-0.1544189453125
-0.152587890625
-0.12969970703125
-0.08148193359375
-0.07354736328125
-0.08819580078125
-0.084228515625
-0.08270263671875
-0.0933837890625
-0.0970458984375
-0.0982666015625
-0.10467529296875
-0.111083984375
-0.1165771484375
-0.1226806640625
-0.1263427734375
-0.103759765625
-0.07965087890625
-0.08880615234375
-0.1025390625
-0.10467529296875
-0.1104736328125
-0.115966796875
-0.11688232421875
-0.1220703125
-0.1226806640625
-0.09918212890625
-0.0518798828125
-0.0579833984375
-0.10101318359375
-0.11505126953125
-0.10955810546875
-0.11962890625
-0.1324462890625
-0.123291015625
-0.1055908203125
-0.076904296875
-0.05157470703125
-0.0177001953125
0.0006103515625
0.01434326171875
0.03387451171875
0.08087158203125
0.11260986328125
0.11566162109375
0.10284423828125
0.12298583984375
0.18585205078125
0.2191162109375
0.194091796875
0.14312744140625
0.12176513671875
0.1263427734375
0.13885498046875
0.128173828125
0.10498046875
0.08758544921875
0.096435546875
0.1348876953125
0.1666259765625
0.1690673828125
0.150146484375
0.1470947265625
0.17059326171875
0.1995849609375
0.22674560546875
0.216064453125
0.18157958984375
0.1446533203125
0.12664794921875
0.12939453125
0.13641357421875
0.14495849609375
0.1824951171875
0.22003173828125
0.2325439453125
0.21820068359375
0.19195556640625
0.185546875
0.17974853515625
0.1788330078125
0.19317626953125
0.20904541015625
0.23529052734375
0.24322509765625
0.238037109375
0.22308349609375
0.198974609375
0.16754150390625
0.1251220703125
0.098876953125
0.1129150390625
0.13092041015625
0.12908935546875
0.11627197265625
0.10528564453125
0.07293701171875
0.02899169921875
-0.00732421875
-0.03631591796875
-0.05950927734375
-0.07232666015625
-0.047607421875
-0.029296875
-0.0079345703125
0.02593994140625
0.02593994140625
0.0189208984375
0.01678466796875
0.00885009765625
-0.013427734375
-0.03143310546875
-0.04638671875
-0.05157470703125
-0.05706787109375
-0.076904296875
-0.096435546875
-0.103759765625
-0.118408203125
-0.14404296875
-0.157470703125
-0.1605224609375
-0.17181396484375
-0.1702880859375
-0.1495361328125
-0.12847900390625
-0.11749267578125
-0.0927734375
-0.0982666015625
-0.1092529296875
-0.1080322265625
-0.10528564453125
-0.1226806640625
-0.1483154296875
-0.16693115234375
-0.17913818359375
-0.1885986328125
-0.19256591796875
-0.1861572265625
-0.1641845703125
-0.15289306640625
-0.15655517578125
-0.16021728515625
-0.155029296875
-0.150146484375
-0.15167236328125
-0.14190673828125
-0.12939453125
-0.13031005859375
-0.14251708984375
-0.15289306640625
-0.15655517578125
-0.17486572265625
-0.19683837890625
-0.2093505859375
-0.1922607421875
-0.13702392578125
-0.08544921875
-0.0799560546875
-0.07904052734375
-0.0799560546875
-0.09613037109375
-0.10223388671875
-0.115966796875
-0.12786865234375
-0.12176513671875
-0.08270263671875
-0.07568359375
-0.1068115234375
-0.12451171875
-0.11962890625
-0.12481689453125
-0.1385498046875
-0.1531982421875
-0.1556396484375
-0.17303466796875
-0.20782470703125
-0.24444580078125
-0.264892578125
-0.29449462890625
-0.36285400390625
-0.42633056640625
-0.47271728515625
-0.49468994140625
-0.51910400390625
-0.5133056640625
-0.46051025390625
-0.394287109375
-0.3570556640625
-0.36895751953125
-0.37353515625
-0.33905029296875
-0.269775390625
-0.17578125
-0.06317138671875
0.06134033203125
0.20660400390625
0.39520263671875
0.6146240234375
0.83099365234375
1.05194091796875
1.3348388671875
1.7022705078125
2.05169677734375
2.35687255859375
2.64007568359375
2.9107666015625
3.1304931640625
3.33221435546875
3.47625732421875
3.564453125
3.63037109375
3.6737060546875
3.6517333984375
3.55133056640625
3.3709716796875
3.13873291015625
2.85064697265625
2.55859375
2.2467041015625
1.92718505859375
1.63909912109375
1.395263671875
1.1376953125
0.90972900390625
0.7366943359375
0.62530517578125
0.565185546875
0.4931640625
0.41534423828125
0.347900390625
0.2978515625
0.250244140625
0.2056884765625
0.1788330078125
0.146484375
0.11444091796875
0.108642578125
0.10162353515625
0.09368896484375
0.13671875
0.19195556640625
0.198974609375
0.17333984375
0.13824462890625
0.1019287109375
0.05889892578125
0.025634765625
0.00213623046875
-0.02777099609375
-0.03173828125
-0.01373291015625
0.03021240234375
0.0567626953125
0.03448486328125
-0.00946044921875
-0.04486083984375
-0.05035400390625
-0.05889892578125
-0.06988525390625
-0.0909423828125
-0.10955810546875
-0.0909423828125
-0.081787109375
-0.091552734375
-0.12298583984375
-0.15655517578125
-0.1202392578125
-0.07049560546875
-0.0555419921875
-0.0445556640625
-0.010986328125
-0.01068115234375
-0.05828857421875
-0.101318359375
-0.106201171875
-0.091552734375
-0.054931640625
-0.03448486328125
-0.05157470703125
-0.076904296875
-0.108642578125
-0.12908935546875
-0.13031005859375
-0.13397216796875
-0.1348876953125
-0.11383056640625
-0.08544921875
-0.0750732421875
-0.08148193359375
-0.09765625
-0.11474609375
-0.10986328125
-0.0933837890625
-0.07293701171875
-0.06256103515625
-0.067138671875
-0.0823974609375
-0.10101318359375
-0.09063720703125
-0.064697265625
-0.05950927734375
-0.0726318359375
-0.07904052734375
-0.084228515625
-0.08392333984375
-0.0616455078125
-0.02838134765625
0.00457763671875
0.03082275390625
0.04547119140625
0.040283203125
0.0360107421875
0.0360107421875
0.02593994140625
0.00213623046875
-0.00274658203125
-0.01861572265625
-0.0262451171875
-0.03448486328125
-0.0469970703125
-0.03753662109375
-0.00885009765625
0.01495361328125
0.03143310546875
0.04180908203125
0.0445556640625
0.0482177734375
0.0482177734375
0.040283203125
0.02349853515625
0.0067138671875
-0.00091552734375
-0.00396728515625
0.00213623046875
0.0152587890625
0.01495361328125
0.02716064453125
0.06500244140625
0.07110595703125
0.062255859375
0.057373046875
0.0677490234375
0.0848388671875
0.09246826171875
0.0604248046875
0.02899169921875
0.0262451171875
0.05523681640625
0.0848388671875
0.08880615234375
0.09033203125
0.09613037109375
0.08209228515625
0.07293701171875
0.09002685546875
0.1214599609375
0.125732421875
0.09765625
0.09613037109375
0.12451171875
0.14434814453125
0.14739990234375
0.14434814453125
0.172119140625
0.20233154296875
0.1934814453125
0.16937255859375
0.15289306640625
0.1678466796875
0.174560546875
0.17852783203125
0.1971435546875
0.21484375
0.2227783203125
0.2166748046875
0.20843505859375
0.2044677734375
0.203857421875
0.20477294921875
0.21728515625
0.22430419921875
0.20477294921875
0.1983642578125
0.228271484375
0.25543212890625
0.27862548828125
0.2862548828125
0.279541015625
0.29022216796875
0.3192138671875
0.33538818359375
0.34942626953125
0.355224609375
0.34576416015625
0.33538818359375
0.31646728515625
0.31646728515625
0.31402587890625
0.2947998046875
0.2862548828125
0.2862548828125
0.306396484375
0.360107421875
0.4150390625
0.44036865234375
0.462646484375
0.48553466796875
0.517578125
0.562744140625
0.5682373046875
0.53497314453125
0.50811767578125
0.5084228515625
0.53497314453125
0.54351806640625
0.53924560546875
0.54534912109375
0.579833984375
0.61767578125
0.62469482421875
0.606689453125
0.60089111328125
0.60699462890625
0.61553955078125
0.62835693359375
0.6304931640625
0.6341552734375
0.6427001953125
0.645751953125
0.65765380859375
0.6536865234375
0.64239501953125
0.6591796875
0.67962646484375
0.67901611328125
0.6634521484375
0.70220947265625
0.7501220703125
0.75531005859375
0.73394775390625
0.73028564453125
0.73883056640625
0.74676513671875
0.75042724609375
0.7537841796875
0.7659912109375
0.77972412109375
0.7745361328125
0.7562255859375
0.75408935546875
0.75469970703125
0.7415771484375
0.72052001953125
0.71136474609375
0.70953369140625
0.7086181640625
0.72113037109375
0.73638916015625
0.74462890625
0.7403564453125
0.73455810546875
0.68572998046875
0.62744140625
0.616455078125
0.64453125
0.6561279296875
0.61737060546875
0.54107666015625
0.47393798828125
0.421142578125
0.39276123046875
0.39031982421875
0.389404296875
0.3802490234375
0.38848876953125
0.39794921875
0.3936767578125
0.3741455078125
0.3369140625
0.29296875
0.24627685546875
0.20599365234375
0.1708984375
0.120849609375
0.0872802734375
0.08087158203125
0.08087158203125
0.0634765625
0.05279541015625
0.03753662109375
0.0445556640625
0.042724609375
0.0299072265625
0.01312255859375
0.00030517578125
0.0079345703125
0.00396728515625
-0.0518798828125
-0.101318359375
-0.1239013671875
-0.11383056640625
-0.10223388671875
-0.1043701171875
-0.10772705078125
-0.09918212890625
-0.0982666015625
-0.1165771484375
-0.135498046875
-0.157470703125
-0.18768310546875
-0.18829345703125
-0.17669677734375
-0.17730712890625
-0.16815185546875
-0.14312744140625
-0.12420654296875
-0.1397705078125
-0.17730712890625
-0.216064453125
-0.2301025390625
-0.21270751953125
-0.1776123046875
-0.14251708984375
-0.14862060546875
-0.17181396484375
-0.177001953125
-0.18524169921875
-0.1861572265625
-0.18798828125
-0.2056884765625
-0.22613525390625
-0.235595703125
-0.23193359375
-0.220947265625
-0.205078125
-0.18951416015625
-0.17852783203125
-0.18310546875
-0.19317626953125
-0.1898193359375
-0.19195556640625
-0.19683837890625
-0.1885986328125
-0.18646240234375
-0.1934814453125
-0.18096923828125
-0.17486572265625
-0.19317626953125
-0.2215576171875
-0.22979736328125
-0.21575927734375
-0.20233154296875
-0.1959228515625
-0.1947021484375
-0.1885986328125
-0.1885986328125
-0.18096923828125
-0.1446533203125
-0.1080322265625
-0.12786865234375
-0.17578125
-0.21026611328125
-0.22003173828125
-0.22216796875
-0.19622802734375
-0.1776123046875
-0.16937255859375
-0.14495849609375
-0.11077880859375
-0.1031494140625
-0.120849609375
-0.15350341796875
-0.14556884765625
-0.10406494140625
-0.08880615234375
-0.09033203125
-0.09918212890625
-0.118408203125
-0.13641357421875
-0.13916015625
-0.13916015625
-0.14892578125
-0.16571044921875
-0.1763916015625
-0.16571044921875
-0.1446533203125
-0.13031005859375
-0.12939453125
-0.13916015625
-0.1446533203125
-0.14068603515625
-0.13427734375
-0.1318359375
-0.13214111328125
-0.137939453125
-0.13916015625
-0.1251220703125
-0.12176513671875
-0.11566162109375
-0.10955810546875
-0.11505126953125
-0.1361083984375
-0.15106201171875
-0.16265869140625
-0.166015625
-0.14373779296875
-0.14190673828125
-0.15472412109375
-0.15777587890625
-0.14404296875
-0.11444091796875
-0.107421875
-0.10772705078125
-0.1263427734375
-0.1416015625
-0.146484375
-0.1580810546875
-0.13092041015625
-0.07232666015625
-0.03173828125
-0.03143310546875
-0.04425048828125
-0.0506591796875
-0.04547119140625
-0.05157470703125
-0.067138671875
-0.06683349609375
-0.05706787109375
-0.0634765625
-0.072021484375
-0.079345703125
-0.08758544921875
-0.106201171875
-0.09857177734375
-0.091552734375
-0.09521484375
-0.10894775390625
-0.126953125
-0.13092041015625
-0.11322021484375
-0.09307861328125
-0.0848388671875
-0.0836181640625
-0.09765625
-0.115966796875
-0.11474609375
-0.10345458984375
-0.10894775390625
-0.1019287109375
-0.11383056640625
-0.12969970703125
-0.1385498046875
-0.12847900390625
-0.10833740234375
-0.11444091796875
-0.12664794921875
-0.133056640625
-0.12420654296875
-0.107421875
-0.068359375
-0.0384521484375
-0.03173828125
-0.04974365234375
-0.09033203125
-0.12359619140625
-0.12542724609375
-0.11474609375
-0.12359619140625
-0.15380859375
-0.17303466796875
-0.17578125
-0.15350341796875
-0.12420654296875
-0.09613037109375
-0.07568359375
0.00335693359375
0.0897216796875
0.02838134765625
-0.07293701171875
-0.10894775390625
-0.1116943359375
-0.123291015625
-0.13824462890625
-0.12603759765625
-0.07171630859375
-0.057373046875
-0.08758544921875
-0.1043701171875
-0.1055908203125
-0.0994873046875
-0.08880615234375
-0.0701904296875
-0.07080078125
-0.0799560546875
-0.09124755859375
-0.12451171875
-0.14251708984375
-0.14556884765625
-0.140380859375
-0.12725830078125
-0.11444091796875
-0.103759765625
-0.0811767578125
-0.05523681640625
-0.05462646484375
-0.0537109375
-0.05706787109375
-0.0762939453125
-0.05157470703125
-0.04058837890625
-0.0726318359375
-0.08453369140625
-0.0518798828125
-0.02838134765625
-0.04241943359375
-0.06011962890625
-0.072021484375
-0.067138671875
-0.08148193359375
-0.0885009765625
-0.0872802734375
-0.09796142578125
-0.1043701171875
-0.0927734375
-0.0537109375
-0.02593994140625
-0.0225830078125
-0.03692626953125
-0.06103515625
-0.074462890625
-0.0823974609375
-0.0909423828125
-0.09735107421875
-0.10894775390625
-0.10223388671875
-0.08758544921875
-0.0628662109375
-0.04913330078125
-0.0494384765625
-0.045166015625
-0.02044677734375
0.0054931640625
0.01007080078125
0.00579833984375
0.01312255859375
0.045166015625
0.072021484375
0.048828125
0.02471923828125
0.03082275390625
0.04547119140625
0.07049560546875
0.0799560546875
0.0933837890625
0.11505126953125
0.12969970703125
0.11810302734375
0.13885498046875
0.172119140625
0.16448974609375
0.1507568359375
0.145263671875
0.1434326171875
0.16754150390625
0.16204833984375
0.12298583984375
0.09765625
0.11260986328125
0.14068603515625
0.18280029296875
0.1971435546875
0.18218994140625
0.1776123046875
0.191650390625
0.1983642578125
0.20660400390625
0.2008056640625
0.191650390625
0.16845703125
0.12908935546875
0.12542724609375
0.1605224609375
0.16448974609375
0.18310546875
0.21942138671875
0.23956298828125
0.2471923828125
0.2606201171875
0.2587890625
0.26824951171875
0.27587890625
0.264892578125
0.25787353515625
0.25238037109375
0.25604248046875
0.25848388671875
0.2630615234375
0.263671875
0.224609375
0.1708984375
0.11444091796875
0.0830078125
0.07171630859375
0.0689697265625
0.03448486328125
0.00579833984375
0.0537109375
0.13946533203125
0.21484375
0.20721435546875
0.1373291015625
0.11077880859375
0.1263427734375
0.12359619140625
0.08392333984375
0.02685546875
0.0
0.0079345703125
0.03265380859375
0.0469970703125
0.0286865234375
0.01434326171875
0.020751953125
0.03631591796875
0.020751953125
-0.01007080078125
-0.0262451171875
-0.03387451171875
-0.0372314453125
-0.03204345703125
-0.03173828125
-0.0390625
-0.0213623046875
-0.0238037109375
-0.059814453125
-0.09429931640625
-0.1080322265625
-0.11322021484375
-0.09979248046875
-0.09429931640625
-0.09979248046875
-0.111083984375
-0.106201171875
-0.08819580078125
-0.05218505859375
-0.03021240234375
-0.0262451171875
-0.03814697265625
-0.069580078125
-0.08270263671875
-0.09918212890625
-0.11474609375
-0.09521484375
-0.0738525390625
-0.069580078125
-0.096435546875
-0.12786865234375
-0.125732421875
-0.08758544921875
-0.03753662109375
-0.0250244140625
-0.03326416015625
-0.05523681640625
-0.08819580078125
-0.12847900390625
-0.13092041015625
-0.111083984375
-0.07598876953125
-0.04669189453125
-0.01983642578125
-0.018310546875
-0.01007080078125
-0.00091552734375
0.01617431640625
0.02288818359375
0.00823974609375
-0.02655029296875
-0.05828857421875
-0.0732421875
-0.0860595703125
-0.08819580078125
-0.0885009765625
-0.08697509765625
-0.10772705078125
-0.091552734375
-0.093994140625
-0.142822265625
-0.166015625
-0.17486572265625
-0.2264404296875
-0.28106689453125
-0.322265625
-0.34881591796875
-0.3778076171875
-0.39764404296875
-0.396728515625
-0.39886474609375
-0.408935546875
-0.45440673828125
-0.48797607421875
-0.47210693359375
-0.42816162109375
-0.362548828125
-0.2117919921875
-0.01800537109375
0.1611328125
0.3173828125
0.44586181640625
0.60791015625
0.823974609375
1.0693359375
1.32171630859375
1.607666015625
1.8975830078125
2.2015380859375
2.49908447265625
2.760009765625
2.9681396484375
3.154296875
3.3148193359375
3.41796875
3.4637451171875
3.50555419921875
3.49395751953125
3.41033935546875
3.2623291015625
3.06365966796875
2.78533935546875
2.51922607421875
2.27020263671875
2.0013427734375
1.73828125
1.4794921875
1.2164306640625
0.9466552734375
0.71533203125
0.579833984375
0.47576904296875
0.382080078125
0.34027099609375
0.3131103515625
0.2850341796875
0.25482177734375
0.24169921875
0.2593994140625
0.28900146484375
0.29144287109375
0.23223876953125
0.19256591796875
0.172119140625
0.18341064453125
0.2099609375
0.2276611328125
0.2178955078125
0.1922607421875
0.17120361328125
0.1470947265625
0.12847900390625
0.11138916015625
0.1171875
0.1068115234375
0.0994873046875
0.11444091796875
0.113525390625
0.08148193359375
0.04791259765625
0.01373291015625
-0.01068115234375
-0.01678466796875
0.01434326171875
0.02410888671875
0.0103759765625
-0.02288818359375
-0.05462646484375
-0.042724609375
-0.00701904296875
0.01800537109375
-0.00152587890625
-0.01739501953125
-0.0042724609375
-0.00732421875
0.00152587890625
0.01068115234375
0.0030517578125
-0.03570556640625
-0.05645751953125
-0.06103515625
-0.08575439453125
-0.09429931640625
-0.087890625
-0.07476806640625
-0.074462890625
-0.086669921875
-0.08697509765625
-0.03997802734375
0.04302978515625
0.08331298828125
0.03997802734375
-0.0091552734375
-0.04669189453125
-0.04486083984375
-0.02685546875
-0.0152587890625
0.01434326171875
0.04608154296875
0.04669189453125
0.0372314453125
0.02777099609375
0.02716064453125
0.04119873046875
0.04241943359375
0.0335693359375
0.02227783203125
0.0189208984375
0.01617431640625
0.01434326171875
0.00885009765625
0.0006103515625
-0.0152587890625
-0.023193359375
-0.0225830078125
-0.02197265625
-0.0164794921875
0.00640869140625
0.05523681640625
0.09796142578125
0.130615234375
0.12237548828125
0.08453369140625
0.07171630859375
0.064697265625
0.06439208984375
0.069580078125
0.04791259765625
0.02838134765625
0.0213623046875
0.0408935546875
0.0640869140625
0.07415771484375
0.0946044921875
0.1043701171875
0.10406494140625
0.1031494140625
0.10162353515625
0.11138916015625
0.1318359375
0.1422119140625
0.12451171875
0.09002685546875
0.0714111328125
0.059814453125
0.05615234375
0.07904052734375
0.11749267578125
0.1165771484375
0.11322021484375
0.1287841796875
0.16204833984375
0.1776123046875
0.16693115234375
0.15838623046875
0.15411376953125
0.1434326171875
0.12847900390625
0.11505126953125
0.11688232421875
0.125732421875
0.1422119140625
0.159912109375
0.17120361328125
0.1812744140625
0.19622802734375
0.201416015625
0.19561767578125
0.1904296875
0.206298828125
0.21575927734375
0.20599365234375
0.20843505859375
0.22491455078125
0.2227783203125
0.21087646484375
0.2044677734375
0.206298828125
0.208740234375
0.20751953125
0.19927978515625
0.1806640625
0.18157958984375
0.224609375
0.26275634765625
0.2703857421875
0.25360107421875
0.23773193359375
0.2392578125
0.25909423828125
0.26580810546875
0.26947021484375
0.3118896484375
0.35369873046875
0.38848876953125
0.40435791015625
0.39459228515625
0.37384033203125
0.34576416015625
0.37078857421875
0.401611328125
0.41900634765625
0.41656494140625
0.4107666015625
0.43609619140625
0.44464111328125
0.46112060546875
0.455322265625
0.44097900390625
0.41351318359375
0.401611328125
0.40771484375
0.4107666015625
0.42999267578125
0.45196533203125
0.4620361328125
0.4864501953125
0.52886962890625
0.546875
0.55206298828125
0.570068359375
0.59661865234375
0.60546875
0.6060791015625
0.58441162109375
0.550537109375
0.545654296875
0.5511474609375
0.5517578125
0.5743408203125
0.59967041015625
0.63568115234375
0.657958984375
0.67138671875
0.69366455078125
0.69183349609375
0.68450927734375
0.684814453125
0.70709228515625
0.751953125
0.76416015625
0.72418212890625
0.68817138671875
0.68328857421875
0.7000732421875
0.72265625
0.72998046875
0.745849609375
0.75408935546875
0.7647705078125
0.765380859375
0.753173828125
0.7537841796875
0.74737548828125
0.73974609375
0.74462890625
0.75592041015625
0.7464599609375
0.704345703125
0.67718505859375
0.69732666015625
0.74066162109375
0.7672119140625
0.787353515625
0.7928466796875
0.75836181640625
0.7159423828125
0.68817138671875
0.66650390625
0.6451416015625
0.6463623046875
0.6524658203125
0.65765380859375
0.6689453125
0.65460205078125
0.611572265625
0.56396484375
0.52642822265625
0.494384765625
0.45745849609375
0.44158935546875
0.4388427734375
0.42572021484375
0.404052734375
0.3778076171875
0.35552978515625
0.322265625
0.31097412109375
0.291748046875
0.2471923828125
0.20111083984375
0.18463134765625
0.17578125
0.15594482421875
0.13275146484375
0.1171875
0.10162353515625
0.09063720703125
0.07049560546875
0.06134033203125
0.06500244140625
0.08026123046875
0.078125
0.0360107421875
-0.01434326171875
-0.05126953125
-0.06439208984375
-0.0665283203125
-0.07476806640625
-0.06622314453125
-0.04730224609375
-0.01739501953125
-0.01190185546875
-0.02838134765625
-0.03662109375
-0.03936767578125
-0.06103515625
-0.0860595703125
-0.0885009765625
-0.08544921875
-0.10955810546875
-0.11993408203125
-0.1007080078125
-0.06591796875
-0.052490234375
-0.08270263671875
-0.12725830078125
-0.16265869140625
-0.1812744140625
-0.172119140625
-0.1458740234375
-0.1177978515625
-0.1104736328125
-0.09765625
-0.081787109375
-0.086669921875
-0.11260986328125
-0.13824462890625
-0.12969970703125
-0.07904052734375
-0.07354736328125
-0.10772705078125
-0.118408203125
-0.1123046875
-0.113525390625
-0.12847900390625
-0.14129638671875
-0.14404296875
-0.13153076171875
-0.1153564453125
-0.1226806640625
-0.1300048828125
-0.13214111328125
-0.13458251953125
-0.13397216796875
-0.1080322265625
-0.05859375
-0.04150390625
-0.0372314453125
-0.042724609375
-0.050048828125
-0.05615234375
-0.07293701171875
-0.09033203125
-0.10284423828125
-0.12298583984375
-0.140380859375
-0.1495361328125
-0.1446533203125
-0.12786865234375
-0.0958251953125
-0.05828857421875
-0.035400390625
-0.02227783203125
-0.04058837890625
-0.074462890625
-0.0958251953125
-0.1031494140625
-0.1031494140625
-0.11688232421875
-0.1336669921875
-0.13580322265625
-0.1275634765625
-0.08087158203125
-0.02227783203125
0.01068115234375
0.01678466796875
-0.01007080078125
-0.03875732421875
-0.07476806640625
-0.12603759765625
-0.17730712890625
-0.1959228515625
-0.15960693359375
-0.0970458984375
-0.02960205078125
-0.01068115234375
-0.02044677734375
-0.0372314453125
-0.04913330078125
-0.05035400390625
-0.03875732421875
-0.02777099609375
-0.029296875
-0.0469970703125
-0.05584716796875
-0.04669189453125
-0.054931640625
-0.07537841796875
-0.08575439453125
-0.08819580078125
-0.08880615234375
-0.0823974609375
-0.08056640625
-0.09613037109375
-0.09796142578125
-0.07843017578125
-0.05462646484375
-0.04150390625
-0.015869140625
0.0146484375
0.0299072265625
0.00885009765625
-0.03021240234375
-0.04608154296875
-0.0408935546875
-0.0372314453125
-0.05157470703125
-0.0860595703125
-0.1080322265625
-0.10467529296875
-0.0811767578125
-0.03875732421875
0.0067138671875
0.01129150390625
0.0091552734375
0.013427734375
0.0152587890625
0.001220703125
-0.01800537109375
-0.0274658203125
-0.0323486328125
-0.050048828125
-0.07720947265625
-0.0860595703125
-0.08148193359375
-0.06622314453125
-0.04974365234375
-0.03326416015625
-0.0299072265625
-0.03753662109375
-0.02960205078125
-0.025634765625
-0.04302978515625
-0.072021484375
-0.093994140625
-0.08209228515625
-0.07415771484375
-0.0897216796875
-0.09124755859375
-0.07049560546875
-0.0054931640625
0.037841796875
-0.00091552734375
-0.04180908203125
-0.0469970703125
-0.03326416015625
-0.0225830078125
-0.03204345703125
-0.06103515625
-0.079345703125
-0.07781982421875
-0.0469970703125
-0.0311279296875
-0.03173828125
-0.0299072265625
-0.0439453125
-0.0567626953125
-0.04852294921875
-0.03814697265625
-0.03173828125
-0.0311279296875
-0.0250244140625
-0.00457763671875
-0.0079345703125
-0.023193359375
-0.02410888671875
-0.00762939453125
0.003662109375
-0.01312255859375
-0.03936767578125
-0.05401611328125
-0.0628662109375
-0.04730224609375
-0.02197265625
-0.03753662109375
-0.06988525390625
-0.087890625
-0.089111328125
-0.0421142578125
0.015869140625
0.03173828125
0.0091552734375
-0.0189208984375
-0.05035400390625
-0.06927490234375
-0.069580078125
-0.07354736328125
-0.06195068359375
-0.02227783203125
0.0030517578125
-0.00518798828125
-0.01861572265625
-0.01617431640625
-0.01495361328125
-0.009765625
-0.0115966796875
-0.008544921875
-0.00152587890625
-0.00396728515625
-0.015869140625
-0.03631591796875
-0.04608154296875
-0.05615234375
-0.05767822265625
-0.050048828125
-0.0335693359375
-0.03021240234375
-0.03814697265625
-0.040283203125
-0.03997802734375
-0.04730224609375
-0.0518798828125
-0.0482177734375
-0.03570556640625
-0.03173828125
-0.0250244140625
-0.03936767578125
-0.06072998046875
-0.04730224609375
-0.02593994140625
-0.02166748046875
-0.02288818359375
-0.02838134765625
-0.02349853515625
0.00518798828125
0.0286865234375
0.01983642578125
0.00762939453125
0.03387451171875
0.05889892578125
0.069580078125
0.0762939453125
0.05889892578125
0.03387451171875
0.0201416015625
0.028076171875
0.04058837890625
0.067138671875
0.08087158203125
0.081787109375
0.09429931640625
0.1019287109375
0.10467529296875
0.12969970703125
0.1708984375
0.2117919921875
0.22918701171875
0.2288818359375
0.21331787109375
0.194091796875
0.1678466796875
0.13824462890625
0.133056640625
0.14739990234375
0.17822265625
0.186767578125
0.17608642578125
0.19805908203125
0.224609375
0.22918701171875
0.2294921875
0.22247314453125
0.22430419921875
0.2239990234375
0.22369384765625
0.230712890625
0.2374267578125
0.25115966796875
0.25726318359375
0.23162841796875
0.1910400390625
0.17669677734375
0.19134521484375
0.1953125
0.2032470703125
0.21575927734375
0.20904541015625
0.20355224609375
0.23712158203125
0.28045654296875
0.2899169921875
0.28411865234375
0.2813720703125
0.28411865234375
0.2862548828125
0.30242919921875
0.30364990234375
0.2880859375
0.27252197265625
0.257568359375
0.2508544921875
0.2239990234375
0.18157958984375
0.13946533203125
0.12939453125
0.1373291015625
0.14251708984375
0.1312255859375
0.11260986328125
0.1104736328125
0.1226806640625
0.125732421875
0.11627197265625
0.0970458984375
0.07659912109375
0.05767822265625
0.05828857421875
0.07080078125
0.08056640625
0.1019287109375
0.1165771484375
0.10650634765625
0.06805419921875
0.04913330078125
0.0494384765625
0.0531005859375
0.05096435546875
0.04425048828125
0.04913330078125
0.02685546875
-0.01739501953125
-0.06134033203125
-0.1043701171875
-0.12908935546875
-0.12908935546875
-0.096435546875
-0.05523681640625
0.01434326171875
0.08331298828125
0.0909423828125
0.0665283203125
0.0372314453125
0.008544921875
-0.00823974609375
-0.0054931640625
0.0030517578125
-0.0067138671875
-0.01953125
-0.03204345703125
-0.03509521484375
-0.01983642578125
-0.00518798828125
-0.010986328125
-0.01373291015625
-0.00457763671875
0.003662109375
-0.009765625
-0.01129150390625
-0.006103515625
-0.01068115234375
-0.01739501953125
-0.0146484375
-0.00885009765625
-0.01190185546875
-0.0128173828125
-0.015869140625
-0.01129150390625
-0.0018310546875
-0.00091552734375
-0.003662109375
-0.01190185546875
-0.00335693359375
0.03814697265625
0.05096435546875
0.0262451171875
0.02410888671875
0.08331298828125
0.10711669921875
0.0537109375
0.00579833984375
-0.009765625
-0.0091552734375
0.00091552734375
0.010986328125
0.0213623046875
0.00823974609375
-0.030517578125
-0.0634765625
-0.0848388671875
-0.11199951171875
-0.16021728515625
-0.21942138671875
-0.2703857421875
-0.28472900390625
-0.2777099609375
-0.28045654296875
-0.3021240234375
-0.32196044921875
-0.32928466796875
-0.3326416015625
-0.33111572265625
-0.31005859375
-0.25604248046875
-0.1934814453125
-0.10650634765625
-0.00152587890625
0.12176513671875
0.2691650390625
0.428466796875
0.59661865234375
0.76751708984375
0.96405029296875
1.19720458984375
1.46697998046875
1.77947998046875
2.103271484375
2.4041748046875
2.70477294921875
2.94097900390625
3.08502197265625
3.20159912109375
3.31817626953125
3.42498779296875
3.48907470703125
3.504638671875
3.4405517578125
3.27728271484375
3.03619384765625
2.77679443359375
2.523193359375
2.2930908203125
2.0611572265625
1.8231201171875
1.56646728515625
1.29058837890625
1.0235595703125
0.82244873046875
0.68817138671875
0.54656982421875
0.43853759765625
0.3912353515625
0.36529541015625
0.33966064453125
0.3143310546875
0.29571533203125
0.2978515625
0.284423828125
0.2667236328125
0.23681640625
0.220947265625
0.213623046875
0.218505859375
0.242919921875
0.257568359375
0.24749755859375
0.23162841796875
0.2392578125
0.26763916015625
0.260009765625
0.22186279296875
0.17242431640625
0.11810302734375
0.10040283203125
0.0897216796875
0.0787353515625
0.0994873046875
0.13580322265625
0.1788330078125
0.19927978515625
0.16754150390625
0.1275634765625
0.10986328125
0.10406494140625
0.09033203125
0.07843017578125
0.06256103515625
0.04119873046875
0.02410888671875
0.02044677734375
0.0238037109375
0.0103759765625
0.01708984375
0.06927490234375
0.089111328125
0.07080078125
0.05523681640625
0.0457763671875
0.06378173828125
0.07293701171875
0.06744384765625
0.052490234375
0.06500244140625
0.0653076171875
0.04608154296875
0.0341796875
0.023193359375
0.0244140625
0.04669189453125
0.06072998046875
0.0592041015625
0.0347900390625
0.02838134765625
0.03875732421875
0.04180908203125
0.04486083984375
0.045166015625
0.04425048828125
0.03997802734375
0.05096435546875
0.0494384765625
0.05584716796875
0.06378173828125
0.040283203125
0.0250244140625
0.0384521484375
0.04669189453125
0.0555419921875
0.068359375
0.081787109375
0.106201171875
0.1300048828125
0.13275146484375
0.11810302734375
0.1202392578125
0.13336181640625
0.14434814453125
0.1446533203125
0.13031005859375
0.12969970703125
0.12725830078125
0.11962890625
0.13031005859375
0.13885498046875
0.12969970703125
0.11871337890625
0.11749267578125
0.11993408203125
0.12451171875
0.13580322265625
0.1556396484375
0.1666259765625
0.16143798828125
0.1513671875
0.14739990234375
0.1416015625
0.1153564453125
0.08514404296875
0.087890625
0.1055908203125
0.1416015625
0.172119140625
0.167236328125
0.1470947265625
0.1300048828125
0.130615234375
0.137939453125
0.13214111328125
0.12969970703125
0.1544189453125
0.20660400390625
0.2490234375
0.27099609375
0.28228759765625
0.279541015625
0.26336669921875
0.24261474609375
0.225830078125
0.22979736328125
0.2392578125
0.23956298828125
0.24017333984375
0.24658203125
0.25634765625
0.2532958984375
0.2508544921875
0.24566650390625
0.238037109375
0.23284912109375
0.23223876953125
0.2227783203125
0.23193359375
0.26458740234375
0.29449462890625
0.29815673828125
0.29876708984375
0.31158447265625
0.3021240234375
0.28411865234375
0.27740478515625
0.291748046875
0.330810546875
0.3631591796875
0.3790283203125
0.41351318359375
0.41778564453125
0.40313720703125
0.3936767578125
0.4132080078125
0.4315185546875
0.41107177734375
0.35888671875
0.29815673828125
0.262451171875
0.2618408203125
0.30059814453125
0.3497314453125
0.379638671875
0.41412353515625
0.462646484375
0.52642822265625
0.56121826171875
0.5535888671875
0.513916015625
0.49957275390625
0.51177978515625
0.52276611328125
0.52337646484375
0.51483154296875
0.48828125
0.48004150390625
0.50262451171875
0.53497314453125
0.550537109375
0.54473876953125
0.5194091796875
0.5108642578125
0.53558349609375
0.59326171875
0.6292724609375
0.6329345703125
0.61431884765625
0.59234619140625
0.60791015625
0.6536865234375
0.68603515625
0.71746826171875
0.71136474609375
0.70037841796875
0.694580078125
0.6884765625
0.67901611328125
0.70892333984375
0.74249267578125
0.75408935546875
0.76324462890625
0.76324462890625
0.75164794921875
0.750732421875
0.75897216796875
0.75592041015625
0.7537841796875
0.7574462890625
0.76995849609375
0.77362060546875
0.77362060546875
0.787353515625
0.8294677734375
0.86334228515625
0.86212158203125
0.8343505859375
0.81268310546875
0.83587646484375
0.8355712890625
0.826416015625
0.828857421875
0.83038330078125
0.82183837890625
0.8074951171875
0.80230712890625
0.79925537109375
0.7867431640625
0.78765869140625
0.7879638671875
0.78094482421875
0.76934814453125
0.74981689453125
0.73333740234375
0.6976318359375
0.64910888671875
0.60760498046875
0.5780029296875
0.5584716796875
0.55023193359375
0.55206298828125
0.54534912109375
0.546875
0.54595947265625
0.51727294921875
0.4962158203125
0.4632568359375
0.43182373046875
0.404052734375
0.3814697265625
0.36834716796875
0.34698486328125
0.2996826171875
0.25665283203125
0.220947265625
0.18768310546875
0.1507568359375
0.1104736328125
0.07415771484375
0.06988525390625
0.11566162109375
0.1361083984375
0.1336669921875
0.1409912109375
0.1324462890625
0.11077880859375
0.09124755859375
0.07171630859375
0.0689697265625
0.06134033203125
0.0714111328125
0.06103515625
0.01373291015625
-0.03448486328125
-0.0634765625
-0.0677490234375
-0.06256103515625
-0.05523681640625
-0.03509521484375
-0.01953125
-0.030517578125
-0.0341796875
-0.0335693359375
-0.040283203125
-0.04669189453125
-0.03753662109375
-0.0634765625
-0.10955810546875
-0.11749267578125
-0.11322021484375
-0.08819580078125
-0.0482177734375
-0.04119873046875
-0.0653076171875
-0.09063720703125
-0.1092529296875
-0.1104736328125
-0.10406494140625
-0.0958251953125
-0.09765625
-0.0927734375
-0.0933837890625
-0.10162353515625
-0.1129150390625
-0.11962890625
-0.1068115234375
-0.103759765625
-0.106201171875
-0.11810302734375
-0.12542724609375
-0.12237548828125
-0.11749267578125
-0.10986328125
-0.10040283203125
-0.08819580078125
-0.09124755859375
-0.09735107421875
-0.11138916015625
-0.12359619140625
-0.1263427734375
-0.12359619140625
-0.101318359375
-0.08636474609375
-0.08697509765625
-0.1019287109375
-0.0762939453125
0.00152587890625
0.03204345703125
-0.01251220703125
-0.05584716796875
-0.07080078125
-0.06378173828125
-0.06927490234375
-0.08209228515625
-0.089111328125
-0.09033203125
-0.098876953125
-0.101318359375
-0.08819580078125
-0.05096435546875
-0.0311279296875
-0.04058837890625
-0.05615234375
-0.05706787109375
-0.040283203125
-0.03265380859375
-0.0311279296875
-0.02288818359375
-0.00946044921875
0.003662109375
-0.0030517578125
-0.020751953125
-0.03662109375
-0.05035400390625
-0.0665283203125
-0.08819580078125
-0.11016845703125
-0.10162353515625
-0.1019287109375
-0.11627197265625
-0.1214599609375
-0.0933837890625
-0.05096435546875
-0.0091552734375
0.01922607421875
-0.0091552734375
-0.06439208984375
-0.08453369140625
-0.06683349609375
-0.0433349609375
-0.03936767578125
-0.0238037109375
-0.0262451171875
-0.03265380859375
-0.01953125
-0.0299072265625
-0.0506591796875
-0.0592041015625
-0.03631591796875
0.00030517578125
0.0079345703125
-0.00152587890625
-0.01220703125
-0.028076171875
-0.03021240234375
-0.02960205078125
-0.01983642578125
-0.0238037109375
-0.0384521484375
-0.01739501953125
0.0115966796875
0.00579833984375
-0.006103515625
-0.00823974609375
0.00244140625
0.00701904296875
0.003662109375
0.0030517578125
-0.00152587890625
-0.0048828125
-0.00152587890625
-0.00091552734375
-0.01434326171875
-0.03082275390625
-0.01953125
-0.0128173828125
-0.0360107421875
-0.05279541015625
-0.0469970703125
-0.0335693359375
-0.04547119140625
-0.0579833984375
-0.06195068359375
-0.04791259765625
-0.04364013671875
-0.05462646484375
-0.057373046875
-0.05584716796875
-0.02227783203125
0.02471923828125
0.0274658203125
0.0128173828125
-0.00946044921875
-0.0286865234375
-0.0335693359375
-0.030517578125
-0.0390625
-0.048828125
-0.0555419921875
-0.05218505859375
-0.0396728515625
-0.02471923828125
0.00030517578125
0.02197265625
0.00946044921875
0.01495361328125
0.0433349609375
0.02777099609375
-0.0140380859375
-0.04608154296875
-0.050048828125
-0.03875732421875
-0.0238037109375
-0.018310546875
-0.02044677734375
-0.01953125
-0.01007080078125
0.00335693359375
0.0048828125
-0.001220703125
-0.010986328125
-0.015869140625
-0.01678466796875
-0.0189208984375
-0.01800537109375
-0.02410888671875
-0.02960205078125
-0.037841796875
-0.0421142578125
-0.04058837890625
-0.03265380859375
-0.0103759765625
0.0146484375
0.010986328125
0.02349853515625
0.01861572265625
-0.008544921875
-0.0335693359375
-0.0311279296875
-0.03509521484375
-0.01556396484375
0.023193359375
0.06378173828125
0.11566162109375
0.1324462890625
0.1104736328125
0.0823974609375
0.09918212890625
0.1593017578125
0.1861572265625
0.1690673828125
0.179443359375
0.213623046875
0.233154296875
0.22369384765625
0.2325439453125
0.22918701171875
0.1806640625
0.14617919921875
0.1629638671875
0.1739501953125
0.1617431640625
0.16754150390625
0.2001953125
0.238037109375
0.27069091796875
0.27740478515625
0.262451171875
0.23681640625
0.224609375
0.2178955078125
0.22796630859375
0.23406982421875
0.23681640625
0.23101806640625
0.21575927734375
0.224609375
0.26031494140625
0.26611328125
0.24322509765625
0.23345947265625
0.238037109375
0.23956298828125
0.24017333984375
0.26702880859375
0.2996826171875
0.29327392578125
0.28106689453125
0.296630859375
0.313720703125
0.32623291015625
0.302734375
0.2642822265625
0.23681640625
0.2252197265625
0.24444580078125
0.24261474609375
0.19134521484375
0.14251708984375
0.1190185546875
0.12725830078125
0.13824462890625
0.1422119140625
0.15289306640625
0.18035888671875
0.159912109375
0.1123046875
0.07659912109375
0.05828857421875
0.047607421875
0.04638671875
0.06103515625
0.0848388671875
0.08087158203125
0.0787353515625
0.08026123046875
0.0738525390625
0.05401611328125
0.04150390625
0.0341796875
0.01434326171875
-0.01861572265625
-0.0213623046875
-0.01617431640625
-0.00640869140625
-0.00030517578125
-0.0006103515625
-0.009765625
-0.00762939453125
0.0018310546875
-0.00518798828125
-0.025634765625
-0.05126953125
-0.03875732421875
-0.0299072265625
-0.04486083984375
-0.05767822265625
-0.057373046875
-0.03997802734375
-0.03204345703125
-0.0262451171875
-0.02655029296875
-0.03509521484375
-0.04364013671875
-0.04150390625
-0.037841796875
-0.03021240234375
0.00274658203125
0.02197265625
0.008544921875
-0.00823974609375
-0.0140380859375
0.00244140625
0.01953125
0.01251220703125
-0.02197265625
-0.067138671875
-0.08056640625
-0.0799560546875
-0.074462890625
-0.05828857421875
-0.02044677734375
0.018310546875
0.02960205078125
0.02838134765625
0.0054931640625
-0.01556396484375
-0.030517578125
-0.03753662109375
-0.04913330078125
-0.04608154296875
-0.01708984375
0.009765625
0.0152587890625
0.00274658203125
-0.0146484375
-0.0079345703125
-0.001220703125
-0.0103759765625
-0.04608154296875
-0.08026123046875
-0.09735107421875
-0.1275634765625
-0.16571044921875
-0.18463134765625
-0.2191162109375
-0.27313232421875
-0.3094482421875
-0.2996826171875
-0.28594970703125
-0.2960205078125
-0.3265380859375
-0.3472900390625
-0.34210205078125
-0.296630859375
-0.22125244140625
-0.14892578125
-0.04913330078125
0.07476806640625
0.17578125
0.28778076171875
0.421142578125
0.5633544921875
0.7159423828125
0.911865234375
1.14532470703125
1.40228271484375
1.69830322265625
2.0281982421875
2.3712158203125
2.686767578125
2.9296875
3.09234619140625
3.2232666015625
3.3319091796875
3.40423583984375
3.43963623046875
3.436279296875
3.36273193359375
3.1927490234375
2.98492431640625
2.7740478515625
2.54730224609375
2.30072021484375
2.05047607421875
1.80267333984375
1.5576171875
1.30615234375
1.06170654296875
0.8612060546875
0.7330322265625
0.5780029296875
0.400390625
0.302734375
0.284423828125
0.29266357421875
0.27435302734375
0.26153564453125
0.29205322265625
0.29266357421875
0.25787353515625
0.23223876953125
0.2044677734375
0.17547607421875
0.18218994140625
0.22735595703125
0.23956298828125
0.22613525390625
0.20416259765625
0.18524169921875
0.17181396484375
0.16204833984375
0.14129638671875
0.13702392578125
0.15228271484375
0.1416015625
0.09246826171875
0.0567626953125
0.04730224609375
0.0439453125
0.04730224609375
0.08026123046875
0.12664794921875
0.11871337890625
0.098876953125
0.07781982421875
0.05462646484375
0.03814697265625
0.0390625
0.05157470703125
0.05096435546875
0.050048828125
0.03082275390625
0.01190185546875
0.01312255859375
0.0274658203125
0.01800537109375
-0.009765625
-0.028076171875
-0.037841796875
-0.0177001953125
0.00701904296875
0.01190185546875
0.023193359375
0.025634765625
0.00640869140625
-0.0189208984375
-0.04730224609375
-0.04730224609375
-0.0091552734375
0.0152587890625
0.0238037109375
0.0201416015625
0.0238037109375
0.01678466796875
0.00030517578125
0.00885009765625
0.030517578125
0.04486083984375
0.0408935546875
0.032958984375
0.035400390625
0.04486083984375
0.059814453125
0.07537841796875
0.07843017578125
0.08148193359375
0.07415771484375
0.064697265625
0.04730224609375
0.03936767578125
0.035400390625
0.02166748046875
0.0018310546875
0.01190185546875
0.02105712890625
0.03631591796875
0.07080078125
0.11993408203125
0.1470947265625
0.14007568359375
0.1190185546875
0.1043701171875
0.08544921875
0.06622314453125
0.04791259765625
0.0433349609375
0.0555419921875
0.06988525390625
0.07781982421875
0.09857177734375
0.1318359375
0.16143798828125
0.16693115234375
0.14617919921875
0.11688232421875
0.1043701171875
0.1165771484375
0.13275146484375
0.12725830078125
0.1080322265625
0.09521484375
0.10986328125
0.115966796875
0.103759765625
0.07354736328125
0.0701904296875
0.11627197265625
0.1763916015625
0.206298828125
0.21331787109375
0.21820068359375
0.198974609375
0.16387939453125
0.15106201171875
0.181884765625
0.208740234375
0.2154541015625
0.21514892578125
0.19866943359375
0.1910400390625
0.20843505859375
0.23590087890625
0.23529052734375
0.20782470703125
0.19622802734375
0.1922607421875
0.17120361328125
0.14190673828125
0.16265869140625
0.2130126953125
0.264892578125
0.29632568359375
0.2874755859375
0.2740478515625
0.2777099609375
0.2728271484375
0.2435302734375
0.22369384765625
0.2081298828125
0.19989013671875
0.2044677734375
0.2288818359375
0.24566650390625
0.247802734375
0.28045654296875
0.3350830078125
0.39276123046875
0.43548583984375
0.42572021484375
0.3863525390625
0.3570556640625
0.36407470703125
0.389404296875
0.4046630859375
0.40374755859375
0.40618896484375
0.42144775390625
0.44097900390625
0.445556640625
0.4296875
0.42236328125
0.4254150390625
0.4241943359375
0.41717529296875
0.43609619140625
0.4937744140625
0.5303955078125
0.50933837890625
0.47607421875
0.47393798828125
0.482177734375
0.48095703125
0.48095703125
0.49591064453125
0.51605224609375
0.53619384765625
0.5560302734375
0.5816650390625
0.59356689453125
0.58502197265625
0.58258056640625
0.589599609375
0.59722900390625
0.5902099609375
0.567626953125
0.55908203125
0.5706787109375
0.5950927734375
0.63873291015625
0.7025146484375
0.7403564453125
0.73516845703125
0.71502685546875
0.70831298828125
0.701904296875
0.6982421875
0.6939697265625
0.6982421875
0.68817138671875
0.66986083984375
0.6610107421875
0.6781005859375
0.71624755859375
0.7684326171875
0.81268310546875
0.81817626953125
0.809326171875
0.78460693359375
0.7830810546875
0.79925537109375
0.8203125
0.821533203125
0.80413818359375
0.7928466796875
0.77423095703125
0.765380859375
0.7550048828125
0.738525390625
0.73028564453125
0.7232666015625
0.7257080078125
0.72479248046875
0.7098388671875
0.7000732421875
0.71014404296875
0.73211669921875
0.7550048828125
0.74920654296875
0.69671630859375
0.6329345703125
0.595703125
0.57891845703125
0.543212890625
0.50323486328125
0.47088623046875
0.44586181640625
0.433349609375
0.430908203125
0.4339599609375
0.42144775390625
0.40924072265625
0.3704833984375
0.3326416015625
0.3179931640625
0.30364990234375
0.28350830078125
0.2606201171875
0.235595703125
0.21240234375
0.18463134765625
0.155029296875
0.1263427734375
0.093994140625
0.06317138671875
0.03814697265625
0.02288818359375
0.02410888671875
0.0244140625
0.0262451171875
0.0457763671875
0.05706787109375
0.04302978515625
0.02044677734375
-0.01251220703125
-0.04425048828125
-0.06591796875
-0.09246826171875
-0.12237548828125
-0.1416015625
-0.14617919921875
-0.1324462890625
-0.12115478515625
-0.1177978515625
-0.1080322265625
-0.10894775390625
-0.11260986328125
-0.10650634765625
-0.10589599609375
-0.11505126953125
-0.1336669921875
-0.1483154296875
-0.15960693359375
-0.1690673828125
-0.17364501953125
-0.17120361328125
-0.157470703125
-0.1513671875
-0.15899658203125
-0.17852783203125
-0.19073486328125
-0.1885986328125
-0.17333984375
-0.14190673828125
-0.11444091796875
-0.13031005859375
-0.16387939453125
-0.17913818359375
-0.1702880859375
-0.1654052734375
-0.16082763671875
-0.15869140625
-0.1605224609375
-0.16448974609375
-0.18463134765625
-0.2093505859375
-0.21514892578125
-0.19256591796875
-0.14190673828125
-0.067138671875
-0.04486083984375
-0.08819580078125
-0.142822265625
-0.15838623046875
-0.11962890625
-0.098876953125
-0.101318359375
-0.14404296875
-0.2020263671875
-0.23681640625
-0.22369384765625
-0.18463134765625
-0.16326904296875
-0.172119140625
-0.15106201171875
-0.12359619140625
-0.113525390625
-0.0958251953125
-0.0738525390625
-0.0531005859375
-0.0604248046875
-0.07659912109375
-0.09857177734375
-0.10345458984375
-0.1116943359375
-0.125732421875
-0.13397216796875
-0.14007568359375
-0.14373779296875
-0.13946533203125
-0.1324462890625
-0.12054443359375
-0.11260986328125
-0.10467529296875
-0.11199951171875
-0.12237548828125
-0.14007568359375
-0.166015625
-0.19775390625
-0.218505859375
-0.191650390625
-0.15350341796875
-0.16693115234375
-0.18798828125
-0.13580322265625
-0.06561279296875
-0.069580078125
-0.08941650390625
-0.09521484375
-0.10040283203125
-0.09552001953125
-0.0689697265625
-0.0555419921875
-0.06072998046875
-0.0762939453125
-0.08941650390625
-0.09552001953125
-0.09307861328125
-0.0982666015625
-0.10345458984375
-0.10986328125
-0.11138916015625
-0.11016845703125
-0.10345458984375
-0.08575439453125
-0.07965087890625
-0.08148193359375
-0.08636474609375
-0.08544921875
-0.091552734375
-0.10528564453125
-0.11383056640625
-0.1171875
-0.11474609375
-0.10101318359375
-0.09918212890625
-0.093994140625
-0.10467529296875
-0.1202392578125
-0.1202392578125
-0.11474609375
-0.11871337890625
-0.09735107421875
-0.059814453125
-0.048828125
-0.05401611328125
-0.06195068359375
-0.0665283203125
-0.07537841796875
-0.09124755859375
-0.1007080078125
-0.10406494140625
-0.11077880859375
-0.1068115234375
-0.087890625
-0.0946044921875
-0.10986328125
-0.11474609375
-0.1104736328125
-0.11322021484375
-0.11016845703125
-0.10345458984375
-0.08209228515625
-0.06103515625
-0.03753662109375
-0.037841796875
-0.05279541015625
-0.0787353515625
-0.09918212890625
-0.10650634765625
-0.10498046875
-0.09796142578125
-0.08880615234375
-0.0823974609375
-0.05157470703125
-0.048828125
-0.06072998046875
-0.05859375
-0.03631591796875
-0.0091552734375
-0.0006103515625
0.0067138671875
0.0213623046875
0.015869140625
-0.00335693359375
0.00396728515625
0.03143310546875
0.06500244140625
0.093994140625
0.10772705078125
0.1043701171875
0.09002685546875
0.08087158203125
0.091552734375
0.09368896484375
0.09368896484375
0.0970458984375
0.11383056640625
0.107421875
0.09307861328125
0.0982666015625
0.11444091796875
0.147705078125
0.185546875
0.20355224609375
0.1873779296875
0.16632080078125
0.16754150390625
0.169677734375
0.16998291015625
0.1715087890625
0.17333984375
0.1776123046875
0.17303466796875
0.17791748046875
0.18218994140625
0.18310546875
0.1885986328125
0.17913818359375
0.15838623046875
0.15533447265625
0.15960693359375
0.14892578125
0.135498046875
0.15350341796875
0.21148681640625
0.2386474609375
0.24566650390625
0.2630615234375
0.2838134765625
0.2606201171875
0.20599365234375
0.14434814453125
0.1031494140625
0.093994140625
0.0823974609375
0.06317138671875
0.05950927734375
0.07354736328125
0.10467529296875
0.115966796875
0.0946044921875
0.06011962890625
0.0421142578125
0.037841796875
0.03387451171875
0.03173828125
0.01922607421875
0.0054931640625
-0.0042724609375
0.0079345703125
0.02044677734375
0.0146484375
0.00396728515625
-0.015869140625
-0.037841796875
-0.04638671875
-0.04669189453125
-0.0469970703125
-0.0531005859375
-0.06317138671875
-0.07904052734375
-0.10040283203125
-0.118408203125
-0.1226806640625
-0.1263427734375
-0.1226806640625
-0.13275146484375
-0.15533447265625
-0.16571044921875
-0.17974853515625
-0.18402099609375
-0.15350341796875
-0.08636474609375
-0.04974365234375
-0.07415771484375
-0.0543212890625
-0.013427734375
0.01007080078125
-0.001220703125
-0.02899169921875
-0.04119873046875
-0.0555419921875
-0.0823974609375
-0.11322021484375
-0.152587890625
-0.1690673828125
-0.15289306640625
-0.13702392578125
-0.1336669921875
-0.1312255859375
-0.14495849609375
-0.1702880859375
-0.17486572265625
-0.1654052734375
-0.14495849609375
-0.11322021484375
-0.09246826171875
-0.07537841796875
-0.06805419921875
-0.07781982421875
-0.0921630859375
-0.0994873046875
-0.106201171875
-0.09246826171875
-0.10101318359375
-0.11138916015625
-0.0848388671875
-0.06591796875
-0.0860595703125
-0.10223388671875
-0.11993408203125
-0.1324462890625
-0.12176513671875
-0.0958251953125
-0.0946044921875
-0.1116943359375
-0.13397216796875
-0.1593017578125
-0.20233154296875
-0.25543212890625
-0.31524658203125
-0.362548828125
-0.380859375
-0.39276123046875
-0.41656494140625
-0.4168701171875
-0.39276123046875
-0.3814697265625
-0.36956787109375
-0.36529541015625
-0.35186767578125
-0.3228759765625
-0.26519775390625
-0.17822265625
-0.07049560546875
0.01983642578125
0.12603759765625
0.25238037109375
0.36834716796875
0.52032470703125
0.7354736328125
1.01348876953125
1.3250732421875
1.6546630859375
1.98883056640625
2.322998046875
2.6165771484375
2.86224365234375
3.04718017578125
3.18756103515625
3.28338623046875
3.35968017578125
3.40850830078125
3.42620849609375
3.37799072265625
3.2330322265625
3.0340576171875
2.81707763671875
2.5897216796875
2.34893798828125
2.1136474609375
1.87530517578125
1.62261962890625
1.35406494140625
1.0845947265625
0.86883544921875
0.74066162109375
0.58685302734375
0.3814697265625
0.2532958984375
0.21759033203125
0.198974609375
0.16571044921875
0.1422119140625
0.14862060546875
0.16937255859375
0.1812744140625
0.20233154296875
0.17425537109375
0.12664794921875
0.1177978515625
0.12420654296875
0.120849609375
0.120849609375
0.12939453125
0.1263427734375
0.120849609375
0.108642578125
0.08331298828125
0.06561279296875
0.05615234375
0.03997802734375
0.02410888671875
0.01739501953125
0.00518798828125
-0.0115966796875
-0.02471923828125
-0.02716064453125
-0.02227783203125
-0.04913330078125
-0.09796142578125
-0.10162353515625
-0.06103515625
-0.01434326171875
-0.01800537109375
-0.04180908203125
-0.05615234375
-0.08636474609375
-0.1055908203125
-0.10345458984375
-0.1019287109375
-0.1092529296875
-0.10284423828125
-0.08758544921875
-0.07415771484375
-0.07843017578125
-0.08880615234375
-0.09185791015625
-0.0738525390625
-0.0665283203125
-0.0885009765625
-0.11077880859375
-0.09307861328125
-0.0732421875
-0.07354736328125
-0.09033203125
-0.1031494140625
-0.103759765625
-0.10284423828125
-0.091552734375
-0.0848388671875
-0.08331298828125
-0.0994873046875
-0.12786865234375
-0.1373291015625
-0.13427734375
-0.12939453125
-0.1220703125
-0.11474609375
-0.1080322265625
-0.10040283203125
-0.0714111328125
-0.0323486328125
-0.01190185546875
-0.01312255859375
-0.02593994140625
-0.03021240234375
-0.03082275390625
-0.032958984375
-0.05523681640625
-0.079345703125
-0.091552734375
-0.08575439453125
-0.05706787109375
-0.048828125
-0.0604248046875
-0.04791259765625
-0.0311279296875
-0.018310546875
-0.02288818359375
-0.03173828125
-0.0506591796875
-0.07904052734375
-0.08941650390625
-0.08941650390625
-0.093994140625
-0.093994140625
-0.05706787109375
0.0042724609375
0.04302978515625
0.047607421875
0.04913330078125
0.042724609375
0.02777099609375
0.023193359375
0.0323486328125
0.0518798828125
0.07293701171875
0.06622314453125
0.0579833984375
0.0604248046875
0.04638671875
0.030517578125
0.028076171875
0.06072998046875
0.09674072265625
0.108642578125
0.108642578125
0.10833740234375
0.1104736328125
0.10406494140625
0.07354736328125
0.05859375
0.0640869140625
0.07476806640625
0.084228515625
0.07781982421875
0.05340576171875
0.03387451171875
0.03173828125
0.0164794921875
-0.00335693359375
-0.00823974609375
0.02593994140625
0.11627197265625
0.20172119140625
0.25054931640625
0.2508544921875
0.22491455078125
0.20660400390625
0.1959228515625
0.194091796875
0.1885986328125
0.19683837890625
0.20721435546875
0.20751953125
0.19195556640625
0.1739501953125
0.16998291015625
0.18524169921875
0.2044677734375
0.218505859375
0.2349853515625
0.2471923828125
0.2490234375
0.24688720703125
0.252685546875
0.25787353515625
0.2581787109375
0.26092529296875
0.27099609375
0.27496337890625
0.27740478515625
0.26947021484375
0.2557373046875
0.25909423828125
0.27313232421875
0.2886962890625
0.30181884765625
0.31951904296875
0.330810546875
0.34332275390625
0.35308837890625
0.36651611328125
0.38055419921875
0.39398193359375
0.41229248046875
0.42510986328125
0.4302978515625
0.43212890625
0.42999267578125
0.421142578125
0.39398193359375
0.3759765625
0.3826904296875
0.423583984375
0.47332763671875
0.4888916015625
0.474853515625
0.4681396484375
0.4876708984375
0.5218505859375
0.5462646484375
0.56396484375
0.570068359375
0.58746337890625
0.60943603515625
0.61614990234375
0.6134033203125
0.62042236328125
0.6292724609375
0.62835693359375
0.62652587890625
0.63201904296875
0.653076171875
0.67138671875
0.66436767578125
0.63140869140625
0.6103515625
0.59661865234375
0.59783935546875
0.60455322265625
0.64239501953125
0.74005126953125
0.8087158203125
0.81329345703125
0.775146484375
0.750732421875
0.732421875
0.72174072265625
0.703125
0.69732666015625
0.72052001953125
0.73486328125
0.72906494140625
0.70098876953125
0.6854248046875
0.66558837890625
0.65765380859375
0.64056396484375
0.59173583984375
0.55389404296875
0.52398681640625
0.50506591796875
0.50384521484375
0.5133056640625
0.52398681640625
0.50811767578125
0.47637939453125
0.44403076171875
0.4052734375
0.37261962890625
0.34423828125
0.31707763671875
0.2838134765625
0.26580810546875
0.24322509765625
0.2044677734375
0.18524169921875
0.17181396484375
0.1788330078125
0.186767578125
0.18707275390625
0.179443359375
0.15533447265625
0.1177978515625
0.0762939453125
0.0537109375
0.04150390625
0.02655029296875
0.00640869140625
-0.020751953125
-0.04974365234375
-0.06561279296875
-0.07232666015625
-0.08819580078125
-0.12451171875
-0.15472412109375
-0.16448974609375
-0.15625
-0.14923095703125
-0.15899658203125
-0.1702880859375
-0.159912109375
-0.13275146484375
-0.14007568359375
-0.16082763671875
-0.1690673828125
-0.17852783203125
-0.19866943359375
-0.21942138671875
-0.2239990234375
-0.21881103515625
-0.22125244140625
-0.22796630859375
-0.2166748046875
-0.18524169921875
-0.1702880859375
-0.17486572265625
-0.1788330078125
-0.18890380859375
-0.21148681640625
-0.228271484375
-0.218505859375
-0.20782470703125
-0.208740234375
-0.2386474609375
-0.2752685546875
-0.29327392578125
-0.2978515625
-0.30487060546875
-0.3411865234375
-0.382080078125
-0.37322998046875
-0.3179931640625
-0.2874755859375
-0.2862548828125
-0.25360107421875
-0.20172119140625
-0.15167236328125
-0.125732421875
-0.174560546875
-0.2069091796875
-0.20355224609375
-0.2197265625
-0.24444580078125
-0.2459716796875
-0.23712158203125
-0.23712158203125
-0.23162841796875
-0.23651123046875
-0.23101806640625
-0.22613525390625
-0.2294921875
-0.228271484375
-0.2227783203125
-0.211181640625
-0.19744873046875
-0.1983642578125
-0.2294921875
-0.255126953125
-0.26275634765625
-0.24932861328125
-0.238037109375
-0.2520751953125
-0.2740478515625
-0.27130126953125
-0.24200439453125
-0.21453857421875
-0.1812744140625
-0.1513671875
-0.15167236328125
-0.17547607421875
-0.18157958984375
-0.1800537109375
-0.1953125
-0.21453857421875
-0.24505615234375
-0.27130126953125
-0.2789306640625
-0.2734375
-0.26031494140625
-0.24200439453125
-0.21392822265625
-0.1593017578125
-0.11260986328125
-0.10284423828125
-0.1055908203125
-0.10498046875
-0.106201171875
-0.12451171875
-0.1495361328125
-0.179443359375
-0.1959228515625
-0.19805908203125
-0.20904541015625
-0.20965576171875
-0.205078125
-0.1983642578125
-0.19378662109375
-0.20416259765625
-0.2020263671875
-0.17333984375
-0.15045166015625
-0.14801025390625
-0.1611328125
-0.174560546875
-0.15960693359375
-0.12420654296875
-0.12359619140625
-0.17425537109375
-0.20538330078125
-0.19317626953125
-0.1702880859375
-0.1678466796875
-0.16204833984375
-0.14678955078125
-0.15777587890625
-0.18798828125
-0.186767578125
-0.17578125
-0.18798828125
-0.18829345703125
-0.17791748046875
-0.19195556640625
-0.19317626953125
-0.177001953125
-0.16632080078125
-0.152587890625
-0.1483154296875
-0.12542724609375
-0.1123046875
-0.1080322265625
-0.11199951171875
-0.1287841796875
-0.140380859375
-0.12481689453125
-0.10986328125
-0.08575439453125
-0.05615234375
-0.03082275390625
-0.01068115234375
-0.03204345703125
-0.0579833984375
-0.052490234375
-0.018310546875
0.02227783203125
0.0286865234375
-0.00213623046875
-0.01983642578125
0.00885009765625
0.0347900390625
0.029296875
0.01800537109375
0.0164794921875
0.04119873046875
0.05126953125
0.0537109375
0.0628662109375
0.062255859375
0.05279541015625
0.05401611328125
0.06195068359375
0.0750732421875
0.0604248046875
0.04241943359375
0.03326416015625
0.03265380859375
0.04058837890625
0.07232666015625
0.12298583984375
0.172119140625
0.20782470703125
0.22125244140625
0.20904541015625
0.174560546875
0.14801025390625
0.14923095703125
0.1483154296875
0.1312255859375
0.118408203125
0.1336669921875
0.17578125
0.22857666015625
0.23345947265625
0.21636962890625
0.19683837890625
0.17578125
0.1470947265625
0.12603759765625
0.10833740234375
0.1043701171875
0.0909423828125
0.0592041015625
0.023193359375
-0.00701904296875
-0.02838134765625
-0.05218505859375
-0.06622314453125
-0.0579833984375
-0.0537109375
-0.040283203125
-0.035400390625
-0.0494384765625
-0.0750732421875
-0.0732421875
-0.05950927734375
-0.052490234375
-0.06103515625
-0.0933837890625
-0.12237548828125
-0.13031005859375
-0.13031005859375
-0.128173828125
-0.11077880859375
-0.08453369140625
-0.09765625
-0.1251220703125
-0.14404296875
-0.16571044921875
-0.16082763671875
-0.13702392578125
-0.1190185546875
-0.11566162109375
-0.1141357421875
-0.13671875
-0.155029296875
-0.174560546875
-0.1849365234375
-0.1861572265625
-0.18890380859375
-0.19012451171875
-0.2032470703125
-0.22003173828125
-0.22003173828125
-0.20782470703125
-0.1947021484375
-0.1605224609375
-0.111083984375
-0.098876953125
-0.09063720703125
-0.10772705078125
-0.111083984375
-0.12237548828125
-0.1507568359375
-0.181884765625
-0.19683837890625
-0.19195556640625
-0.1904296875
-0.2001953125
-0.208740234375
-0.17730712890625
-0.1373291015625
-0.1226806640625
-0.10955810546875
-0.13580322265625
-0.1580810546875
-0.1416015625
-0.11810302734375
-0.1190185546875
-0.13519287109375
-0.1544189453125
-0.16510009765625
-0.15716552734375
-0.1507568359375
-0.15777587890625
-0.145263671875
-0.13671875
-0.14801025390625
-0.162353515625
-0.1824951171875
-0.1776123046875
-0.15777587890625
-0.14007568359375
-0.15777587890625
-0.2032470703125
-0.267333984375
-0.333251953125
-0.3765869140625
-0.4132080078125
-0.44403076171875
-0.47393798828125
-0.48675537109375
-0.49163818359375
-0.4803466796875
-0.4473876953125
-0.4254150390625
-0.43975830078125
-0.4473876953125
-0.3826904296875
-0.306396484375
-0.24871826171875
-0.15838623046875
-0.06195068359375
0.0286865234375
0.152587890625
0.30914306640625
0.46844482421875
0.6512451171875
0.88348388671875
1.16485595703125
1.47857666015625
1.8096923828125
2.12921142578125
2.4609375
2.762451171875
3.03314208984375
3.26324462890625
3.3935546875
3.436279296875
3.47137451171875
3.529052734375
3.5467529296875
3.47015380859375
3.292236328125
3.06610107421875
2.813720703125
2.55645751953125
2.31170654296875
2.06634521484375
1.8157958984375
1.5533447265625
1.26922607421875
0.99029541015625
0.74127197265625
0.538330078125
0.34088134765625
0.125732421875
-0.03875732421875
-0.1202392578125
-0.11962890625
-0.10498046875
-0.06134033203125
-0.00732421875
0.01739501953125
0.0164794921875
0.048828125
0.10009765625
0.1104736328125
0.10467529296875
0.0897216796875
0.07171630859375
0.1202392578125
0.15472412109375
0.10284423828125
0.0592041015625
0.0537109375
0.05767822265625
0.05218505859375
0.04913330078125
0.035400390625
0.03173828125
0.01678466796875
-0.00274658203125
-0.02685546875
-0.04302978515625
-0.05645751953125
-0.086669921875
-0.1202392578125
-0.12786865234375
-0.12786865234375
-0.1300048828125
-0.11260986328125
-0.09033203125
-0.09307861328125
-0.09674072265625
-0.09063720703125
-0.08941650390625
-0.09307861328125
-0.08392333984375
-0.0958251953125
-0.11962890625
-0.13946533203125
-0.1397705078125
-0.13458251953125
-0.14404296875
-0.15625
-0.15472412109375
-0.1519775390625
-0.1568603515625
-0.1507568359375
-0.135498046875
-0.125732421875
-0.10101318359375
-0.0701904296875
-0.0555419921875
-0.07781982421875
-0.09979248046875
-0.11444091796875
-0.106201171875
-0.09185791015625
-0.0927734375
-0.10498046875
-0.130615234375
-0.1544189453125
-0.16357421875
-0.1513671875
-0.13153076171875
-0.1177978515625
-0.11383056640625
-0.11627197265625
-0.09796142578125
-0.0994873046875
-0.125732421875
-0.13275146484375
-0.11077880859375
-0.09124755859375
-0.0579833984375
-0.02166748046875
-0.0146484375
-0.045166015625
-0.07293701171875
-0.05828857421875
-0.0262451171875
-0.015869140625
-0.008544921875
-0.0091552734375
-0.0244140625
-0.0244140625
-0.00701904296875
-0.00244140625
-0.025634765625
-0.05279541015625
-0.0592041015625
-0.0360107421875
-0.0396728515625
-0.07232666015625
-0.062255859375
-0.0146484375
0.01708984375
0.01373291015625
-0.01556396484375
-0.00457763671875
0.01495361328125
0.0286865234375
0.032958984375
0.018310546875
0.00152587890625
-0.00762939453125
-0.010986328125
-0.0439453125
-0.07568359375
-0.0897216796875
-0.0653076171875
0.0067138671875
0.0872802734375
0.15411376953125
0.19500732421875
0.19195556640625
0.16021728515625
0.13031005859375
0.12115478515625
0.1153564453125
0.098876953125
0.09033203125
0.10101318359375
0.1165771484375
0.09857177734375
0.06622314453125
0.06439208984375
0.10162353515625
0.1300048828125
0.12908935546875
0.12481689453125
0.12115478515625
0.1239013671875
0.1458740234375
0.16876220703125
0.18341064453125
0.20263671875
0.22430419921875
0.225830078125
0.2099609375
0.1983642578125
0.19073486328125
0.1751708984375
0.15228271484375
0.14312744140625
0.1708984375
0.1995849609375
0.206298828125
0.22918701171875
0.25360107421875
0.250244140625
0.2508544921875
0.255126953125
0.263671875
0.260009765625
0.2545166015625
0.26702880859375
0.2813720703125
0.29571533203125
0.30670166015625
0.31036376953125
0.32806396484375
0.34576416015625
0.3564453125
0.3564453125
0.3656005859375
0.3875732421875
0.4052734375
0.421142578125
0.42999267578125
0.41351318359375
0.3948974609375
0.37109375
0.34759521484375
0.3521728515625
0.3961181640625
0.4681396484375
0.50384521484375
0.49407958984375
0.50750732421875
0.50628662109375
0.496826171875
0.50689697265625
0.53436279296875
0.56671142578125
0.57403564453125
0.572509765625
0.5548095703125
0.5682373046875
0.58502197265625
0.59234619140625
0.5950927734375
0.589599609375
0.596923828125
0.6097412109375
0.61370849609375
0.62530517578125
0.64178466796875
0.65032958984375
0.66436767578125
0.6646728515625
0.640869140625
0.6292724609375
0.6451416015625
0.66314697265625
0.66864013671875
0.6549072265625
0.63568115234375
0.63568115234375
0.64849853515625
0.6695556640625
0.687255859375
0.7049560546875
0.743408203125
0.76202392578125
0.73974609375
0.69549560546875
0.672607421875
0.65948486328125
0.6689453125
0.6951904296875
0.7427978515625
0.7659912109375
0.709228515625
0.645751953125
0.60272216796875
0.570068359375
0.55816650390625
0.53802490234375
0.50872802734375
0.482177734375
0.47943115234375
0.4937744140625
0.48004150390625
0.45745849609375
0.4437255859375
0.41046142578125
0.3533935546875
0.31890869140625
0.289306640625
0.24658203125
0.20355224609375
0.1812744140625
0.16265869140625
0.13702392578125
0.1153564453125
0.111083984375
0.10101318359375
0.07537841796875
0.05889892578125
0.05767822265625
0.0482177734375
0.06378173828125
0.07171630859375
0.0433349609375
0.0384521484375
0.0225830078125
-0.00518798828125
-0.03631591796875
-0.0531005859375
-0.0799560546875
-0.09979248046875
-0.1043701171875
-0.1043701171875
-0.1153564453125
-0.1324462890625
-0.1495361328125
-0.16204833984375
-0.16632080078125
-0.15869140625
-0.145263671875
-0.16693115234375
-0.18707275390625
-0.18341064453125
-0.17822265625
-0.18768310546875
-0.2093505859375
-0.22613525390625
-0.22674560546875
-0.22216796875
-0.2130126953125
-0.2154541015625
-0.22186279296875
-0.2276611328125
-0.22613525390625
-0.22186279296875
-0.2105712890625
-0.20538330078125
-0.2264404296875
-0.247802734375
-0.25543212890625
-0.26519775390625
-0.26611328125
-0.264892578125
-0.26885986328125
-0.2569580078125
-0.23468017578125
-0.228271484375
-0.24810791015625
-0.25543212890625
-0.247802734375
-0.2569580078125
-0.28594970703125
-0.30975341796875
-0.29571533203125
-0.25177001953125
-0.1910400390625
-0.12359619140625
-0.064697265625
-0.0677490234375
-0.10498046875
-0.15716552734375
-0.1971435546875
-0.23681640625
-0.260009765625
-0.24932861328125
-0.25390625
-0.2496337890625
-0.21636962890625
-0.17578125
-0.1641845703125
-0.17181396484375
-0.1776123046875
-0.17547607421875
-0.17242431640625
-0.16998291015625
-0.179443359375
-0.20660400390625
-0.2374267578125
-0.2435302734375
-0.218505859375
-0.1995849609375
-0.1812744140625
-0.1397705078125
-0.13397216796875
-0.164794921875
-0.18463134765625
-0.1849365234375
-0.17547607421875
-0.1806640625
-0.1861572265625
-0.1617431640625
-0.140380859375
-0.1605224609375
-0.18707275390625
-0.1934814453125
-0.196533203125
-0.1824951171875
-0.16571044921875
-0.17303466796875
-0.181884765625
-0.17181396484375
-0.1507568359375
-0.1373291015625
-0.14739990234375
-0.167236328125
-0.185546875
-0.2008056640625
-0.20782470703125
-0.21087646484375
-0.20782470703125
-0.20355224609375
-0.20416259765625
-0.19622802734375
-0.184326171875
-0.15472412109375
-0.147705078125
-0.14984130859375
-0.1519775390625
-0.1513671875
-0.128173828125
-0.1318359375
-0.15716552734375
-0.17364501953125
-0.181884765625
-0.189208984375
-0.20263671875
-0.18951416015625
-0.1556396484375
-0.13336181640625
-0.108642578125
-0.103759765625
-0.11566162109375
-0.12969970703125
-0.13946533203125
-0.1519775390625
-0.15045166015625
-0.13427734375
-0.108642578125
-0.1025390625
-0.137939453125
-0.19195556640625
-0.18341064453125
-0.10009765625
-0.01922607421875
0.01007080078125
0.0048828125
-0.00244140625
0.0128173828125
0.02777099609375
0.025634765625
0.0225830078125
0.02044677734375
0.0299072265625
0.04302978515625
0.06561279296875
0.076904296875
0.06195068359375
0.05340576171875
0.0726318359375
0.07080078125
0.05584716796875
0.050048828125
0.0408935546875
0.0244140625
0.02227783203125
0.03173828125
0.05126953125
0.08026123046875
0.09765625
0.09979248046875
0.1055908203125
0.1495361328125
0.205078125
0.2178955078125
0.194091796875
0.18096923828125
0.1934814453125
0.185546875
0.16204833984375
0.1611328125
0.18035888671875
0.181884765625
0.19012451171875
0.211181640625
0.20111083984375
0.20538330078125
0.2081298828125
0.1873779296875
0.17669677734375
0.191650390625
0.20751953125
0.21728515625
0.21881103515625
0.2001953125
0.17791748046875
0.16204833984375
0.1495361328125
0.14190673828125
0.15106201171875
0.1483154296875
0.140380859375
0.1141357421875
0.0738525390625
0.03875732421875
0.00640869140625
-0.02593994140625
-0.076904296875
-0.12298583984375
-0.140380859375
-0.1275634765625
-0.0897216796875
-0.05828857421875
-0.035400390625
-0.0189208984375
0.00762939453125
0.0189208984375
0.028076171875
0.0152587890625
-0.0274658203125
-0.079345703125
-0.1007080078125
-0.1141357421875
-0.12451171875
-0.13153076171875
-0.09490966796875
-0.0750732421875
-0.0958251953125
-0.098876953125
-0.098876953125
-0.1214599609375
-0.164794921875
-0.19134521484375
-0.19683837890625
-0.16693115234375
-0.142822265625
-0.1507568359375
-0.16937255859375
-0.16693115234375
-0.1568603515625
-0.15655517578125
-0.169677734375
-0.15106201171875
-0.12725830078125
-0.147705078125
-0.19927978515625
-0.18951416015625
-0.15533447265625
-0.15380859375
-0.16143798828125
-0.15472412109375
-0.15899658203125
-0.1788330078125
-0.1953125
-0.1959228515625
-0.19317626953125
-0.186767578125
-0.18341064453125
-0.17913818359375
-0.172119140625
-0.17913818359375
-0.185546875
-0.1904296875
-0.1983642578125
-0.20965576171875
-0.184326171875
-0.1593017578125
-0.1483154296875
-0.1409912109375
-0.15045166015625
-0.15625
-0.14404296875
-0.120849609375
-0.113525390625
-0.1409912109375
-0.17669677734375
-0.1593017578125
-0.1251220703125
-0.13275146484375
-0.15380859375
-0.1629638671875
-0.1715087890625
-0.18829345703125
-0.20965576171875
-0.228271484375
-0.25726318359375
-0.30609130859375
-0.35919189453125
-0.40802001953125
-0.44769287109375
-0.479736328125
-0.499267578125
-0.5120849609375
-0.52001953125
-0.52032470703125
-0.51055908203125
-0.51116943359375
-0.50750732421875
-0.4779052734375
-0.41046142578125
-0.32928466796875
-0.23101806640625
-0.13031005859375
-0.01922607421875
0.115966796875
0.26885986328125
0.4486083984375
0.6439208984375
0.8697509765625
1.1419677734375
1.43402099609375
1.75140380859375
2.069091796875
2.4114990234375
2.73101806640625
2.98126220703125
3.16314697265625
3.31146240234375
3.44390869140625
3.55316162109375
3.6083984375
3.6224365234375
3.5809326171875
3.47015380859375
3.26416015625
2.98828125
2.7105712890625
2.44384765625
2.1685791015625
1.88873291015625
1.61895751953125
1.32110595703125
1.04034423828125
0.810546875
0.64056396484375
0.49652099609375
0.3582763671875
0.25970458984375
0.2392578125
0.26947021484375
0.27252197265625
0.2056884765625
0.14984130859375
0.1080322265625
0.081787109375
0.069580078125
0.07171630859375
0.08270263671875
0.0958251953125
0.09857177734375
0.09674072265625
0.08056640625
0.0848388671875
0.0787353515625
0.068359375
0.04302978515625
0.02593994140625
0.06103515625
0.09033203125
0.0537109375
-0.009765625
-0.0592041015625
-0.089111328125
-0.10589599609375
-0.09765625
-0.08544921875
-0.059814453125
-0.04058837890625
-0.04730224609375
-0.07598876953125
-0.10162353515625
-0.11566162109375
-0.115966796875
-0.10711669921875
-0.10894775390625
-0.11505126953125
-0.12237548828125
-0.13031005859375
-0.14007568359375
-0.1458740234375
-0.1361083984375
-0.1300048828125
-0.1348876953125
-0.14007568359375
-0.1397705078125
-0.135498046875
-0.13336181640625
-0.115966796875
-0.08880615234375
-0.079345703125
-0.10833740234375
-0.14373779296875
-0.15838623046875
-0.15838623046875
-0.16265869140625
-0.1654052734375
-0.15716552734375
-0.13031005859375
-0.096435546875
-0.08056640625
-0.05126953125
-0.03173828125
-0.05645751953125
-0.09063720703125
-0.09735107421875
-0.09674072265625
-0.0885009765625
-0.0909423828125
-0.10406494140625
-0.126953125
-0.1287841796875
-0.09857177734375
-0.04486083984375
-0.01312255859375
-0.02288818359375
-0.0518798828125
-0.076904296875
-0.0762939453125
-0.064697265625
-0.0579833984375
-0.04669189453125
-0.0299072265625
-0.01708984375
-0.01922607421875
-0.05126953125
-0.07781982421875
-0.08636474609375
-0.0738525390625
-0.0628662109375
-0.0665283203125
-0.06317138671875
-0.04241943359375
-0.003662109375
0.0335693359375
0.0506591796875
0.0604248046875
0.05126953125
0.0189208984375
-0.0103759765625
-0.0384521484375
-0.05828857421875
-0.0592041015625
-0.06591796875
-0.05767822265625
-0.008544921875
0.059814453125
0.10833740234375
0.108642578125
0.07476806640625
0.0537109375
0.03631591796875
0.04119873046875
0.07110595703125
0.1055908203125
0.1165771484375
0.115966796875
0.10223388671875
0.07965087890625
0.0701904296875
0.05706787109375
0.0335693359375
0.0152587890625
0.0091552734375
0.0311279296875
0.0616455078125
0.081787109375
0.0970458984375
0.11993408203125
0.14129638671875
0.135498046875
0.11199951171875
0.09613037109375
0.10223388671875
0.10711669921875
0.11077880859375
0.1153564453125
0.12054443359375
0.10833740234375
0.1129150390625
0.1385498046875
0.15167236328125
0.16021728515625
0.1824951171875
0.2105712890625
0.2203369140625
0.2313232421875
0.24017333984375
0.2532958984375
0.25726318359375
0.2630615234375
0.25726318359375
0.2545166015625
0.23651123046875
0.23040771484375
0.235595703125
0.2655029296875
0.29083251953125
0.28076171875
0.28289794921875
0.30120849609375
0.2984619140625
0.2789306640625
0.2545166015625
0.2447509765625
0.2569580078125
0.30792236328125
0.39337158203125
0.42205810546875
0.4095458984375
0.3790283203125
0.35125732421875
0.33905029296875
0.34454345703125
0.3533935546875
0.367431640625
0.4119873046875
0.439453125
0.45135498046875
0.467529296875
0.4559326171875
0.4315185546875
0.43212890625
0.4833984375
0.5206298828125
0.50079345703125
0.472412109375
0.482177734375
0.49468994140625
0.49407958984375
0.50933837890625
0.51177978515625
0.5169677734375
0.51727294921875
0.540771484375
0.57373046875
0.60455322265625
0.63201904296875
0.62652587890625
0.59814453125
0.6048583984375
0.6396484375
0.66375732421875
0.6512451171875
0.6219482421875
0.60516357421875
0.5999755859375
0.59417724609375
0.595703125
0.6195068359375
0.64727783203125
0.640869140625
0.635986328125
0.6646728515625
0.68878173828125
0.67230224609375
0.67413330078125
0.6744384765625
0.670166015625
0.63995361328125
0.59326171875
0.58990478515625
0.59539794921875
0.5694580078125
0.550537109375
0.5487060546875
0.56915283203125
0.55419921875
0.5377197265625
0.54962158203125
0.58990478515625
0.61248779296875
0.59356689453125
0.5462646484375
0.50689697265625
0.4620361328125
0.4254150390625
0.3936767578125
0.37017822265625
0.33721923828125
0.29510498046875
0.27008056640625
0.2691650390625
0.2569580078125
0.2252197265625
0.19866943359375
0.16693115234375
0.12969970703125
0.103759765625
0.1025390625
0.11474609375
0.10528564453125
0.05279541015625
0.0103759765625
-0.023193359375
-0.04058837890625
-0.0445556640625
-0.032958984375
-0.01068115234375
-0.010986328125
-0.03082275390625
-0.04791259765625
-0.07354736328125
-0.1019287109375
-0.09429931640625
-0.078125
-0.07843017578125
-0.10162353515625
-0.14129638671875
-0.1861572265625
-0.22125244140625
-0.2398681640625
-0.24322509765625
-0.2264404296875
-0.1995849609375
-0.17608642578125
-0.16693115234375
-0.166015625
-0.19989013671875
-0.22613525390625
-0.23040771484375
-0.23651123046875
-0.25421142578125
-0.2490234375
-0.23406982421875
-0.23895263671875
-0.25848388671875
-0.27801513671875
-0.299072265625
-0.30853271484375
-0.294189453125
-0.284423828125
-0.2642822265625
-0.2655029296875
-0.2734375
-0.272216796875
-0.25115966796875
-0.20904541015625
-0.1776123046875
-0.17791748046875
-0.20599365234375
-0.23895263671875
-0.2581787109375
-0.2618408203125
-0.267333984375
-0.2789306640625
-0.2716064453125
-0.2508544921875
-0.24200439453125
-0.2642822265625
-0.277099609375
-0.264892578125
-0.2716064453125
-0.2789306640625
-0.28076171875
-0.26580810546875
-0.26123046875
-0.26611328125
-0.2423095703125
-0.22918701171875
-0.22735595703125
-0.20599365234375
-0.18035888671875
-0.1690673828125
-0.169677734375
-0.20050048828125
-0.25146484375
-0.2899169921875
-0.289306640625
-0.24932861328125
-0.2032470703125
-0.1910400390625
-0.18829345703125
-0.16387939453125
-0.1361083984375
-0.14892578125
-0.17303466796875
-0.1947021484375
-0.21728515625
-0.23223876953125
-0.225830078125
-0.2264404296875
-0.22552490234375
-0.2099609375
-0.19012451171875
-0.17791748046875
-0.17242431640625
-0.1690673828125
-0.1641845703125
-0.16082763671875
-0.14739990234375
-0.1580810546875
-0.179443359375
-0.196533203125
-0.2056884765625
-0.21636962890625
-0.2142333984375
-0.2105712890625
-0.2117919921875
-0.20904541015625
-0.19256591796875
-0.18646240234375
-0.1885986328125
-0.1861572265625
-0.17608642578125
-0.17547607421875
-0.1904296875
-0.205078125
-0.211181640625
-0.20477294921875
-0.18951416015625
-0.20050048828125
-0.216064453125
-0.2008056640625
-0.1824951171875
-0.1904296875
-0.21240234375
-0.2301025390625
-0.22216796875
-0.19317626953125
-0.1495361328125
-0.12664794921875
-0.12664794921875
-0.15899658203125
-0.181884765625
-0.1824951171875
-0.172119140625
-0.14862060546875
-0.14556884765625
-0.16815185546875
-0.181884765625
-0.179443359375
-0.181884765625
-0.17181396484375
-0.167236328125
-0.17120361328125
-0.17333984375
-0.1849365234375
-0.1873779296875
-0.17303466796875
-0.1544189453125
-0.15167236328125
-0.155029296875
-0.1446533203125
-0.10528564453125
-0.04547119140625
-0.0079345703125
0.00274658203125
-0.0146484375
-0.02777099609375
-0.03570556640625
-0.0531005859375
-0.072021484375
-0.07659912109375
-0.076904296875
-0.05828857421875
0.00213623046875
0.0555419921875
0.08026123046875
0.0689697265625
0.030517578125
0.00518798828125
0.010986328125
0.029296875
0.03387451171875
0.02410888671875
0.00518798828125
0.0238037109375
0.07781982421875
0.14190673828125
0.18280029296875
0.1824951171875
0.15594482421875
0.135498046875
0.126953125
0.10650634765625
0.0665283203125
0.04852294921875
0.07659912109375
0.08636474609375
0.06866455078125
0.0701904296875
0.1055908203125
0.14434814453125
0.15899658203125
0.1690673828125
0.17730712890625
0.1715087890625
0.16387939453125
0.14556884765625
0.11383056640625
0.09735107421875
0.09979248046875
0.12115478515625
0.15533447265625
0.177001953125
0.1708984375
0.142822265625
0.1190185546875
0.106201171875
0.08056640625
0.0726318359375
0.0775146484375
0.06805419921875
0.03509521484375
-0.00213623046875
-0.02197265625
-0.01739501953125
-0.00732421875
0.00823974609375
-0.00152587890625
-0.02166748046875
-0.0390625
-0.06195068359375
-0.079345703125
-0.089111328125
-0.0848388671875
-0.07659912109375
-0.0836181640625
-0.0958251953125
-0.098876953125
-0.10833740234375
-0.11566162109375
-0.1171875
-0.11810302734375
-0.12451171875
-0.140380859375
-0.18310546875
-0.21392822265625
-0.2252197265625
-0.2178955078125
-0.22613525390625
-0.21942138671875
-0.23101806640625
-0.228271484375
-0.21453857421875
-0.2099609375
-0.2105712890625
-0.20355224609375
-0.17791748046875
-0.16632080078125
-0.19317626953125
-0.2227783203125
-0.1947021484375
-0.1409912109375
-0.135498046875
-0.1824951171875
-0.2166748046875
-0.23651123046875
-0.25360107421875
-0.2630615234375
-0.25634765625
-0.2581787109375
-0.25360107421875
-0.2362060546875
-0.2294921875
-0.2166748046875
-0.19500732421875
-0.17059326171875
-0.1959228515625
-0.23773193359375
-0.25482177734375
-0.245361328125
-0.23590087890625
-0.23834228515625
-0.263671875
-0.26611328125
-0.2288818359375
-0.1708984375
-0.14739990234375
-0.15411376953125
-0.17608642578125
-0.20660400390625
-0.213623046875
-0.1953125
-0.17333984375
-0.169677734375
-0.1934814453125
-0.21697998046875
-0.2032470703125
-0.1776123046875
-0.1861572265625
-0.203857421875
-0.2081298828125
-0.21881103515625
-0.224609375
-0.234375
-0.2642822265625
-0.3125
-0.3656005859375
-0.4278564453125
-0.49102783203125
-0.52703857421875
-0.5560302734375
-0.5712890625
-0.577392578125
-0.56488037109375
-0.5474853515625
-0.55511474609375
-0.55572509765625
-0.53558349609375
-0.4913330078125
-0.4095458984375
-0.30670166015625
-0.17608642578125
-0.03265380859375
0.10223388671875
0.25360107421875
0.452880859375
0.72265625
1.01043701171875
1.28204345703125
1.57562255859375
1.8658447265625
2.1612548828125
2.4530029296875
2.7020263671875
2.943115234375
3.17901611328125
3.34442138671875
3.4600830078125
3.53668212890625
3.54400634765625
3.50982666015625
3.4210205078125
3.24798583984375
3.02337646484375
2.760009765625
2.479248046875
2.20458984375
1.97265625
1.741943359375
1.502685546875
1.23748779296875
0.97076416015625
0.733642578125
0.59295654296875
0.4974365234375
0.39276123046875
0.31646728515625
0.26824951171875
0.21728515625
0.1763916015625
0.142822265625
0.11993408203125
0.07659912109375
0.0238037109375
-0.00946044921875
-0.01922607421875
0.00518798828125
0.03509521484375
0.06683349609375
0.08209228515625
0.05126953125
0.0164794921875
0.001220703125
-0.00152587890625
-0.0054931640625
-0.00946044921875
-0.01556396484375
-0.023193359375
-0.03509521484375
-0.0640869140625
-0.11383056640625
-0.1513671875
-0.1458740234375
-0.16815185546875
-0.181884765625
-0.1678466796875
-0.1409912109375
-0.106201171875
-0.08819580078125
-0.09552001953125
-0.1080322265625
-0.14129638671875
-0.17547607421875
-0.1751708984375
-0.18463134765625
-0.218505859375
-0.24261474609375
-0.24993896484375
-0.24169921875
-0.20538330078125
-0.1702880859375
-0.1727294921875
-0.17486572265625
-0.17578125
-0.19500732421875
-0.20904541015625
-0.16937255859375
-0.15167236328125
-0.18310546875
-0.21575927734375
-0.22064208984375
-0.21026611328125
-0.21514892578125
-0.2215576171875
-0.2081298828125
-0.19256591796875
-0.19256591796875
-0.1971435546875
-0.203857421875
-0.1904296875
-0.16815185546875
-0.16387939453125
-0.16845703125
-0.14923095703125
-0.1312255859375
-0.12847900390625
-0.14984130859375
-0.18951416015625
-0.20050048828125
-0.2020263671875
-0.18585205078125
-0.1666259765625
-0.15716552734375
-0.137939453125
-0.1373291015625
-0.1348876953125
-0.13702392578125
-0.1336669921875
-0.126953125
-0.125732421875
-0.14068603515625
-0.169677734375
-0.17364501953125
-0.1531982421875
-0.14068603515625
-0.11505126953125
-0.08514404296875
-0.07232666015625
-0.091552734375
-0.1129150390625
-0.09765625
-0.07049560546875
-0.05645751953125
-0.07171630859375
-0.1007080078125
-0.1202392578125
-0.1312255859375
-0.1287841796875
-0.13641357421875
-0.123291015625
-0.11749267578125
-0.1300048828125
-0.1385498046875
-0.155029296875
-0.17791748046875
-0.16082763671875
-0.081787109375
-0.00762939453125
0.04974365234375
0.069580078125
0.07476806640625
0.07049560546875
0.0225830078125
-0.04486083984375
-0.089111328125
-0.10711669921875
-0.0872802734375
-0.03753662109375
0.0146484375
0.05340576171875
0.03509521484375
-0.01617431640625
-0.02349853515625
0.0054931640625
0.015869140625
0.01007080078125
0.01739501953125
0.03753662109375
0.05706787109375
0.07293701171875
0.09552001953125
0.10101318359375
0.0897216796875
0.0689697265625
0.067138671875
0.06683349609375
0.05950927734375
0.04791259765625
0.0384521484375
0.01434326171875
0.010986328125
0.0457763671875
0.08880615234375
0.11505126953125
0.1287841796875
0.101318359375
0.059814453125
0.067138671875
0.096435546875
0.11077880859375
0.13702392578125
0.18402099609375
0.21697998046875
0.20111083984375
0.159912109375
0.13427734375
0.1495361328125
0.18157958984375
0.18218994140625
0.1715087890625
0.16937255859375
0.18585205078125
0.20904541015625
0.26519775390625
0.30731201171875
0.29693603515625
0.26092529296875
0.23193359375
0.2178955078125
0.230712890625
0.26275634765625
0.28656005859375
0.2947998046875
0.28839111328125
0.29266357421875
0.31585693359375
0.33111572265625
0.33538818359375
0.36102294921875
0.38360595703125
0.3961181640625
0.39520263671875
0.377197265625
0.3448486328125
0.29205322265625
0.2703857421875
0.29541015625
0.34454345703125
0.39581298828125
0.42205810546875
0.44342041015625
0.44921875
0.44647216796875
0.47607421875
0.51544189453125
0.53497314453125
0.55938720703125
0.577392578125
0.54168701171875
0.51055908203125
0.4986572265625
0.48492431640625
0.4864501953125
0.4974365234375
0.5328369140625
0.55938720703125
0.57952880859375
0.58349609375
0.5841064453125
0.56732177734375
0.54718017578125
0.5377197265625
0.54962158203125
0.55206298828125
0.54718017578125
0.5450439453125
0.543212890625
0.55938720703125
0.5572509765625
0.5511474609375
0.543212890625
0.51116943359375
0.478515625
0.4541015625
0.43701171875
0.4144287109375
0.401611328125
0.41961669921875
0.4443359375
0.48858642578125
0.516357421875
0.48004150390625
0.4132080078125
0.34088134765625
0.29144287109375
0.2630615234375
0.2593994140625
0.25970458984375
0.2532958984375
0.23834228515625
0.2239990234375
0.19927978515625
0.169677734375
0.13763427734375
0.1031494140625
0.076904296875
0.05889892578125
0.02105712890625
-0.0311279296875
-0.08209228515625
-0.0823974609375
-0.07171630859375
-0.1055908203125
-0.13916015625
-0.14190673828125
-0.1214599609375
-0.1031494140625
-0.106201171875
-0.125732421875
-0.13763427734375
-0.13397216796875
-0.13519287109375
-0.16510009765625
-0.1953125
-0.2325439453125
-0.25726318359375
-0.27557373046875
-0.2899169921875
-0.30303955078125
-0.308837890625
-0.30609130859375
-0.3094482421875
-0.28656005859375
-0.26031494140625
-0.262451171875
-0.26031494140625
-0.2587890625
-0.26458740234375
-0.279541015625
-0.2935791015625
-0.29296875
-0.28106689453125
-0.29296875
-0.313720703125
-0.335693359375
-0.33416748046875
-0.3424072265625
-0.36041259765625
-0.39764404296875
-0.42816162109375
-0.44708251953125
-0.45074462890625
-0.40435791015625
-0.3271484375
-0.24749755859375
-0.2117919921875
-0.21484375
-0.25177001953125
-0.284423828125
-0.28350830078125
-0.301513671875
-0.31494140625
-0.28900146484375
-0.2984619140625
-0.3125
-0.29541015625
-0.283203125
-0.2789306640625
-0.29541015625
-0.3143310546875
-0.3143310546875
-0.286865234375
-0.2618408203125
-0.28533935546875
-0.3094482421875
-0.33233642578125
-0.33538818359375
-0.3143310546875
-0.28900146484375
-0.264892578125
-0.24505615234375
-0.25360107421875
-0.25787353515625
-0.27099609375
-0.28533935546875
-0.28045654296875
-0.2703857421875
-0.2581787109375
-0.25848388671875
-0.25115966796875
-0.26824951171875
-0.27374267578125
-0.24993896484375
-0.25299072265625
-0.2667236328125
-0.26458740234375
-0.25360107421875
-0.2423095703125
-0.2410888671875
-0.2264404296875
-0.22491455078125
-0.2435302734375
-0.25421142578125
-0.233154296875
-0.21728515625
-0.22796630859375
-0.25604248046875
-0.29205322265625
-0.29693603515625
-0.26153564453125
-0.235595703125
-0.233154296875
-0.2484130859375
-0.2593994140625
-0.27618408203125
-0.29144287109375
-0.2752685546875
-0.26123046875
-0.2593994140625
-0.2618408203125
-0.25909423828125
-0.24017333984375
-0.20111083984375
-0.1629638671875
-0.1568603515625
-0.19561767578125
-0.233154296875
-0.24566650390625
-0.25726318359375
-0.2667236328125
-0.26458740234375
-0.2490234375
-0.23345947265625
-0.19073486328125
-0.1629638671875
-0.17059326171875
-0.1971435546875
-0.23590087890625
-0.27099609375
-0.28533935546875
-0.27679443359375
-0.29022216796875
-0.32379150390625
-0.3326416015625
-0.2911376953125
-0.25909423828125
-0.25054931640625
-0.2301025390625
-0.20904541015625
-0.1947021484375
-0.17913818359375
-0.1708984375
-0.18157958984375
-0.2056884765625
-0.2374267578125
-0.2386474609375
-0.1898193359375
-0.16448974609375
-0.1702880859375
-0.22735595703125
-0.26702880859375
-0.28228759765625
-0.263671875
-0.22674560546875
-0.201416015625
-0.1971435546875
-0.18585205078125
-0.17333984375
-0.172119140625
-0.1690673828125
-0.191650390625
-0.2081298828125
-0.22796630859375
-0.23162841796875
-0.21209716796875
-0.20050048828125
-0.179443359375
-0.15960693359375
-0.19439697265625
-0.23895263671875
-0.245361328125
-0.21942138671875
-0.19744873046875
-0.1885986328125
-0.18798828125
-0.20294189453125
-0.2081298828125
-0.18218994140625
-0.1513671875
-0.13519287109375
-0.157470703125
-0.18463134765625
-0.21820068359375
-0.23834228515625
-0.24688720703125
-0.23834228515625
-0.21759033203125
-0.1873779296875
-0.1763916015625
-0.18524169921875
-0.19439697265625
-0.18890380859375
-0.164794921875
-0.15106201171875
-0.18768310546875
-0.22705078125
-0.23223876953125
-0.2288818359375
-0.2288818359375
-0.233154296875
-0.242919921875
-0.24017333984375
-0.2069091796875
-0.17486572265625
-0.1885986328125
-0.2056884765625
-0.19683837890625
-0.16876220703125
-0.107421875
-0.054931640625
-0.01495361328125
0.0103759765625
0.0152587890625
-0.050048828125
-0.0946044921875
-0.10528564453125
-0.0885009765625
-0.06744384765625
-0.0799560546875
-0.0762939453125
-0.05035400390625
-0.01678466796875
0.02105712890625
0.048828125
0.0396728515625
0.00152587890625
-0.03753662109375
-0.05279541015625
-0.0439453125
-0.0408935546875
-0.025634765625
0.01068115234375
0.05706787109375
0.07537841796875
0.10284423828125
0.11138916015625
0.1116943359375
0.09124755859375
0.08453369140625
0.10223388671875
0.125732421875
0.14892578125
0.15350341796875
0.1385498046875
0.1220703125
0.10101318359375
0.0665283203125
0.04364013671875
0.04547119140625
0.05035400390625
0.04730224609375
0.08148193359375
0.09429931640625
0.08270263671875
0.07598876953125
0.0732421875
0.0982666015625
0.1214599609375
0.1470947265625
0.1611328125
0.17120361328125
0.14739990234375
0.11138916015625
0.1007080078125
0.101318359375
0.09674072265625
0.1007080078125
0.1080322265625
0.07720947265625
0.00213623046875
-0.02777099609375
-0.047607421875
-0.0732421875
-0.079345703125
-0.08575439453125
-0.089111328125
-0.09429931640625
-0.0836181640625
-0.05035400390625
-0.03936767578125
-0.04150390625
-0.06561279296875
-0.081787109375
-0.08880615234375
-0.0921630859375
-0.10467529296875
-0.14251708984375
-0.18157958984375
-0.21636962890625
-0.22979736328125
-0.23040771484375
-0.2276611328125
-0.21728515625
-0.19683837890625
-0.19561767578125
-0.2154541015625
-0.21514892578125
-0.191650390625
-0.1715087890625
-0.19378662109375
-0.20965576171875
-0.22796630859375
-0.23590087890625
-0.2264404296875
-0.22613525390625
-0.22796630859375
-0.23529052734375
-0.218505859375
-0.2020263671875
-0.17822265625
-0.167236328125
-0.1971435546875
-0.21331787109375
-0.20355224609375
-0.21209716796875
-0.2435302734375
-0.279541015625
-0.3021240234375
-0.27099609375
-0.22003173828125
-0.22003173828125
-0.245361328125
-0.2435302734375
-0.2325439453125
-0.22735595703125
-0.24169921875
-0.238037109375
-0.2484130859375
-0.25054931640625
-0.2264404296875
-0.2191162109375
-0.2276611328125
-0.21484375
-0.2197265625
-0.22003173828125
-0.230712890625
-0.24688720703125
-0.277099609375
-0.30059814453125
-0.277099609375
-0.24169921875
-0.20751953125
-0.1861572265625
-0.15167236328125
-0.13946533203125
-0.16265869140625
-0.1641845703125
-0.16998291015625
-0.1959228515625
-0.24078369140625
-0.28076171875
-0.3399658203125
-0.39794921875
-0.45074462890625
-0.4876708984375
-0.52215576171875
-0.54473876953125
-0.5316162109375
-0.5078125
-0.4949951171875
-0.4974365234375
-0.52459716796875
-0.57952880859375
-0.587158203125
-0.535888671875
-0.47027587890625
-0.400390625
-0.31005859375
-0.21820068359375
-0.09368896484375
0.057373046875
0.22918701171875
0.4168701171875
0.62347412109375
0.86212158203125
1.1212158203125
1.40380859375
1.71539306640625
2.02606201171875
2.315673828125
2.57476806640625
2.79754638671875
2.9913330078125
3.12225341796875
3.216552734375
3.29864501953125
3.31878662109375
3.28369140625
3.18267822265625
3.0096435546875
2.7667236328125
2.51495361328125
2.2869873046875
2.06512451171875
1.81732177734375
1.55059814453125
1.2884521484375
1.03271484375
0.78826904296875
0.60302734375
0.45745849609375
0.3533935546875
0.28411865234375
0.24444580078125
0.19073486328125
0.15533447265625
0.135498046875
0.12939453125
0.1104736328125
0.08331298828125
0.0445556640625
0.00579833984375
-0.018310546875
-0.00091552734375
0.01861572265625
0.01953125
0.0189208984375
0.00640869140625
0.00030517578125
-0.0048828125
-0.01708984375
-0.03173828125
-0.0341796875
-0.0579833984375
-0.096435546875
-0.13671875
-0.17913818359375
-0.20904541015625
-0.20538330078125
-0.17730712890625
-0.137939453125
-0.12725830078125
-0.10772705078125
-0.1153564453125
-0.1373291015625
-0.16571044921875
-0.16876220703125
-0.16265869140625
-0.1678466796875
-0.13702392578125
-0.1361083984375
-0.1580810546875
-0.18157958984375
-0.1800537109375
-0.15625
-0.16357421875
-0.18157958984375
-0.2020263671875
-0.2093505859375
-0.2056884765625
-0.19622802734375
-0.1922607421875
-0.21087646484375
-0.2154541015625
-0.20416259765625
-0.1904296875
-0.18157958984375
-0.186767578125
-0.1934814453125
-0.1947021484375
-0.19500732421875
-0.2032470703125
-0.1983642578125
-0.1849365234375
-0.16937255859375
-0.1702880859375
-0.1934814453125
-0.1983642578125
-0.1824951171875
-0.16143798828125
-0.1690673828125
-0.18951416015625
-0.184326171875
-0.166015625
-0.16510009765625
-0.162353515625
-0.16021728515625
-0.1416015625
-0.12939453125
-0.1318359375
-0.17181396484375
-0.201416015625
-0.1910400390625
-0.16998291015625
-0.166015625
-0.16754150390625
-0.1739501953125
-0.174560546875
-0.18646240234375
-0.17120361328125
-0.14190673828125
-0.10040283203125
-0.089111328125
-0.06591796875
-0.0555419921875
-0.0665283203125
-0.0811767578125
-0.08636474609375
-0.0909423828125
-0.1068115234375
-0.11627197265625
-0.096435546875
-0.08941650390625
-0.08270263671875
-0.0970458984375
-0.1025390625
-0.10833740234375
-0.12786865234375
-0.13641357421875
-0.13671875
-0.12664794921875
-0.120849609375
-0.09368896484375
-0.03692626953125
-0.02349853515625
-0.05401611328125
-0.05126953125
-0.02105712890625
-0.00152587890625
0.00335693359375
0.00396728515625
-0.01068115234375
-0.01983642578125
-0.0262451171875
-0.02899169921875
-0.0115966796875
0.01861572265625
0.03997802734375
0.03875732421875
0.01068115234375
-0.03265380859375
-0.07598876953125
-0.08453369140625
-0.07110595703125
-0.0457763671875
-0.00396728515625
0.05157470703125
0.098876953125
0.10772705078125
0.09002685546875
0.07904052734375
0.0830078125
0.067138671875
0.04852294921875
0.03875732421875
0.0457763671875
0.045166015625
0.020751953125
0.0115966796875
0.0408935546875
0.07904052734375
0.09521484375
0.10284423828125
0.1214599609375
0.11932373046875
0.1025390625
0.10223388671875
0.11932373046875
0.126953125
0.1275634765625
0.13824462890625
0.15411376953125
0.15777587890625
0.1788330078125
0.1953125
0.2044677734375
0.20294189453125
0.20111083984375
0.19927978515625
0.19439697265625
0.19134521484375
0.1849365234375
0.186767578125
0.2020263671875
0.20416259765625
0.218505859375
0.2496337890625
0.26031494140625
0.247802734375
0.26092529296875
0.263671875
0.2642822265625
0.28411865234375
0.3021240234375
0.31585693359375
0.343017578125
0.386962890625
0.41168212890625
0.4156494140625
0.4180908203125
0.4132080078125
0.40802001953125
0.39215087890625
0.37689208984375
0.36346435546875
0.35247802734375
0.377197265625
0.38726806640625
0.3790283203125
0.38543701171875
0.443115234375
0.48736572265625
0.51910400390625
0.56304931640625
0.5712890625
0.548095703125
0.5279541015625
0.516357421875
0.51239013671875
0.51483154296875
0.518798828125
0.51666259765625
0.5218505859375
0.533447265625
0.53253173828125
0.54107666015625
0.56121826171875
0.56732177734375
0.55938720703125
0.5511474609375
0.5609130859375
0.5657958984375
0.56121826171875
0.54107666015625
0.540771484375
0.5474853515625
0.54962158203125
0.54168701171875
0.540771484375
0.53131103515625
0.516357421875
0.49896240234375
0.49468994140625
0.49957275390625
0.5078125
0.50201416015625
0.472412109375
0.4376220703125
0.42510986328125
0.439453125
0.433349609375
0.408935546875
0.38970947265625
0.3778076171875
0.3656005859375
0.3350830078125
0.30853271484375
0.28411865234375
0.2447509765625
0.20843505859375
0.1715087890625
0.1483154296875
0.13580322265625
0.11810302734375
0.08941650390625
0.06134033203125
0.03204345703125
0.00762939453125
-0.00335693359375
-0.00091552734375
-0.01220703125
-0.02105712890625
-0.0323486328125
-0.0445556640625
-0.06500244140625
-0.09002685546875
-0.10467529296875
-0.11016845703125
-0.1202392578125
-0.1336669921875
-0.1611328125
-0.1873779296875
-0.196533203125
-0.18951416015625
-0.18524169921875
-0.17669677734375
-0.17425537109375
-0.1806640625
-0.20599365234375
-0.22735595703125
-0.2496337890625
-0.26519775390625
-0.2587890625
-0.25146484375
-0.23162841796875
-0.23345947265625
-0.2276611328125
-0.21881103515625
-0.2191162109375
-0.21728515625
-0.22003173828125
-0.24871826171875
-0.277099609375
-0.28167724609375
-0.263671875
-0.25970458984375
-0.2618408203125
-0.260009765625
-0.27374267578125
-0.28656005859375
-0.28778076171875
-0.306396484375
-0.32135009765625
-0.313720703125
-0.284423828125
-0.24993896484375
-0.22705078125
-0.21331787109375
-0.22796630859375
-0.2520751953125
-0.2447509765625
-0.22003173828125
-0.19775390625
-0.20477294921875
-0.22857666015625
-0.2508544921875
-0.272216796875
-0.28472900390625
-0.2886962890625
-0.27923583984375
-0.26397705078125
-0.25421142578125
-0.23834228515625
-0.220947265625
-0.21209716796875
-0.20721435546875
-0.21392822265625
-0.22735595703125
-0.23529052734375
-0.23773193359375
-0.2313232421875
-0.22857666015625
-0.2178955078125
-0.21728515625
-0.238037109375
-0.25726318359375
-0.2471923828125
-0.25482177734375
-0.27496337890625
-0.30059814453125
-0.28411865234375
-0.245361328125
-0.21148681640625
-0.201416015625
-0.19195556640625
-0.19805908203125
-0.208740234375
-0.23895263671875
-0.2581787109375
-0.26031494140625
-0.262451171875
-0.26702880859375
-0.26702880859375
-0.23590087890625
-0.21240234375
-0.20843505859375
-0.198974609375
-0.1824951171875
-0.17547607421875
-0.1885986328125
-0.1995849609375
-0.21026611328125
-0.2001953125
-0.2001953125
-0.1971435546875
-0.2001953125
-0.2264404296875
-0.24078369140625
-0.24688720703125
-0.24658203125
-0.23773193359375
-0.238037109375
-0.22369384765625
-0.1934814453125
-0.16326904296875
-0.17425537109375
-0.20233154296875
-0.22003173828125
-0.2142333984375
-0.205078125
-0.20416259765625
-0.19256591796875
-0.18218994140625
-0.1873779296875
-0.2178955078125
-0.24078369140625
-0.2203369140625
-0.18768310546875
-0.186767578125
-0.19195556640625
-0.19073486328125
-0.20263671875
-0.230712890625
-0.24444580078125
-0.2386474609375
-0.22613525390625
-0.21697998046875
-0.2154541015625
-0.20599365234375
-0.1934814453125
-0.17547607421875
-0.14434814453125
-0.13671875
-0.1812744140625
-0.23345947265625
-0.27008056640625
-0.27740478515625
-0.2435302734375
-0.19439697265625
-0.17303466796875
-0.1849365234375
-0.1983642578125
-0.191650390625
-0.18096923828125
-0.1824951171875
-0.17852783203125
-0.179443359375
-0.1898193359375
-0.18585205078125
-0.17181396484375
-0.166015625
-0.16387939453125
-0.17059326171875
-0.17364501953125
-0.16937255859375
-0.1690673828125
-0.17822265625
-0.2032470703125
-0.2178955078125
-0.1971435546875
-0.1885986328125
-0.21636962890625
-0.24688720703125
-0.23895263671875
-0.2227783203125
-0.2142333984375
-0.1959228515625
-0.1788330078125
-0.18524169921875
-0.20233154296875
-0.21453857421875
-0.21209716796875
-0.20538330078125
-0.1849365234375
-0.16448974609375
-0.140380859375
-0.10986328125
-0.11993408203125
-0.15655517578125
-0.18768310546875
-0.203857421875
-0.19744873046875
