0
0.29144287109375
0.28900146484375
0.286865234375
0.284423828125
0.2886962890625
0.28900146484375
0.27984619140625
0.272216796875
0.27252197265625
0.274658203125
0.277099609375
0.2801513671875
0.28717041015625
0.277099609375
0.28228759765625
0.27984619140625
0.27496337890625
0.27435302734375
0.272216796875
0.27679443359375
0.27740478515625
0.277099609375
0.272216796875
0.27496337890625
0.27252197265625
0.27496337890625
0.27679443359375
0.27069091796875
0.27008056640625
0.27984619140625
0.27496337890625
0.2679443359375
0.27069091796875
0.267333984375
0.277099609375
0.274658203125
0.279541015625
0.26763916015625
0.274658203125
0.272216796875
0.27191162109375
0.26458740234375
0.26275634765625
0.28228759765625
0.27740478515625
0.28167724609375
0.2825927734375
0.277099609375
0.272216796875
0.279541015625
0.28472900390625
0.28472900390625
0.28900146484375
0.2874755859375
0.28839111328125
0.2911376953125
0.29296875
0.29266357421875
0.2935791015625
0.296630859375
0.30120849609375
0.29571533203125
0.296630859375
0.2911376953125
0.296630859375
0.29083251953125
0.296630859375
0.2960205078125
0.3009033203125
0.30364990234375
0.29388427734375
0.29937744140625
0.29937744140625
0.302734375
0.30120849609375
0.302734375
0.30303955078125
0.3033447265625
0.3033447265625
0.308837890625
0.3057861328125
0.308837890625
0.3155517578125
0.31768798828125
0.322265625
0.3240966796875
0.3399658203125
0.33966064453125
0.35980224609375
0.34942626953125
0.35491943359375
0.3546142578125
0.37200927734375
0.38177490234375
0.377197265625
0.38818359375
0.3936767578125
0.39398193359375
0.39581298828125
0.40374755859375
0.41412353515625
0.4119873046875
0.41412353515625
0.4150390625
0.4010009765625
0.40069580078125
0.41412353515625
0.4168701171875
0.4217529296875
0.42449951171875
0.42938232421875
0.42388916015625
0.439453125
0.43670654296875
0.440673828125
0.445556640625
0.45318603515625
0.4608154296875
0.46234130859375
0.4693603515625
0.47027587890625
0.4766845703125
0.474853515625
0.47882080078125
0.47882080078125
0.4791259765625
0.48370361328125
0.489501953125
0.4864501953125
0.4815673828125
0.4766845703125
0.4791259765625
0.479736328125
0.4791259765625
0.48126220703125
0.4840087890625
0.4815673828125
0.47210693359375
0.4833984375
0.48919677734375
0.48614501953125
0.47637939453125
0.4718017578125
0.47210693359375
0.4669189453125
0.47821044921875
0.47210693359375
0.46966552734375
0.4461669921875
0.44342041015625
0.4412841796875
0.4290771484375
0.4119873046875
0.40191650390625
0.3955078125
0.39581298828125
0.3936767578125
0.380859375
0.37200927734375
0.36163330078125
0.3497314453125
0.3326416015625
0.3448486328125
0.34515380859375
0.347900390625
0.338134765625
0.33050537109375
0.32196044921875
0.32012939453125
0.322265625
0.3106689453125
0.31463623046875
0.3082275390625
0.31280517578125
0.30364990234375
0.2960205078125
0.28167724609375
0.277099609375
0.28656005859375
0.29144287109375
0.28717041015625
0.28167724609375
0.27740478515625
0.27252197265625
0.27496337890625
0.27496337890625
0.27679443359375
0.2685546875
0.274658203125
0.277099609375
0.27496337890625
0.26947021484375
0.26702880859375
0.269775390625
0.26458740234375
0.27435302734375
0.267333984375
0.274658203125
0.264892578125
0.26947021484375
0.264892578125
0.25543212890625
0.26275634765625
0.26458740234375
0.267333984375
0.269775390625
0.272216796875
0.27130126953125
0.26947021484375
0.2618408203125
0.255126953125
0.2520751953125
0.26824951171875
0.2642822265625
0.26458740234375
0.25787353515625
0.255126953125
0.25726318359375
0.260009765625
0.25726318359375
0.252685546875
0.2606201171875
0.25115966796875
0.247802734375
0.23712158203125
0.22552490234375
0.2154541015625
0.203857421875
0.186767578125
0.16998291015625
0.1513671875
0.13702392578125
0.12847900390625
0.10498046875
0.0848388671875
0.069580078125
0.05279541015625
0.02532958984375
0.00732421875
-0.0042724609375
-0.00457763671875
0.00732421875
0.01800537109375
0.04547119140625
0.0677490234375
0.1019287109375
0.13427734375
0.18707275390625
0.24688720703125
0.3387451171875
0.426025390625
0.52581787109375
0.6561279296875
0.79071044921875
0.9222412109375
1.04156494140625
1.1724853515625
1.275634765625
1.4080810546875
1.5435791015625
1.63421630859375
1.70318603515625
1.79901123046875
1.868896484375
1.92596435546875
1.9451904296875
1.932373046875
1.89453125
1.81732177734375
1.74163818359375
1.632080078125
1.5509033203125
1.45782470703125
1.3372802734375
1.1834716796875
1.0394287109375
0.90728759765625
0.80352783203125
0.7220458984375
0.6268310546875
0.55267333984375
0.479736328125
0.41168212890625
0.35919189453125
0.32135009765625
0.31524658203125
0.30364990234375
0.29327392578125
0.3057861328125
0.32623291015625
0.3472900390625
0.3619384765625
0.37200927734375
0.39093017578125
0.3912353515625
0.40008544921875
0.3936767578125
0.394287109375
0.389404296875
0.38848876953125
0.3839111328125
0.37872314453125
0.3741455078125
0.36712646484375
0.36651611328125
0.3570556640625
0.35003662109375
0.33966064453125
0.325927734375
0.32012939453125
0.31951904296875
0.31524658203125
0.31768798828125
0.3131103515625
0.306396484375
0.29388427734375
0.29052734375
0.29876708984375
0.2984619140625
0.3082275390625
0.29571533203125
0.301513671875
0.3033447265625
0.31036376953125
0.30029296875
0.28656005859375
0.2935791015625
0.30609130859375
0.30731201171875
0.3155517578125
0.31524658203125
0.3009033203125
0.3057861328125
0.31982421875
0.31768798828125
0.32745361328125
0.32989501953125
0.30303955078125
0.3057861328125
0.32928466796875
0.3326416015625
0.32440185546875
0.3125
0.3173828125
0.32012939453125
0.33721923828125
0.32440185546875
0.3240966796875
0.3240966796875
0.3173828125
0.30548095703125
0.31005859375
0.3216552734375
0.3271484375
0.32440185546875
0.32684326171875
0.3302001953125
0.32958984375
0.32196044921875
0.32257080078125
0.3326416015625
0.3375244140625
0.3375244140625
0.33477783203125
0.33538818359375
0.33721923828125
0.3472900390625
0.3521728515625
0.35003662109375
0.35400390625
0.34271240234375
0.3472900390625
0.34942626953125
0.3546142578125
0.34210205078125
0.34759521484375
0.34698486328125
0.34942626953125
0.35247802734375
0.34515380859375
0.3497314453125
0.3497314453125
0.360107421875
0.36468505859375
0.35736083984375
0.3570556640625
0.36651611328125
0.3643798828125
0.36468505859375
0.37353515625
0.3790283203125
0.3741455078125
0.37139892578125
0.37139892578125
0.37200927734375
0.38970947265625
0.38604736328125
0.38177490234375
0.37200927734375
0.3668212890625
0.35736083984375
0.36773681640625
0.3887939453125
0.389404296875
0.40130615234375
0.39154052734375
0.38909912109375
0.38970947265625
0.3863525390625
0.3863525390625
0.3912353515625
0.3997802734375
0.41412353515625
0.418701171875
0.41473388671875
0.4168701171875
0.4119873046875
0.41229248046875
0.41656494140625
0.4144287109375
0.4010009765625
0.40924072265625
0.4095458984375
0.42144775390625
0.41900634765625
0.41961669921875
0.42205810546875
0.41717529296875
0.43487548828125
0.4412841796875
0.452880859375
0.42388916015625
0.4144287109375
0.43121337890625
0.438232421875
0.4498291015625
0.447998046875
0.45074462890625
0.45318603515625
0.438232421875
0.447998046875
0.450439453125
0.44586181640625
0.45074462890625
0.447998046875
0.46661376953125
0.45806884765625
0.45745849609375
0.457763671875
0.4534912109375
0.452880859375
0.4681396484375
0.48126220703125
0.4669189453125
0.4656982421875
0.460205078125
0.45806884765625
0.44342041015625
0.44921875
0.460205078125
0.46234130859375
0.46051025390625
0.45501708984375
0.445556640625
0.447998046875
0.44677734375
0.44769287109375
0.455322265625
0.4486083984375
0.4522705078125
0.45074462890625
0.46722412109375
0.4815673828125
0.48126220703125
0.48065185546875
0.4766845703125
0.48370361328125
0.48675537109375
0.4925537109375
0.49774169921875
0.496826171875
0.48736572265625
0.49713134765625
0.4949951171875
0.49102783203125
0.4888916015625
0.47698974609375
0.4815673828125
0.48919677734375
0.47454833984375
0.465087890625
0.4547119140625
0.4510498046875
0.4534912109375
0.45562744140625
0.4559326171875
0.4437255859375
0.4461669921875
0.4412841796875
0.43914794921875
0.43609619140625
0.4248046875
0.418701171875
0.406494140625
0.41229248046875
0.4058837890625
0.4010009765625
0.3936767578125
0.39398193359375
0.38665771484375
0.37506103515625
0.37200927734375
0.3717041015625
0.3717041015625
0.36224365234375
0.3497314453125
0.350341796875
0.3424072265625
0.34027099609375
0.34027099609375
0.32135009765625
0.3240966796875
0.32196044921875
0.3271484375
0.31951904296875
0.31280517578125
0.3125
0.30364990234375
0.3082275390625
0.3106689453125
0.30853271484375
0.30853271484375
0.29388427734375
0.2850341796875
0.28900146484375
0.3033447265625
0.3106689453125
0.30120849609375
0.30059814453125
0.296630859375
0.284423828125
0.28411865234375
0.28533935546875
0.281982421875
0.27496337890625
0.28472900390625
0.27557373046875
0.27496337890625
0.2679443359375
0.2679443359375
0.26702880859375
0.27496337890625
0.27740478515625
0.2777099609375
0.27984619140625
0.2703857421875
0.2728271484375
0.2752685546875
0.27496337890625
0.279541015625
0.28472900390625
0.28228759765625
0.28656005859375
0.2801513671875
0.2777099609375
0.28411865234375
0.291748046875
0.28961181640625
0.286865234375
0.2874755859375
0.2642822265625
0.2764892578125
0.2911376953125
0.2825927734375
0.27252197265625
0.267333984375
0.277099609375
0.281982421875
0.29327392578125
0.2874755859375
0.2886962890625
0.28472900390625
0.28533935546875
0.281982421875
0.284423828125
0.28656005859375
0.28717041015625
0.2911376953125
0.294189453125
0.3033447265625
0.2960205078125
0.28656005859375
0.28411865234375
0.284423828125
0.29876708984375
0.30670166015625
0.3009033203125
0.3057861328125
0.29937744140625
0.3021240234375
0.29205322265625
0.29449462890625
0.303955078125
0.30364990234375
0.32012939453125
0.31768798828125
0.3302001953125
0.3399658203125
0.33538818359375
0.3363037109375
0.338134765625
0.341796875
0.345458984375
0.35003662109375
0.36285400390625
0.37933349609375
0.3839111328125
0.386962890625
0.38177490234375
0.3765869140625
0.3814697265625
0.386962890625
0.3912353515625
0.39337158203125
0.39581298828125
0.3985595703125
0.4095458984375
0.406494140625
0.41412353515625
0.4144287109375
0.4266357421875
0.4290771484375
0.42694091796875
0.4168701171875
0.43853759765625
0.452880859375
0.4437255859375
0.44769287109375
0.465087890625
0.47149658203125
0.46051025390625
0.4608154296875
0.469970703125
0.47760009765625
0.4693603515625
0.479736328125
0.47210693359375
0.479736328125
0.48370361328125
0.48370361328125
0.482177734375
0.47393798828125
0.4815673828125
0.469970703125
0.477294921875
0.48187255859375
0.4949951171875
0.48980712890625
0.48431396484375
0.49560546875
0.4901123046875
0.47943115234375
0.474853515625
0.472412109375
0.469970703125
0.467529296875
0.45806884765625
0.45135498046875
0.4437255859375
0.44403076171875
0.4296875
0.41259765625
0.39642333984375
0.39581298828125
0.391845703125
0.38421630859375
0.382080078125
0.367431640625
0.362548828125
0.343017578125
0.34027099609375
0.3387451171875
0.335693359375
0.3350830078125
0.338134765625
0.3399658203125
0.31768798828125
0.31036376953125
0.31585693359375
0.32257080078125
0.311279296875
0.30609130859375
0.3033447265625
0.306396484375
0.3009033203125
0.3033447265625
0.286865234375
0.2825927734375
0.28228759765625
0.284423828125
0.284423828125
0.27557373046875
0.27252197265625
0.26123046875
0.2679443359375
0.255126953125
0.25543212890625
0.24169921875
0.2490234375
0.25848388671875
0.2496337890625
0.252685546875
0.240478515625
0.24017333984375
0.23773193359375
0.24017333984375
0.24444580078125
0.24627685546875
0.23834228515625
0.25360107421875
0.262451171875
0.26031494140625
0.26031494140625
0.2532958984375
0.24566650390625
0.24444580078125
0.25390625
0.2581787109375
0.26763916015625
0.25543212890625
0.25299072265625
0.24505615234375
0.24505615234375
0.2398681640625
0.2374267578125
0.23895263671875
0.23773193359375
0.23712158203125
0.23956298828125
0.24444580078125
0.23681640625
0.2325439453125
0.2325439453125
0.23773193359375
0.22552490234375
0.224609375
0.21209716796875
0.19622802734375
0.17730712890625
0.15350341796875
0.1397705078125
0.13031005859375
0.12298583984375
0.084228515625
0.07080078125
0.05279541015625
0.02655029296875
-0.00701904296875
-0.03173828125
-0.0360107421875
-0.03936767578125
-0.02593994140625
-0.01373291015625
0.01495361328125
0.037841796875
0.06591796875
0.10345458984375
0.15655517578125
0.22308349609375
0.30731201171875
0.39276123046875
0.504150390625
0.62774658203125
0.76263427734375
0.88653564453125
1.00677490234375
1.142578125
1.24481201171875
1.3909912109375
1.51336669921875
1.60614013671875
1.6827392578125
1.7657470703125
1.83746337890625
1.88873291015625
1.9171142578125
1.8798828125
1.8560791015625
1.7974853515625
1.71112060546875
1.617431640625
1.53411865234375
1.4410400390625
1.3128662109375
1.156005859375
1.0107421875
0.9063720703125
0.8343505859375
0.75286865234375
0.62957763671875
0.54931640625
0.4827880859375
0.43304443359375
0.386962890625
0.360107421875
0.33416748046875
0.311279296875
0.30853271484375
0.3131103515625
0.32958984375
0.3460693359375
0.369873046875
0.3631591796875
0.3680419921875
0.3631591796875
0.357666015625
0.35491943359375
0.3582763671875
0.35308837890625
0.357666015625
0.3558349609375
0.35552978515625
0.35003662109375
0.3302001953125
0.32318115234375
0.32501220703125
0.3253173828125
0.3204345703125
0.32806396484375
0.32012939453125
0.31585693359375
0.303955078125
0.30426025390625
0.299072265625
0.29693603515625
0.29876708984375
0.29449462890625
0.289306640625
0.29388427734375
0.2960205078125
0.28045654296875
0.27069091796875
0.2777099609375
0.2880859375
0.27801513671875
0.281982421875
0.2801513671875
0.2752685546875
0.2777099609375
0.27069091796875
0.27099609375
0.27801513671875
0.284423828125
0.269775390625
0.27496337890625
0.274658203125
0.27984619140625
0.279541015625
0.2728271484375
0.28167724609375
0.2874755859375
0.29144287109375
0.2880859375
0.28533935546875
0.28717041015625
0.291748046875
0.294189453125
0.291748046875
0.29327392578125
0.2911376953125
0.2923583984375
0.29449462890625
0.291748046875
0.29937744140625
0.30426025390625
0.296630859375
0.2899169921875
0.29205322265625
0.311279296875
0.301513671875
0.29693603515625
0.29022216796875
0.2996826171875
0.30914306640625
0.30853271484375
0.30426025390625
0.29815673828125
0.29693603515625
0.29449462890625
0.3106689453125
0.30853271484375
0.31341552734375
0.31585693359375
0.311279296875
0.31097412109375
0.3155517578125
0.31524658203125
0.3082275390625
0.3106689453125
0.31524658203125
0.3204345703125
0.32501220703125
0.3326416015625
0.3179931640625
0.33050537109375
0.33782958984375
0.33538818359375
0.32867431640625
0.3277587890625
0.335693359375
0.340576171875
0.3448486328125
0.3387451171875
0.34088134765625
0.33843994140625
0.343017578125
0.3436279296875
0.34332275390625
0.352783203125
0.350341796875
0.357666015625
0.35797119140625
0.3485107421875
0.35003662109375
0.36041259765625
0.36041259765625
0.362548828125
0.3631591796875
0.3729248046875
0.36834716796875
0.3704833984375
0.36834716796875
0.3680419921875
0.369873046875
0.382080078125
0.39398193359375
0.38482666015625
0.3948974609375
0.382080078125
0.39459228515625
0.39459228515625
0.386962890625
0.38726806640625
0.3973388671875
0.40924072265625
0.40985107421875
0.40618896484375
0.4034423828125
0.40618896484375
0.41015625
0.40679931640625
0.40435791015625
0.40618896484375
0.401611328125
0.41229248046875
0.40985107421875
0.413818359375
0.41259765625
0.40985107421875
0.4150390625
0.41259765625
0.419921875
0.42510986328125
0.42510986328125
0.41778564453125
0.42266845703125
0.42755126953125
0.42236328125
0.433349609375
0.43731689453125
0.4351806640625
0.43212890625
0.4345703125
0.43426513671875
0.43365478515625
0.43426513671875
0.43914794921875
0.43731689453125
0.44219970703125
0.43914794921875
0.44158935546875
0.44189453125
0.43701171875
0.43670654296875
0.43975830078125
0.4443359375
0.4345703125
0.43914794921875
0.4388427734375
0.4437255859375
0.43670654296875
0.43487548828125
0.44189453125
0.43914794921875
0.4345703125
0.44189453125
0.45135498046875
0.45867919921875
0.45379638671875
0.4510498046875
0.45135498046875
0.44342041015625
0.45166015625
0.44403076171875
0.4510498046875
0.45074462890625
0.45867919921875
0.4534912109375
0.4510498046875
0.4583740234375
0.44921875
0.4559326171875
0.44830322265625
0.4443359375
0.42724609375
0.42724609375
0.42724609375
0.423583984375
0.41961669921875
0.416259765625
0.408935546875
0.40374755859375
0.408935546875
0.4095458984375
0.391845703125
0.38726806640625
0.39215087890625
0.382080078125
0.3778076171875
0.372314453125
0.3729248046875
0.37261962890625
0.37017822265625
0.37261962890625
0.36529541015625
0.36041259765625
0.34759521484375
0.34332275390625
0.333251953125
0.33203125
0.32501220703125
0.32012939453125
0.31951904296875
0.31585693359375
0.3155517578125
0.3155517578125
0.311279296875
0.301513671875
0.299072265625
0.2984619140625
0.30181884765625
0.3057861328125
0.30609130859375
0.29449462890625
0.29266357421875
0.29541015625
0.29937744140625
0.2972412109375
0.28717041015625
0.28717041015625
0.283203125
0.286865234375
0.2783203125
0.27862548828125
0.27313232421875
0.27587890625
0.2783203125
0.2728271484375
0.283203125
0.28228759765625
0.28045654296875
0.27496337890625
0.27984619140625
0.2752685546875
0.27801513671875
0.28472900390625
0.29205322265625
0.28717041015625
0.28778076171875
0.28472900390625
0.28045654296875
0.29052734375
0.296630859375
0.2899169921875
0.28533935546875
0.291748046875
0.28228759765625
0.291748046875
0.2874755859375
0.286865234375
0.2850341796875
0.28289794921875
0.289306640625
0.29937744140625
0.294189453125
0.2947998046875
0.311279296875
0.30120849609375
0.2947998046875
0.29449462890625
0.30426025390625
0.30364990234375
0.303955078125
0.29449462890625
0.2972412109375
0.301513671875
0.306396484375
0.31341552734375
0.30914306640625
0.31036376953125
0.30853271484375
0.316162109375
0.306396484375
0.31585693359375
0.32257080078125
0.33355712890625
0.343017578125
0.350341796875
0.3594970703125
0.3631591796875
0.3668212890625
0.372314453125
0.384521484375
0.38421630859375
0.39398193359375
0.39642333984375
0.401611328125
0.4095458984375
0.42694091796875
0.419921875
0.4150390625
0.4046630859375
0.4095458984375
0.41839599609375
0.42236328125
0.42510986328125
0.41534423828125
0.43182373046875
0.43670654296875
0.4412841796875
0.44158935546875
0.44158935546875
0.4443359375
0.44891357421875
0.4608154296875
0.4681396484375
0.4766845703125
0.469970703125
0.47760009765625
0.48187255859375
0.49102783203125
0.49346923828125
0.498046875
0.50018310546875
0.4998779296875
0.49835205078125
0.50048828125
0.50323486328125
0.50537109375
0.5059814453125
0.498046875
0.5029296875
0.49285888671875
0.4974365234375
0.49530029296875
0.4962158203125
0.49530029296875
0.49530029296875
0.4998779296875
0.4937744140625
0.4931640625
0.47698974609375
0.479736328125
0.49041748046875
0.48004150390625
0.4681396484375
0.4656982421875
0.4510498046875
0.4510498046875
0.45135498046875
0.44158935546875
0.4296875
0.419921875
0.40985107421875
0.406494140625
0.41229248046875
0.3900146484375
0.38299560546875
0.374755859375
0.37506103515625
0.3656005859375
0.36285400390625
0.36956787109375
0.36590576171875
0.36529541015625
0.3533935546875
0.34332275390625
0.3326416015625
0.32989501953125
0.33599853515625
0.3350830078125
0.330810546875
0.3253173828125
0.31890869140625
0.3179931640625
0.31005859375
0.299072265625
0.29205322265625
0.289306640625
0.29205322265625
0.2911376953125
0.2978515625
0.2899169921875
0.28533935546875
0.27496337890625
0.27313232421875
0.28045654296875
0.27313232421875
0.27069091796875
0.26885986328125
0.2801513671875
0.281982421875
0.27984619140625
0.27557373046875
0.27374267578125
0.27313232421875
0.27313232421875
0.27557373046875
0.27587890625
0.27008056640625
0.2728271484375
0.27557373046875
0.2752685546875
0.2777099609375
0.27801513671875
0.2825927734375
0.2703857421875
0.27496337890625
0.2679443359375
0.2630615234375
0.26824951171875
0.2703857421875
0.27496337890625
0.2728271484375
0.27496337890625
0.27099609375
0.2752685546875
0.2685546875
0.27252197265625
0.27069091796875
0.26611328125
0.26275634765625
0.26031494140625
0.24261474609375
0.23284912109375
0.220947265625
0.203857421875
0.181884765625
0.166015625
0.15472412109375
0.13763427734375
0.123291015625
0.09033203125
0.0738525390625
0.0518798828125
0.0347900390625
0.01556396484375
0.001220703125
0.003662109375
0.00640869140625
0.01708984375
0.035400390625
0.06805419921875
0.08941650390625
0.13031005859375
0.17974853515625
0.2423095703125
0.30548095703125
0.39093017578125
0.48309326171875
0.60638427734375
0.73760986328125
0.863037109375
0.97259521484375
1.102294921875
1.21734619140625
1.32568359375
1.46087646484375
1.56158447265625
1.6326904296875
1.70379638671875
1.78192138671875
1.8511962890625
1.8792724609375
1.87744140625
1.83746337890625
1.7938232421875
1.7181396484375
1.64398193359375
1.566162109375
1.47674560546875
1.36383056640625
1.2188720703125
1.06781005859375
0.9515380859375
0.8837890625
0.81298828125
0.7037353515625
0.6103515625
0.54412841796875
0.4766845703125
0.43792724609375
0.3900146484375
0.37017822265625
0.3448486328125
0.33843994140625
0.34820556640625
0.35308837890625
0.37017822265625
0.37567138671875
0.39154052734375
0.3948974609375
0.40191650390625
0.396728515625
0.39703369140625
0.39703369140625
0.39215087890625
0.38665771484375
0.38238525390625
0.384521484375
0.374755859375
0.36956787109375
0.36529541015625
0.35797119140625
0.35308837890625
0.35003662109375
0.33782958984375
0.338134765625
0.33843994140625
0.33294677734375
0.32806396484375
0.32073974609375
0.3179931640625
0.30914306640625
0.318603515625
0.31341552734375
0.32073974609375
0.31341552734375
0.31585693359375
0.311279296875
0.3070068359375
0.311279296875
0.311279296875
0.311279296875
0.31341552734375
0.3204345703125
0.31829833984375
0.3155517578125
0.30853271484375
0.30853271484375
0.30364990234375
0.313720703125
0.311279296875
0.308837890625
0.30914306640625
0.311279296875
0.31524658203125
0.3106689453125
0.316162109375
0.301513671875
0.306396484375
0.30792236328125
0.31341552734375
0.31036376953125
0.31585693359375
0.32501220703125
0.33050537109375
0.32684326171875
0.3204345703125
0.3179931640625
0.31585693359375
0.31982421875
0.32562255859375
0.32684326171875
0.32501220703125
0.3228759765625
0.32135009765625
0.333251953125
0.3277587890625
0.32562255859375
0.3289794921875
0.33294677734375
0.33843994140625
0.33050537109375
0.340576171875
0.33538818359375
0.3424072265625
0.3436279296875
0.34820556640625
0.350341796875
0.35064697265625
0.352783203125
0.3485107421875
0.34271240234375
0.345458984375
0.350341796875
0.347900390625
0.35247802734375
0.35308837890625
0.35247802734375
0.35003662109375
0.3582763671875
0.3582763671875
0.35552978515625
0.3533935546875
0.35980224609375
0.372314453125
0.3680419921875
0.36773681640625
0.36041259765625
0.374755859375
0.3741455078125
0.37994384765625
0.379638671875
0.38238525390625
0.384521484375
0.38177490234375
0.39215087890625
0.3924560546875
0.39459228515625
0.391845703125
0.3973388671875
0.39947509765625
0.399169921875
0.39306640625
0.401611328125
0.39886474609375
0.39398193359375
0.391845703125
0.404052734375
0.4095458984375
0.40069580078125
0.399169921875
0.39703369140625
0.40557861328125
0.40435791015625
0.41229248046875
0.41290283203125
0.42266845703125
0.42510986328125
0.4193115234375
0.42724609375
0.42510986328125
0.426025390625
0.4248046875
0.435791015625
0.4412841796875
0.43853759765625
0.4388427734375
0.4437255859375
0.439453125
0.4437255859375
0.43914794921875
0.4443359375
0.44189453125
0.44342041015625
0.4412841796875
0.44586181640625
0.45074462890625
0.43670654296875
0.44830322265625
0.45318603515625
0.46051025390625
0.45318603515625
0.4534912109375
0.457763671875
0.4583740234375
0.45318603515625
0.45135498046875
0.4632568359375
0.47027587890625
0.4705810546875
0.4705810546875
0.46539306640625
0.45806884765625
0.4583740234375
0.46051025390625
0.4705810546875
0.47210693359375
0.46966552734375
0.4681396484375
0.462646484375
0.47271728515625
0.46844482421875
0.47454833984375
0.46234130859375
0.462646484375
0.4559326171875
0.46783447265625
0.4730224609375
0.472412109375
0.474853515625
0.477294921875
0.48370361328125
0.487060546875
0.48736572265625
0.4901123046875
0.4901123046875
0.4925537109375
0.4925537109375
0.48675537109375
0.49224853515625
0.4925537109375
0.4974365234375
0.50323486328125
0.496826171875
0.50048828125
0.49041748046875
0.4901123046875
0.47698974609375
0.47515869140625
0.46295166015625
0.4656982421875
0.4656982421875
0.46295166015625
0.45806884765625
0.4510498046875
0.44586181640625
0.43701171875
0.4339599609375
0.43182373046875
0.42449951171875
0.4248046875
0.4150390625
0.408935546875
0.40679931640625
0.39825439453125
0.40130615234375
0.39642333984375
0.39886474609375
0.39520263671875
0.39154052734375
0.3863525390625
0.37750244140625
0.38238525390625
0.372314453125
0.37750244140625
0.36712646484375
0.35797119140625
0.35797119140625
0.360107421875
0.3570556640625
0.345458984375
0.35003662109375
0.347900390625
0.345458984375
0.34393310546875
0.33538818359375
0.33203125
0.32318115234375
0.32470703125
0.32623291015625
0.3271484375
0.32745361328125
0.3302001953125
0.32989501953125
0.3302001953125
0.32470703125
0.33294677734375
0.32012939453125
0.31982421875
0.31982421875
0.3271484375
0.32470703125
0.32501220703125
0.32958984375
0.3253173828125
0.32684326171875
0.32470703125
0.31768798828125
0.3173828125
0.32073974609375
0.3179931640625
0.3155517578125
0.3216552734375
0.32745361328125
0.32012939453125
0.318603515625
0.32012939453125
0.3179931640625
0.318603515625
0.31768798828125
0.3228759765625
0.32012939453125
0.3271484375
0.32470703125
0.333251953125
0.3350830078125
0.33538818359375
0.3326416015625
0.32989501953125
0.3375244140625
0.333251953125
0.3350830078125
0.33538818359375
0.33782958984375
0.33782958984375
0.3375244140625
0.33721923828125
0.343017578125
0.34423828125
0.35491943359375
0.35491943359375
0.3570556640625
0.362548828125
0.36956787109375
0.36895751953125
0.37200927734375
0.38421630859375
0.379638671875
0.39398193359375
0.40130615234375
0.40618896484375
0.4095458984375
0.41656494140625
0.42205810546875
0.4241943359375
0.43121337890625
0.43670654296875
0.4461669921875
0.4412841796875
0.44342041015625
0.4437255859375
0.44921875
0.45623779296875
0.46051025390625
0.447998046875
0.4510498046875
0.46539306640625
0.4766845703125
0.4766845703125
0.47607421875
0.4803466796875
0.48980712890625
0.50048828125
0.50201416015625
0.51177978515625
0.501708984375
0.50994873046875
0.52215576171875
0.52154541015625
0.53497314453125
0.53436279296875
0.54534912109375
0.53314208984375
0.53955078125
0.5340576171875
0.53558349609375
0.55267333984375
0.5517578125
0.53375244140625
0.5291748046875
0.53466796875
0.5364990234375
0.53436279296875
0.53619384765625
0.5413818359375
0.54046630859375
0.54351806640625
0.5279541015625
0.53314208984375
0.535888671875
0.52886962890625
0.52337646484375
0.5145263671875
0.51177978515625
0.50445556640625
0.50689697265625
0.4974365234375
0.491943359375
0.4730224609375
0.465087890625
0.457763671875
0.44586181640625
0.44097900390625
0.4412841796875
0.4339599609375
0.4241943359375
0.4168701171875
0.41229248046875
0.401611328125
0.39886474609375
0.4119873046875
0.4010009765625
0.40435791015625
0.3985595703125
0.3912353515625
0.382080078125
0.37384033203125
0.37689208984375
0.37689208984375
0.3814697265625
0.369873046875
0.36712646484375
0.34759521484375
0.34515380859375
0.34027099609375
0.33203125
0.33782958984375
0.3424072265625
0.33477783203125
0.3350830078125
0.3350830078125
0.3302001953125
0.32012939453125
0.32073974609375
0.31982421875
0.31494140625
0.32440185546875
0.31951904296875
0.32684326171875
0.322265625
0.322265625
0.32379150390625
0.31494140625
0.31463623046875
0.31280517578125
0.32196044921875
0.31524658203125
0.31036376953125
0.30120849609375
0.30548095703125
0.31097412109375
0.3173828125
0.32684326171875
0.3167724609375
0.31036376953125
0.31005859375
0.31707763671875
0.31036376953125
0.30792236328125
0.31036376953125
0.3131103515625
0.31280517578125
0.3204345703125
0.3131103515625
0.31280517578125
0.31005859375
0.308837890625
0.3155517578125
0.3076171875
0.3125
0.2996826171875
0.2911376953125
0.28594970703125
0.28167724609375
0.2581787109375
0.23468017578125
0.21942138671875
0.20904541015625
0.19317626953125
0.1763916015625
0.1568603515625
0.1397705078125
0.1190185546875
0.0958251953125
0.07415771484375
0.05523681640625
0.0555419921875
0.0433349609375
0.05767822265625
0.0628662109375
0.08514404296875
0.1123046875
0.14251708984375
0.19317626953125
0.22247314453125
0.28106689453125
0.37017822265625
0.4693603515625
0.5572509765625
0.67108154296875
0.8148193359375
0.93048095703125
1.05377197265625
1.18438720703125
1.28387451171875
1.41357421875
1.52587890625
1.602783203125
1.67755126953125
1.76849365234375
1.8389892578125
1.87896728515625
1.88507080078125
1.84539794921875
1.79229736328125
1.72760009765625
1.6619873046875
1.58172607421875
1.49444580078125
1.397705078125
1.25274658203125
1.10870361328125
0.9722900390625
0.87249755859375
0.7958984375
0.7086181640625
0.621337890625
0.55389404296875
0.4913330078125
0.45257568359375
0.40283203125
0.3814697265625
0.35736083984375
0.34515380859375
0.34759521484375
0.3619384765625
0.38421630859375
0.39276123046875
0.4168701171875
0.438232421875
0.43853759765625
0.4339599609375
0.43365478515625
0.4339599609375
0.42877197265625
0.430908203125
0.4217529296875
0.43060302734375
0.4217529296875
0.41259765625
0.4058837890625
0.39825439453125
0.38848876953125
0.37109375
0.3741455078125
0.36773681640625
0.37109375
0.36895751953125
0.36376953125
0.3643798828125
0.36041259765625
0.341796875
0.34820556640625
0.34942626953125
0.35247802734375
0.345458984375
0.3399658203125
0.35003662109375
0.3448486328125
0.345458984375
0.3265380859375
0.3399658203125
0.33966064453125
0.34271240234375
0.34393310546875
0.3497314453125
0.34942626953125
0.347900390625
0.3570556640625
0.35491943359375
0.3497314453125
0.3448486328125
0.34698486328125
0.35247802734375
0.3594970703125
0.35003662109375
0.3570556640625
0.3521728515625
0.357666015625
0.3594970703125
0.34942626953125
0.3521728515625
0.34423828125
0.35491943359375
0.35247802734375
0.3570556640625
0.3521728515625
0.3594970703125
0.35491943359375
0.36224365234375
0.3643798828125
0.3546142578125
0.36651611328125
0.369873046875
0.36895751953125
0.36865234375
0.37445068359375
0.3546142578125
0.35186767578125
0.3594970703125
0.36468505859375
0.36407470703125
0.3717041015625
0.3668212890625
0.367431640625
0.37109375
0.37384033203125
0.3765869140625
0.3741455078125
0.37689208984375
0.37200927734375
0.38421630859375
0.3839111328125
0.3863525390625
0.3839111328125
0.39398193359375
0.39642333984375
0.38848876953125
0.3912353515625
0.4010009765625
0.4058837890625
0.40283203125
0.4046630859375
0.4010009765625
0.3985595703125
0.3961181640625
0.40283203125
0.39825439453125
0.40557861328125
0.4119873046875
0.40557861328125
0.4052734375
0.418701171875
0.42388916015625
0.41412353515625
0.43365478515625
0.42694091796875
0.4241943359375
0.4193115234375
0.4339599609375
0.44097900390625
0.445556640625
0.44464111328125
0.4412841796875
0.44342041015625
0.438232421875
0.450439453125
0.44097900390625
0.44036865234375
0.4443359375
0.445556640625
0.443115234375
0.447998046875
0.4412841796875
0.4388427734375
0.4364013671875
0.438232421875
0.443115234375
0.44769287109375
0.45318603515625
0.443115234375
0.4534912109375
0.455322265625
0.45745849609375
0.4620361328125
0.46478271484375
0.46600341796875
0.45806884765625
0.46661376953125
0.47637939453125
0.469970703125
0.4669189453125
0.4718017578125
0.4815673828125
0.4901123046875
0.48065185546875
0.496826171875
0.49224853515625
0.489501953125
0.4962158203125
0.48980712890625
0.48980712890625
0.49530029296875
0.511474609375
0.5047607421875
0.50750732421875
0.4974365234375
0.50201416015625
0.501708984375
0.50445556640625
0.5072021484375
0.50262451171875
0.50018310546875
0.4949951171875
0.4998779296875
0.4974365234375
0.4998779296875
0.5047607421875
0.4998779296875
0.50445556640625
0.509033203125
0.504150390625
0.49957275390625
0.49896240234375
0.5047607421875
0.49957275390625
0.506591796875
0.51422119140625
0.51177978515625
0.521240234375
0.5072021484375
0.50933837890625
0.50933837890625
0.521240234375
0.51544189453125
0.51177978515625
0.52337646484375
0.5242919921875
0.52581787109375
0.51971435546875
0.52154541015625
0.521240234375
0.52642822265625
0.53131103515625
0.535888671875
0.523681640625
0.51910400390625
0.513916015625
0.50933837890625
0.51422119140625
0.50933837890625
0.50445556640625
0.4949951171875
0.4998779296875
0.49224853515625
0.49530029296875
0.48126220703125
0.47637939453125
0.47210693359375
0.46966552734375
0.46539306640625
0.46234130859375
0.460205078125
0.44677734375
0.445556640625
0.44342041015625
0.4412841796875
0.4315185546875
0.4290771484375
0.42633056640625
0.4180908203125
0.41351318359375
0.41229248046875
0.399169921875
0.39581298828125
0.3912353515625
0.3887939453125
0.390625
0.38909912109375
0.38482666015625
0.36651611328125
0.36895751953125
0.3839111328125
0.38909912109375
0.38177490234375
0.3790283203125
0.3790283203125
0.37750244140625
0.38116455078125
0.3692626953125
0.3643798828125
0.3692626953125
0.3790283203125
0.37384033203125
0.37200927734375
0.37384033203125
0.37506103515625
0.36651611328125
0.36468505859375
0.36651611328125
0.36712646484375
0.3619384765625
0.3643798828125
0.3619384765625
0.35980224609375
0.3619384765625
0.35369873046875
0.3619384765625
0.362548828125
0.360107421875
0.36346435546875
0.36712646484375
0.367431640625
0.350341796875
0.360107421875
0.36407470703125
0.361328125
0.36468505859375
0.35980224609375
0.362548828125
0.37200927734375
0.36651611328125
0.3668212890625
0.3717041015625
0.369873046875
0.367431640625
0.3643798828125
0.3668212890625
0.36895751953125
0.3814697265625
0.3802490234375
0.37933349609375
0.3765869140625
0.3887939453125
0.4034423828125
0.3961181640625
0.4010009765625
0.40557861328125
0.42083740234375
0.4150390625
0.419921875
0.41961669921875
0.433349609375
0.44342041015625
0.4412841796875
0.43701171875
0.45013427734375
0.4486083984375
0.45318603515625
0.460205078125
0.452880859375
0.4522705078125
0.45562744140625
0.45867919921875
0.45989990234375
0.477294921875
0.472412109375
0.474853515625
0.4766845703125
0.47576904296875
0.477294921875
0.48126220703125
0.487060546875
0.4876708984375
0.4949951171875
0.49468994140625
0.5096435546875
0.51666259765625
0.51666259765625
0.5267333984375
0.53619384765625
0.52886962890625
0.52947998046875
0.5364990234375
0.5340576171875
0.5462646484375
0.550537109375
0.55755615234375
0.55023193359375
0.55755615234375
0.5474853515625
0.550537109375
0.54534912109375
0.540771484375
0.555419921875
0.5609130859375
0.56854248046875
0.56488037109375
0.5621337890625
0.548095703125
0.548095703125
0.54595947265625
0.548095703125
0.54534912109375
0.5389404296875
0.53558349609375
0.5291748046875
0.52642822265625
0.52154541015625
0.5096435546875
0.5023193359375
0.48919677734375
0.48736572265625
0.47943115234375
0.46112060546875
0.4632568359375
0.45562744140625
0.45135498046875
0.439453125
0.44464111328125
0.439453125
0.43426513671875
0.4364013671875
0.42236328125
0.42236328125
0.41259765625
0.4144287109375
0.41961669921875
0.41290283203125
0.3985595703125
0.39031982421875
0.394287109375
0.39215087890625
0.39154052734375
0.3839111328125
0.3741455078125
0.3692626953125
0.367431640625
0.36468505859375
0.37261962890625
0.364990234375
0.357666015625
0.35736083984375
0.350341796875
0.347900390625
0.352783203125
0.347900390625
0.34088134765625
0.34271240234375
0.3350830078125
0.34027099609375
0.33843994140625
0.3399658203125
0.34576416015625
0.343017578125
0.33477783203125
0.3302001953125
0.33477783203125
0.34698486328125
0.345458984375
0.33782958984375
0.340576171875
0.347900390625
0.343017578125
0.32684326171875
0.340576171875
0.345458984375
0.338134765625
0.330810546875
0.33538818359375
0.34088134765625
0.34027099609375
0.3375244140625
0.33538818359375
0.3399658203125
0.3265380859375
0.3350830078125
0.32684326171875
0.33294677734375
0.33203125
0.335693359375
0.33233642578125
0.3271484375
0.3228759765625
0.31097412109375
0.3070068359375
0.2886962890625
0.26824951171875
0.24017333984375
0.2325439453125
0.21331787109375
0.211181640625
0.1934814453125
0.17578125
0.1708984375
0.1470947265625
0.12908935546875
0.106201171875
0.103759765625
0.10101318359375
0.10101318359375
0.11505126953125
0.13427734375
0.15411376953125
0.17669677734375
0.2081298828125
0.2471923828125
0.286865234375
0.3369140625
0.40924072265625
0.494384765625
0.58349609375
0.7000732421875
0.8575439453125
0.97625732421875
1.08154296875
1.17828369140625
1.29486083984375
1.4117431640625
1.53076171875
1.617431640625
1.7034912109375
1.79412841796875
1.842041015625
1.88385009765625
1.8841552734375
1.8536376953125
1.80267333984375
1.72149658203125
1.650390625
1.57073974609375
1.47674560546875
1.3616943359375
1.2298583984375
1.0784912109375
0.953369140625
0.8349609375
0.703125
0.59844970703125
0.52154541015625
0.46600341796875
0.4229736328125
0.37078857421875
0.316162109375
0.30181884765625
0.2899169921875
0.296630859375
0.30364990234375
0.3289794921875
0.340576171875
0.3619384765625
0.37933349609375
0.41015625
0.4290771484375
0.44158935546875
0.45318603515625
0.4583740234375
0.46600341796875
0.46234130859375
0.46112060546875
0.4510498046875
0.4345703125
0.42694091796875
0.41748046875
0.40618896484375
0.406494140625
0.40374755859375
0.391845703125
0.386962890625
0.382080078125
0.389404296875
0.3851318359375
0.37994384765625
0.3692626953125
0.37506103515625
0.369873046875
0.367431640625
0.369873046875
0.3656005859375
0.367431640625
0.36041259765625
0.3570556640625
0.357666015625
0.3607177734375
0.35552978515625
0.35247802734375
0.3533935546875
0.35552978515625
0.345458984375
0.3485107421875
0.3460693359375
0.3460693359375
0.35491943359375
0.35247802734375
0.357666015625
0.35552978515625
0.350341796875
0.343017578125
0.355224609375
0.350341796875
0.357666015625
0.35064697265625
0.36041259765625
0.35797119140625
0.360107421875
0.367431640625
0.3643798828125
0.36468505859375
0.364990234375
0.36285400390625
0.35980224609375
0.36529541015625
0.369873046875
0.37261962890625
0.372314453125
0.37994384765625
0.37200927734375
0.3704833984375
0.3729248046875
0.37017822265625
0.372314453125
0.369873046875
0.37200927734375
0.3643798828125
0.37200927734375
0.377197265625
0.3802490234375
0.36956787109375
0.37811279296875
0.38238525390625
0.3802490234375
0.38848876953125
0.38482666015625
0.38909912109375
0.39642333984375
0.404052734375
0.3985595703125
0.39215087890625
0.40130615234375
0.41015625
0.4046630859375
0.406494140625
0.40618896484375
0.40374755859375
0.4034423828125
0.406494140625
0.40374755859375
0.394287109375
0.41015625
0.40435791015625
0.41229248046875
0.40374755859375
0.41015625
0.39886474609375
0.40679931640625
0.42022705078125
0.4150390625
0.42236328125
0.43212890625
0.43701171875
0.43701171875
0.43182373046875
0.42633056640625
0.43701171875
0.43914794921875
0.44342041015625
0.45318603515625
0.4412841796875
0.4345703125
0.44219970703125
0.45135498046875
0.44158935546875
0.4412841796875
0.4376220703125
0.447998046875
0.44891357421875
0.4388427734375
0.4364013671875
0.44586181640625
0.447998046875
0.4443359375
0.44586181640625
0.4443359375
0.4534912109375
0.45379638671875
0.46051025390625
0.469970703125
0.47088623046875
0.465087890625
0.4681396484375
0.4730224609375
0.4779052734375
0.48004150390625
0.482177734375
0.48370361328125
0.48431396484375
0.48980712890625
0.49285888671875
0.50262451171875
0.49285888671875
0.49530029296875
0.4876708984375
0.49835205078125
0.50079345703125
0.49224853515625
0.49224853515625
0.4931640625
0.50567626953125
0.50750732421875
0.50537109375
0.5029296875
0.50262451171875
0.509033203125
0.50750732421875
0.5023193359375
0.5126953125
0.51788330078125
0.50506591796875
0.50262451171875
0.51239013671875
0.5108642578125
0.50537109375
0.5072021484375
0.499267578125
0.5029296875
0.50537109375
0.51025390625
0.5145263671875
0.51483154296875
0.5072021484375
0.50079345703125
0.5181884765625
0.51544189453125
0.52001953125
0.51971435546875
0.531005859375
0.5322265625
0.53253173828125
0.52886962890625
0.5316162109375
0.5316162109375
0.5322265625
0.53558349609375
0.5340576171875
0.528564453125
0.52947998046875
0.52978515625
0.5218505859375
0.5328369140625
0.52215576171875
0.51544189453125
0.51300048828125
0.51025390625
0.4986572265625
0.49530029296875
0.50750732421875
0.50140380859375
0.4949951171875
0.48187255859375
0.4815673828125
0.474853515625
0.472412109375
0.467529296875
0.4656982421875
0.45806884765625
0.45562744140625
0.45135498046875
0.4443359375
0.42999267578125
0.4345703125
0.4302978515625
0.41717529296875
0.41534423828125
0.40557861328125
0.41168212890625
0.40618896484375
0.399169921875
0.3912353515625
0.38177490234375
0.3826904296875
0.374755859375
0.38421630859375
0.37750244140625
0.38238525390625
0.3680419921875
0.374755859375
0.37445068359375
0.369873046875
0.369873046875
0.36346435546875
0.3607177734375
0.3607177734375
0.35797119140625
0.360107421875
0.36224365234375
0.360107421875
0.35552978515625
0.350341796875
0.3533935546875
0.3436279296875
0.343017578125
0.34332275390625
0.34332275390625
0.34088134765625
0.33843994140625
0.33599853515625
0.33355712890625
0.35064697265625
0.34820556640625
0.347900390625
0.343017578125
0.338134765625
0.340576171875
0.335693359375
0.341796875
0.33843994140625
0.33294677734375
0.32958984375
0.3411865234375
0.333251953125
0.33355712890625
0.33843994140625
0.34271240234375
0.33843994140625
0.35003662109375
0.352783203125
0.355224609375
0.35003662109375
0.35552978515625
0.36529541015625
0.36590576171875
0.38177490234375
0.379638671875
0.3851318359375
0.38482666015625
0.39703369140625
0.39459228515625
0.399169921875
0.41168212890625
0.41229248046875
0.41473388671875
0.41778564453125
0.41473388671875
0.41748046875
0.41229248046875
0.41748046875
0.43212890625
0.42694091796875
0.4296875
0.43212890625
0.4400634765625
0.4443359375
0.44830322265625
0.4486083984375
0.4559326171875
0.4644775390625
0.458984375
0.46356201171875
0.45623779296875
0.469970703125
0.4864501953125
0.49285888671875
0.50445556640625
0.498046875
0.4998779296875
0.50262451171875
0.51361083984375
0.5145263671875
0.50994873046875
0.51483154296875
0.52459716796875
0.52001953125
0.5340576171875
0.533447265625
0.53466796875
0.52947998046875
0.526123046875
0.5224609375
0.53131103515625
0.52703857421875
0.535888671875
0.555419921875
0.5364990234375
0.53680419921875
0.5389404296875
0.54595947265625
0.54443359375
0.5389404296875
0.5242919921875
0.53009033203125
0.52978515625
0.5230712890625
0.51788330078125
0.517578125
0.50811767578125
0.4949951171875
0.48004150390625
0.47027587890625
0.477294921875
0.46600341796875
0.44921875
0.4302978515625
0.42510986328125
0.4278564453125
0.41473388671875
0.41412353515625
0.3948974609375
0.39703369140625
0.391845703125
0.394287109375
0.384521484375
0.3778076171875
0.37994384765625
0.37261962890625
0.37384033203125
0.3704833984375
0.369873046875
0.3631591796875
0.3656005859375
0.360107421875
0.357666015625
0.347900390625
0.3460693359375
0.335693359375
0.33538818359375
0.338134765625
0.33416748046875
0.333251953125
0.32318115234375
0.3271484375
0.3253173828125
0.333251953125
0.330810546875
0.3338623046875
0.322265625
0.316162109375
0.3155517578125
0.32196044921875
0.32440185546875
0.313720703125
0.32562255859375
0.3253173828125
0.3204345703125
0.31585693359375
0.3106689453125
0.306396484375
0.29998779296875
0.299072265625
0.306396484375
0.30914306640625
0.308837890625
0.31402587890625
0.306396484375
0.311279296875
0.303955078125
0.31097412109375
0.3009033203125
0.30853271484375
0.29876708984375
0.30426025390625
0.31341552734375
0.30853271484375
0.306396484375
0.29693603515625
0.29693603515625
0.29693603515625
0.30914306640625
0.29937744140625
0.29449462890625
0.2923583984375
0.28076171875
0.2703857421875
0.25604248046875
0.235595703125
0.21453857421875
0.19866943359375
0.19012451171875
0.184326171875
0.16387939453125
0.14739990234375
0.128173828125
0.1214599609375
0.08636474609375
0.06622314453125
0.05096435546875
0.04150390625
0.05126953125
0.06561279296875
0.0799560546875
0.107421875
0.14434814453125
0.16845703125
0.21209716796875
0.24505615234375
0.30609130859375
0.39520263671875
0.491943359375
0.58807373046875
0.71441650390625
0.86273193359375
0.9771728515625
1.085205078125
1.187744140625
1.3140869140625
1.44073486328125
1.54754638671875
1.61041259765625
1.6900634765625
1.77154541015625
1.84173583984375
1.86065673828125
1.83563232421875
1.8017578125
1.7340087890625
1.66839599609375
1.58843994140625
1.5008544921875
1.3922119140625
1.2835693359375
1.14837646484375
1.00006103515625
0.86700439453125
0.7574462890625
0.6402587890625
0.54443359375
0.47271728515625
0.43701171875
0.37811279296875
0.3179931640625
0.2874755859375
0.28289794921875
0.28076171875
0.27069091796875
0.28472900390625
0.289306640625
0.3118896484375
0.33538818359375
0.3607177734375
0.38482666015625
0.4022216796875
0.41015625
0.41473388671875
0.42755126953125
0.42022705078125
0.416259765625
0.41595458984375
0.396728515625
0.38970947265625
0.38665771484375
0.37506103515625
0.367431640625
0.36346435546875
0.36041259765625
0.357666015625
0.34576416015625
0.343017578125
0.32470703125
0.33843994140625
0.343017578125
0.338134765625
0.33843994140625
0.333251953125
0.33294677734375
0.3302001953125
0.3399658203125
0.33843994140625
0.34271240234375
0.33050537109375
0.330810546875
0.33050537109375
0.3338623046875
0.33843994140625
0.3302001953125
0.33050537109375
0.33203125
0.33203125
0.3228759765625
0.3204345703125
0.33050537109375
0.33782958984375
0.330810546875
0.3387451171875
0.338134765625
0.340576171875
0.333251953125
0.33599853515625
0.330810546875
0.32501220703125
0.32989501953125
0.335693359375
0.3436279296875
0.335693359375
0.345458984375
0.3363037109375
0.3265380859375
0.3277587890625
0.33050537109375
0.32684326171875
0.3350830078125
0.3411865234375
0.34088134765625
0.33782958984375
0.3350830078125
0.33843994140625
0.343017578125
0.35064697265625
0.35003662109375
0.357666015625
0.362548828125
0.36529541015625
0.35491943359375
0.35064697265625
0.36285400390625
0.36224365234375
0.36468505859375
0.35064697265625
0.35858154296875
0.35797119140625
0.36346435546875
0.36529541015625
0.36285400390625
0.36346435546875
0.36773681640625
0.36773681640625
0.37017822265625
0.367431640625
0.3656005859375
0.374755859375
0.369873046875
0.37750244140625
0.3753662109375
0.38970947265625
0.38909912109375
0.3875732421875
0.3826904296875
0.386962890625
0.3948974609375
0.389404296875
0.39703369140625
0.39276123046875
0.39642333984375
0.39642333984375
0.39703369140625
0.391845703125
0.39642333984375
0.40130615234375
0.40374755859375
0.4034423828125
0.40130615234375
0.40374755859375
0.39886474609375
0.3948974609375
0.39886474609375
0.40618896484375
0.40313720703125
0.4150390625
0.40924072265625
0.41473388671875
0.40557861328125
0.41717529296875
0.419921875
0.42205810546875
0.4345703125
0.43212890625
0.43426513671875
0.4296875
0.43731689453125
0.44158935546875
0.45379638671875
0.45379638671875
0.45166015625
0.45867919921875
0.44952392578125
0.4461669921875
0.4534912109375
0.457763671875
0.45379638671875
0.45318603515625
0.45379638671875
0.4461669921875
0.4486083984375
0.45806884765625
0.46295166015625
0.4656982421875
0.469970703125
0.46783447265625
0.46722412109375
0.46539306640625
0.472412109375
0.46600341796875
0.48004150390625
0.47637939453125
0.48370361328125
0.48828125
0.4901123046875
0.482177734375
0.48004150390625
0.4815673828125
0.479736328125
0.47943115234375
0.4754638671875
0.4754638671875
0.47760009765625
0.47943115234375
0.4925537109375
0.49224853515625
0.479736328125
0.4754638671875
0.4827880859375
0.49285888671875
0.4931640625
0.48919677734375
0.49224853515625
0.4925537109375
0.4998779296875
0.49224853515625
0.4974365234375
0.50018310546875
0.5023193359375
0.4901123046875
0.482177734375
0.48980712890625
0.49591064453125
0.4925537109375
0.4852294921875
0.49530029296875
0.49713134765625
0.50262451171875
0.4974365234375
0.49285888671875
0.48828125
0.49560546875
0.49530029296875
0.49530029296875
0.49041748046875
0.4876708984375
0.4931640625
0.48736572265625
0.484619140625
0.4681396484375
0.47332763671875
0.46783447265625
0.46600341796875
0.4608154296875
0.45867919921875
0.46112060546875
0.45135498046875
0.43853759765625
0.42999267578125
0.43304443359375
0.4180908203125
0.41717529296875
0.42449951171875
0.41473388671875
0.4022216796875
0.399169921875
0.39154052734375
0.38909912109375
0.3814697265625
0.37200927734375
0.3692626953125
0.36468505859375
0.37017822265625
0.36041259765625
0.367431640625
0.350341796875
0.34942626953125
0.340576171875
0.34027099609375
0.3399658203125
0.3485107421875
0.34759521484375
0.3338623046875
0.333251953125
0.33477783203125
0.34271240234375
0.33782958984375
0.3271484375
0.32684326171875
0.32318115234375
0.3155517578125
0.32073974609375
0.32073974609375
0.32135009765625
0.32073974609375
0.31524658203125
0.3179931640625
0.31982421875
0.32257080078125
0.31402587890625
0.3192138671875
0.313720703125
0.31585693359375
0.31280517578125
0.31005859375
0.30853271484375
0.303955078125
0.31097412109375
0.308837890625
0.308837890625
0.30914306640625
0.31097412109375
0.3155517578125
0.3155517578125
0.30792236328125
0.3131103515625
0.30853271484375
0.3082275390625
0.31036376953125
0.318603515625
0.31982421875
0.32257080078125
0.33294677734375
0.32501220703125
0.34759521484375
0.3472900390625
0.35186767578125
0.350341796875
0.360107421875
0.35980224609375
0.360107421875
0.377197265625
0.38238525390625
0.3887939453125
0.39154052734375
0.396728515625
0.396728515625
0.39642333984375
0.4119873046875
0.41259765625
0.41473388671875
0.41961669921875
0.4193115234375
0.4241943359375
0.42724609375
0.4266357421875
0.42877197265625
0.4290771484375
0.43701171875
0.43182373046875
0.4449462890625
0.44586181640625
0.45623779296875
0.4608154296875
0.46142578125
0.474853515625
0.4730224609375
0.47454833984375
0.48187255859375
0.49530029296875
0.4931640625
0.494384765625
0.50048828125
0.50689697265625
0.5059814453125
0.51483154296875
0.50750732421875
0.50994873046875
0.51513671875
0.51910400390625
0.51666259765625
0.51483154296875
0.516357421875
0.50994873046875
0.50994873046875
0.50506591796875
0.51177978515625
0.51177978515625
0.5169677734375
0.5126953125
0.5078125
0.5047607421875
0.49835205078125
0.489501953125
0.4833984375
0.48126220703125
0.47515869140625
0.469970703125
0.46295166015625
0.4541015625
0.4388427734375
0.4290771484375
0.426025390625
0.41839599609375
0.41259765625
0.40618896484375
0.4095458984375
0.40924072265625
0.40374755859375
0.3790283203125
0.37994384765625
0.38421630859375
0.38482666015625
0.37628173828125
0.372314453125
0.37445068359375
0.3680419921875
0.37384033203125
0.36956787109375
0.360107421875
0.350341796875
0.340576171875
0.34271240234375
0.34423828125
0.33203125
0.3277587890625
0.32073974609375
0.3131103515625
0.31005859375
0.30792236328125
0.301513671875
0.29388427734375
0.301513671875
0.296630859375
0.30609130859375
0.2972412109375
0.29632568359375
0.294189453125
0.29632568359375
0.296630859375
0.29205322265625
0.30120849609375
0.294189453125
0.29876708984375
0.2911376953125
0.30517578125
0.301513671875
0.30120849609375
0.294189453125
0.303955078125
0.30120849609375
0.299072265625
0.296630859375
0.284423828125
0.28228759765625
0.28717041015625
0.2960205078125
0.29144287109375
0.2911376953125
0.27191162109375
0.277099609375
0.281982421875
0.28839111328125
0.27862548828125
0.27679443359375
0.2801513671875
0.2777099609375
0.281982421875
0.27984619140625
0.28472900390625
0.2703857421875
0.2679443359375
0.2655029296875
0.25787353515625
0.25238037109375
0.23284912109375
0.2081298828125
0.19317626953125
0.16998291015625
0.15960693359375
0.1495361328125
0.1251220703125
0.11505126953125
0.1007080078125
0.08087158203125
0.05340576171875
0.03631591796875
0.0146484375
0.0054931640625
0.01068115234375
0.020751953125
0.04302978515625
0.0628662109375
0.08697509765625
0.11993408203125
0.16815185546875
0.206298828125
0.283203125
0.36102294921875
0.45654296875
0.56121826171875
0.69793701171875
0.838623046875
0.958251953125
1.0748291015625
1.175537109375
1.2890625
1.4263916015625
1.53076171875
1.5997314453125
1.6925048828125
1.76849365234375
1.8292236328125
1.837158203125
1.8072509765625
1.788330078125
1.71173095703125
1.65130615234375
1.5826416015625
1.48681640625
1.3983154296875
1.29913330078125
1.1639404296875
1.0052490234375
0.880126953125
0.77728271484375
0.684814453125
0.60577392578125
0.5279541015625
0.46630859375
0.4022216796875
0.357666015625
0.33538818359375
0.311279296875
0.306396484375
0.29876708984375
0.30609130859375
0.30792236328125
0.32318115234375
0.34515380859375
0.364990234375
0.3912353515625
0.39703369140625
0.40069580078125
0.40283203125
0.41900634765625
0.4168701171875
0.40008544921875
0.39794921875
0.39306640625
0.3814697265625
0.37445068359375
0.37384033203125
0.360107421875
0.35247802734375
0.3448486328125
0.34210205078125
0.33538818359375
0.33782958984375
0.32379150390625
0.3326416015625
0.32958984375
0.3265380859375
0.32440185546875
0.31707763671875
0.3204345703125
0.31524658203125
0.3240966796875
0.31982421875
0.322265625
0.32012939453125
0.3179931640625
0.31951904296875
0.31341552734375
0.3155517578125
0.32012939453125
0.31768798828125
0.311279296875
0.31494140625
0.32196044921875
0.32196044921875
0.31707763671875
0.3076171875
0.32012939453125
0.32745361328125
0.32470703125
0.3289794921875
0.32470703125
0.321044921875
0.32196044921875
0.32012939453125
0.3216552734375
0.318603515625
0.32196044921875
0.322265625
0.32958984375
0.33447265625
0.3302001953125
0.323486328125
0.32501220703125
0.3265380859375
0.32440185546875
0.32928466796875
0.325927734375
0.33203125
0.3375244140625
0.3375244140625
0.33477783203125
0.3375244140625
0.3350830078125
0.33721923828125
0.3350830078125
0.33172607421875
0.33294677734375
0.3375244140625
0.3424072265625
0.3424072265625
0.343017578125
0.34088134765625
0.35736083984375
0.34820556640625
0.3497314453125
0.3497314453125
0.350341796875
0.3570556640625
0.3607177734375
0.35919189453125
0.35186767578125
0.36376953125
0.36712646484375
0.35980224609375
0.36163330078125
0.3717041015625
0.3662109375
0.37445068359375
0.3765869140625
0.38177490234375
0.36865234375
0.36712646484375
0.38238525390625
0.37933349609375
0.38604736328125
0.3912353515625
0.40069580078125
0.40313720703125
0.40313720703125
0.39581298828125
0.3961181640625
0.39581298828125
0.3961181640625
0.39794921875
0.4034423828125
0.413818359375
0.40069580078125
0.40557861328125
0.411376953125
0.41168212890625
0.411376953125
0.4083251953125
0.40069580078125
0.40924072265625
0.41168212890625
0.4168701171875
0.41900634765625
0.418701171875
0.42144775390625
0.41412353515625
0.42694091796875
0.42144775390625
0.42388916015625
0.41900634765625
0.430908203125
0.430908203125
0.433349609375
0.43975830078125
0.44342041015625
0.44525146484375
0.44281005859375
0.44952392578125
0.45257568359375
0.44525146484375
0.45013427734375
0.45745849609375
0.4595947265625
0.4669189453125
0.46234130859375
0.45989990234375
0.460205078125
0.462646484375
0.465087890625
0.46539306640625
0.46661376953125
0.457763671875
0.4693603515625
0.4669189453125
0.4669189453125
0.460205078125
0.460205078125
0.4632568359375
0.465087890625
0.4669189453125
0.467529296875
0.4669189453125
0.460205078125
0.460205078125
0.460205078125
0.46478271484375
0.4644775390625
0.4742431640625
0.48126220703125
0.4791259765625
0.47210693359375
0.4766845703125
0.48187255859375
0.48675537109375
0.48126220703125
0.48126220703125
0.49896240234375
0.4974365234375
0.49468994140625
0.4949951171875
0.49224853515625
0.4998779296875
0.50201416015625
0.496826171875
0.48370361328125
0.4827880859375
0.494384765625
0.5023193359375
0.49652099609375
0.49163818359375
0.487060546875
0.487060546875
0.47637939453125
0.48309326171875
0.4766845703125
0.487060546875
0.4766845703125
0.469970703125
0.46722412109375
0.460205078125
0.45989990234375
0.44281005859375
0.44342041015625
0.4400634765625
0.43853759765625
0.43304443359375
0.438232421875
0.43548583984375
0.42236328125
0.41900634765625
0.4095458984375
0.40496826171875
0.40069580078125
0.40313720703125
0.4052734375
0.4052734375
0.38909912109375
0.38909912109375
0.3826904296875
0.3790283203125
0.36865234375
0.3594970703125
0.35736083984375
0.3582763671875
0.35736083984375
0.3448486328125
0.3497314453125
0.33935546875
0.338134765625
0.3302001953125
0.32684326171875
0.32379150390625
0.3240966796875
0.3314208984375
0.32318115234375
0.3143310546875
0.3094482421875
0.3125
0.3057861328125
0.30609130859375
0.308837890625
0.3106689453125
0.2984619140625
0.30059814453125
0.30609130859375
0.3009033203125
0.29815673828125
0.29327392578125
0.29632568359375
0.29815673828125
0.3009033203125
0.2862548828125
0.2935791015625
0.29998779296875
0.3057861328125
0.2978515625
0.30059814453125
0.30792236328125
0.3057861328125
0.30792236328125
0.30120849609375
0.3033447265625
0.30303955078125
0.3057861328125
0.3057861328125
0.30792236328125
0.3106689453125
0.31219482421875
0.3057861328125
0.3082275390625
0.31005859375
0.31036376953125
0.30731201171875
0.30548095703125
0.30792236328125
0.30364990234375
0.31524658203125
0.3057861328125
0.3131103515625
0.31951904296875
0.322265625
0.32470703125
0.33294677734375
0.3375244140625
0.33111572265625
0.33233642578125
0.3424072265625
0.3546142578125
0.36407470703125
0.36895751953125
0.36895751953125
0.377197265625
0.37933349609375
0.3814697265625
0.39398193359375
0.4010009765625
0.39886474609375
0.3961181640625
0.40283203125
0.40924072265625
0.41839599609375
0.413818359375
0.42633056640625
0.4339599609375
0.435791015625
0.42816162109375
0.42877197265625
0.43853759765625
0.44097900390625
0.4522705078125
0.44586181640625
0.45074462890625
0.4473876953125
0.45257568359375
0.465087890625
0.46966552734375
0.4718017578125
0.4815673828125
0.48126220703125
0.4815673828125
0.491943359375
0.48980712890625
0.484619140625
0.491943359375
0.5023193359375
0.4974365234375
0.5072021484375
0.5029296875
0.50689697265625
0.50018310546875
0.5078125
0.49957275390625
0.50018310546875
0.5023193359375
0.50018310546875
0.5072021484375
0.50689697265625
0.51177978515625
0.50689697265625
0.5047607421875
0.50201416015625
0.49560546875
0.4901123046875
0.49957275390625
0.4931640625
0.487060546875
0.48919677734375
0.4815673828125
0.467529296875
0.45318603515625
0.452880859375
0.43365478515625
0.42572021484375
0.41656494140625
0.411376953125
0.4119873046875
0.4058837890625
0.40313720703125
0.38726806640625
0.37567138671875
0.360107421875
0.35797119140625
0.3570556640625
0.36224365234375
0.35980224609375
0.362548828125
0.362548828125
0.3546142578125
0.3472900390625
0.35064697265625
0.3399658203125
0.33538818359375
0.3302001953125
0.33294677734375
0.335693359375
0.32470703125
0.32989501953125
0.32257080078125
0.31982421875
0.3106689453125
0.30609130859375
0.2984619140625
0.29876708984375
0.3009033203125
0.29449462890625
0.29815673828125
0.2911376953125
0.2960205078125
0.2935791015625
0.2911376953125
0.2862548828125
0.2838134765625
0.2801513671875
0.284423828125
0.28961181640625
0.29205322265625
0.28656005859375
0.279541015625
0.279541015625
0.27496337890625
0.286865234375
0.27801513671875
0.28228759765625
0.27679443359375
0.27435302734375
0.274658203125
0.27435302734375
0.277099609375
0.27496337890625
0.284423828125
0.2789306640625
0.2764892578125
0.2703857421875
0.26763916015625
0.26519775390625
0.2728271484375
0.2728271484375
0.2801513671875
0.281982421875
0.27496337890625
0.26763916015625
0.262451171875
0.255126953125
0.2392578125
0.2215576171875
0.20355224609375
0.1953125
0.17364501953125
0.15899658203125
0.14739990234375
0.13458251953125
0.10528564453125
0.08270263671875
0.05615234375
0.03143310546875
0.01739501953125
-0.0018310546875
-0.00579833984375
-0.0128173828125
-0.00335693359375
0.01922607421875
0.04058837890625
0.072021484375
0.09918212890625
0.13763427734375
0.18157958984375
0.25604248046875
0.3460693359375
0.43365478515625
0.54168701171875
0.66925048828125
0.79833984375
0.924072265625
1.0418701171875
1.15966796875
1.27685546875
1.41021728515625
1.51580810546875
1.5966796875
1.68670654296875
1.76300048828125
1.84814453125
1.8817138671875
1.865234375
1.8536376953125
1.783447265625
1.71875
1.6619873046875
1.5777587890625
1.4892578125
1.3916015625
1.27777099609375
1.13922119140625
1.0076904296875
0.889892578125
0.79833984375
0.7110595703125
0.61248779296875
0.55145263671875
0.49530029296875
0.447998046875
0.41015625
0.374755859375
0.35247802734375
0.3363037109375
0.335693359375
0.33294677734375
0.343017578125
0.3521728515625
0.36468505859375
0.38238525390625
0.39398193359375
0.39337158203125
0.3912353515625
0.3863525390625
0.36865234375
0.37322998046875
0.374755859375
0.3692626953125
0.3643798828125
0.3692626953125
0.3497314453125
0.345458984375
0.340576171875
0.33538818359375
0.3302001953125
0.322265625
0.322265625
0.318603515625
0.32958984375
0.3131103515625
0.31341552734375
0.3131103515625
0.3167724609375
0.3125
0.31097412109375
0.3131103515625
0.31341552734375
0.3125
0.3106689453125
0.3057861328125
0.30364990234375
0.3033447265625
0.303955078125
0.299072265625
0.294189453125
0.301513671875
0.301513671875
0.303955078125
0.30242919921875
0.2978515625
0.296630859375
0.29388427734375
0.299072265625
0.2972412109375
0.30426025390625
0.30120849609375
0.30609130859375
0.30120849609375
0.30120849609375
0.30364990234375
0.3033447265625
0.31280517578125
0.3131103515625
0.30853271484375
0.299072265625
0.30120849609375
0.30609130859375
0.3155517578125
0.32012939453125
0.3179931640625
0.3009033203125
0.30609130859375
0.3106689453125
0.313720703125
0.31341552734375
0.3106689453125
0.311279296875
0.31341552734375
0.32440185546875
0.31951904296875
0.31982421875
0.31982421875
0.31829833984375
0.3179931640625
0.32501220703125
0.33294677734375
0.3302001953125
0.32684326171875
0.33538818359375
0.3399658203125
0.3411865234375
0.33294677734375
0.32745361328125
0.33050537109375
0.32745361328125
0.34027099609375
0.34088134765625
0.345458984375
0.34393310546875
0.343017578125
0.340576171875
0.34027099609375
0.34759521484375
0.338134765625
0.3485107421875
0.3460693359375
0.35064697265625
0.3472900390625
0.350341796875
0.35308837890625
0.3448486328125
0.34759521484375
0.350341796875
0.3533935546875
0.3472900390625
0.3582763671875
0.35797119140625
0.352783203125
0.352783203125
0.36041259765625
0.3607177734375
0.36468505859375
0.3680419921875
0.3692626953125
0.36956787109375
0.36956787109375
0.377197265625
0.3741455078125
0.38726806640625
0.38177490234375
0.396728515625
0.38665771484375
0.38238525390625
0.386962890625
0.39215087890625
0.3961181640625
0.39703369140625
0.4010009765625
0.39947509765625
0.401611328125
0.40130615234375
0.400390625
0.400390625
0.40191650390625
0.399169921875
0.404052734375
0.396728515625
0.39886474609375
0.404052734375
0.399169921875
0.40618896484375
0.41412353515625
0.41717529296875
0.39886474609375
0.41046142578125
0.41656494140625
0.42236328125
0.41717529296875
0.41717529296875
0.419921875
0.41748046875
0.4266357421875
0.43701171875
0.43670654296875
0.42938232421875
0.42694091796875
0.42205810546875
0.4248046875
0.42388916015625
0.43365478515625
0.4315185546875
0.42633056640625
0.42388916015625
0.419921875
0.4193115234375
0.42694091796875
0.43212890625
0.4296875
0.44219970703125
0.42724609375
0.4315185546875
0.4296875
0.43914794921875
0.44342041015625
0.44158935546875
0.43853759765625
0.4351806640625
0.4364013671875
0.44158935546875
0.44342041015625
0.4437255859375
0.44342041015625
0.450439453125
0.45379638671875
0.443115234375
0.4510498046875
0.447998046875
0.447998046875
0.4437255859375
0.44342041015625
0.44891357421875
0.44891357421875
0.4534912109375
0.4437255859375
0.44677734375
0.44403076171875
0.445556640625
0.43701171875
0.4364013671875
0.43426513671875
0.42205810546875
0.41961669921875
0.4058837890625
0.4034423828125
0.3924560546875
0.39154052734375
0.39154052734375
0.389404296875
0.3875732421875
0.37811279296875
0.364990234375
0.36041259765625
0.352783203125
0.347900390625
0.34332275390625
0.33538818359375
0.33538818359375
0.33294677734375
0.3460693359375
0.335693359375
0.32257080078125
0.31097412109375
0.308837890625
0.3155517578125
0.3131103515625
0.3106689453125
0.2984619140625
0.29571533203125
0.29144287109375
0.29937744140625
0.291748046875
0.28961181640625
0.28656005859375
0.28472900390625
0.27984619140625
0.277099609375
0.27557373046875
0.2801513671875
0.28076171875
0.2752685546875
0.27740478515625
0.2679443359375
0.2752685546875
0.27008056640625
0.277099609375
0.2703857421875
0.2703857421875
0.2655029296875
0.2606201171875
0.2703857421875
0.2685546875
0.269775390625
0.26580810546875
0.26580810546875
0.25787353515625
0.260009765625
0.2630615234375
0.2630615234375
0.26275634765625
0.26397705078125
0.26153564453125
0.2606201171875
0.26763916015625
0.264892578125
0.2606201171875
0.25787353515625
0.264892578125
0.26580810546875
0.27099609375
0.25604248046875
0.2557373046875
0.25787353515625
0.25787353515625
0.26275634765625
0.2630615234375
0.2655029296875
0.2581787109375
0.25787353515625
0.255126953125
0.2655029296875
0.26092529296875
0.2557373046875
0.25787353515625
0.26031494140625
0.26031494140625
0.2655029296875
0.26336669921875
0.2630615234375
0.26336669921875
0.2655029296875
0.2679443359375
0.2679443359375
0.272216796875
0.26031494140625
0.2679443359375
0.27069091796875
0.27618408203125
0.27008056640625
0.26763916015625
0.27984619140625
0.2728271484375
0.27740478515625
0.2801513671875
0.28228759765625
0.27557373046875
0.27496337890625
0.27984619140625
0.27984619140625
0.28717041015625
0.289306640625
0.28564453125
0.2850341796875
0.28656005859375
0.28472900390625
0.2862548828125
0.2850341796875
0.284423828125
0.284423828125
0.29876708984375
0.28961181640625
0.2874755859375
0.28778076171875
0.3021240234375
0.31219482421875
0.3204345703125
0.32012939453125
0.311279296875
0.32257080078125
0.32501220703125
0.335693359375
0.34027099609375
0.35064697265625
0.3656005859375
0.36956787109375
0.369873046875
0.37200927734375
0.37933349609375
0.3802490234375
0.377197265625
0.3814697265625
0.38421630859375
0.38726806640625
0.39947509765625
0.38909912109375
0.396728515625
0.4046630859375
0.4095458984375
0.40557861328125
0.4034423828125
0.41015625
0.4144287109375
0.4266357421875
0.4248046875
0.4351806640625
0.43701171875
0.44097900390625
0.44403076171875
0.44769287109375
0.4559326171875
0.45806884765625
0.45623779296875
0.45135498046875
0.4559326171875
0.45166015625
0.44830322265625
0.45654296875
0.46112060546875
0.4559326171875
0.46356201171875
0.4559326171875
0.4510498046875
0.4461669921875
0.44677734375
0.4541015625
0.44647216796875
0.46051025390625
0.455322265625
0.45867919921875
0.45135498046875
0.4510498046875
0.4461669921875
0.4443359375
0.4388427734375
0.43212890625
0.42938232421875
0.41778564453125
0.40985107421875
0.39886474609375
0.3924560546875
0.382080078125
0.37445068359375
0.36712646484375
0.35980224609375
0.34210205078125
0.345458984375
0.34332275390625
0.34027099609375
0.3228759765625
0.31402587890625
0.3155517578125
0.31341552734375
0.32257080078125
0.313720703125
0.306396484375
0.291748046875
0.28717041015625
0.28717041015625
0.2825927734375
0.28228759765625
0.2783203125
0.2703857421875
0.2685546875
0.26275634765625
0.25299072265625
0.2490234375
0.2557373046875
0.25360107421875
0.23712158203125
0.245361328125
0.24749755859375
0.2496337890625
0.23773193359375
0.2423095703125
0.24505615234375
0.23345947265625
0.23284912109375
0.223388671875
0.2325439453125
0.23284912109375
0.23284912109375
0.2227783203125
0.220947265625
0.230712890625
0.22613525390625
0.2252197265625
0.22857666015625
0.22857666015625
0.218505859375
0.22125244140625
0.220947265625
0.2264404296875
0.22857666015625
0.233154296875
0.225830078125
0.22857666015625
0.22705078125
0.225830078125
0.22125244140625
0.220947265625
0.22613525390625
0.22064208984375
0.2252197265625
0.21575927734375
0.218505859375
0.21331787109375
0.2142333984375
0.20843505859375
0.20477294921875
0.206298828125
0.19683837890625
0.184326171875
0.1708984375
0.16143798828125
0.13519287109375
0.11322021484375
0.10345458984375
0.096435546875
0.07293701171875
0.0628662109375
0.048828125
0.0360107421875
0.01617431640625
-0.008544921875
-0.0201416015625
-0.02288818359375
-0.01312255859375
-0.008544921875
0.02410888671875
0.048828125
0.091552734375
0.13031005859375
0.17303466796875
0.2288818359375
0.2984619140625
0.39276123046875
0.484619140625
0.62103271484375
0.74920654296875
0.8782958984375
1.00616455078125
1.13433837890625
1.25274658203125
1.37847900390625
1.49169921875
1.6015625
1.68060302734375
1.763916015625
1.84295654296875
1.89910888671875
1.91436767578125
1.88018798828125
1.8603515625
1.78558349609375
1.72149658203125
1.63238525390625
1.54083251953125
1.44378662109375
1.3397216796875
1.2060546875
1.0614013671875
0.91949462890625
0.83343505859375
0.7672119140625
0.65277099609375
0.570068359375
0.501708984375
0.44647216796875
0.39886474609375
0.3631591796875
0.33843994140625
0.3204345703125
0.2996826171875
0.2935791015625
0.30120849609375
0.30426025390625
0.32012939453125
0.31768798828125
0.33050537109375
0.330810546875
0.3277587890625
0.316162109375
0.32012939453125
0.3204345703125
0.3179931640625
0.31982421875
0.31524658203125
0.3045654296875
0.29205322265625
0.29937744140625
0.296630859375
0.28900146484375
0.27984619140625
0.27801513671875
0.26824951171875
0.26580810546875
0.2630615234375
0.25604248046875
0.24749755859375
0.24261474609375
0.2423095703125
0.238037109375
0.25543212890625
0.2398681640625
0.233154296875
0.23345947265625
0.23834228515625
0.24444580078125
0.2423095703125
0.245361328125
0.2362060546875
0.2349853515625
0.23773193359375
0.24078369140625
0.24200439453125
0.24749755859375
0.2471923828125
0.2423095703125
0.24078369140625
0.24505615234375
0.23834228515625
0.2423095703125
0.24078369140625
0.240478515625
0.2471923828125
0.24688720703125
0.2471923828125
0.23345947265625
0.24261474609375
0.24261474609375
0.240478515625
0.24322509765625
0.25787353515625
0.2630615234375
0.25299072265625
0.24932861328125
0.238037109375
0.2471923828125
0.25848388671875
0.26123046875
0.26519775390625
0.26336669921875
0.2557373046875
0.26092529296875
0.26611328125
0.26031494140625
0.26092529296875
0.2667236328125
0.2716064453125
0.2630615234375
0.26763916015625
0.2630615234375
0.2777099609375
0.2728271484375
0.2734375
0.272216796875
0.27557373046875
0.272216796875
0.27313232421875
0.28289794921875
0.283203125
0.28167724609375
0.28045654296875
0.2874755859375
0.28961181640625
0.289306640625
0.29022216796875
0.2899169921875
0.28533935546875
0.28717041015625
0.291748046875
0.2923583984375
0.291748046875
0.29205322265625
0.29449462890625
0.2911376953125
0.29449462890625
0.281982421875
0.289306640625
0.2899169921875
0.2972412109375
0.29388427734375
0.30120849609375
0.2996826171875
0.294189453125
0.30548095703125
0.3070068359375
0.31097412109375
0.30914306640625
0.308837890625
0.31158447265625
0.318603515625
0.3155517578125
0.3204345703125
0.316162109375
0.31829833984375
0.32012939453125
0.32012939453125
0.3204345703125
0.32073974609375
0.3271484375
0.31829833984375
0.33599853515625
0.335693359375
0.3399658203125
0.333251953125
0.338134765625
0.3436279296875
0.3387451171875
0.34576416015625
0.35064697265625
0.35003662109375
0.34576416015625
0.3533935546875
0.35064697265625
0.35308837890625
0.35797119140625
0.360107421875
0.3582763671875
0.3533935546875
0.34515380859375
0.3460693359375
0.360107421875
0.367431640625
0.37261962890625
0.3656005859375
0.37261962890625
0.36041259765625
0.36773681640625
0.3729248046875
0.3778076171875
0.3778076171875
0.3753662109375
0.37872314453125
0.37567138671875
0.384521484375
0.37994384765625
0.3802490234375
0.37994384765625
0.38238525390625
0.38238525390625
0.38482666015625
0.37994384765625
0.3778076171875
0.379638671875
0.38665771484375
0.38909912109375
0.38665771484375
0.3887939453125
0.38970947265625
0.38482666015625
0.38421630859375
0.39459228515625
0.386962890625
0.3924560546875
0.391845703125
0.396728515625
0.3948974609375
0.38909912109375
0.38482666015625
0.3802490234375
0.38970947265625
0.38848876953125
0.391845703125
0.3924560546875
0.386962890625
0.386962890625
0.38970947265625
0.394287109375
0.39398193359375
0.38726806640625
0.3900146484375
0.396728515625
0.39398193359375
0.39703369140625
0.389404296875
0.38726806640625
0.37200927734375
0.38238525390625
0.37506103515625
0.374755859375
0.37200927734375
0.3717041015625
0.36956787109375
0.36224365234375
0.36041259765625
0.3509521484375
0.345458984375
0.33294677734375
0.330810546875
0.330810546875
0.33355712890625
0.3350830078125
0.33477783203125
0.3228759765625
0.313720703125
0.30853271484375
0.299072265625
0.29693603515625
0.29449462890625
0.29205322265625
0.28472900390625
0.29205322265625
0.2801513671875
0.27252197265625
0.26275634765625
0.262451171875
0.263671875
0.26123046875
0.26031494140625
0.2532958984375
0.25634765625
0.24261474609375
0.24505615234375
0.2423095703125
0.2423095703125
0.2398681640625
0.235595703125
0.2337646484375
0.23345947265625
0.235595703125
0.2325439453125
0.22796630859375
0.23040771484375
0.23223876953125
0.23284912109375
0.2349853515625
0.2276611328125
0.2301025390625
0.228271484375
0.233154296875
0.235595703125
0.22735595703125
0.22613525390625
0.22125244140625
0.228271484375
0.223388671875
0.22796630859375
0.218505859375
0.21636962890625
0.21820068359375
0.21881103515625
0.21575927734375
0.213623046875
0.213623046875
0.208740234375
0.211181640625
0.21575927734375
0.216064453125
0.216064453125
0.216064453125
0.21148681640625
0.21942138671875
0.2166748046875
0.22796630859375
0.228271484375
0.22369384765625
0.22613525390625
0.2178955078125
0.22064208984375
0.21820068359375
0.22369384765625
0.22064208984375
0.22552490234375
0.220947265625
0.2154541015625
0.220947265625
0.2215576171875
0.22796630859375
0.2325439453125
0.2337646484375
0.21881103515625
0.22064208984375
0.23162841796875
0.22552490234375
0.2301025390625
0.24017333984375
0.23468017578125
0.23773193359375
0.2532958984375
0.24749755859375
0.2398681640625
0.23223876953125
0.2447509765625
0.25299072265625
0.25482177734375
0.2423095703125
0.2423095703125
0.2398681640625
0.2490234375
0.24932861328125
0.24658203125
0.252685546875
0.247802734375
0.24200439453125
0.230712890625
0.2301025390625
0.24200439453125
0.2496337890625
0.25634765625
0.2471923828125
0.2374267578125
0.24505615234375
0.23773193359375
0.2349853515625
0.2447509765625
0.2557373046875
0.25299072265625
0.24688720703125
0.255126953125
0.24810791015625
0.24871826171875
0.25299072265625
0.260009765625
0.25604248046875
0.26031494140625
0.2630615234375
0.2606201171875
0.26275634765625
0.26092529296875
0.2587890625
0.25543212890625
0.257568359375
0.2630615234375
0.26519775390625
0.2679443359375
0.27252197265625
0.26458740234375
0.2630615234375
0.2606201171875
0.26153564453125
0.2557373046875
0.252685546875
0.25299072265625
0.25604248046875
0.2679443359375
0.26275634765625
0.2606201171875
0.2496337890625
0.2532958984375
0.252685546875
0.2581787109375
0.25787353515625
0.25360107421875
0.2447509765625
0.24932861328125
0.25604248046875
0.25360107421875
0.2447509765625
0.24749755859375
0.24993896484375
0.24688720703125
0.2532958984375
0.2447509765625
0.24017333984375
0.2423095703125
0.24261474609375
0.242919921875
0.24749755859375
0.24749755859375
0.23773193359375
0.24505615234375
0.2447509765625
0.252685546875
0.2496337890625
0.25299072265625
0.252685546875
0.2532958984375
0.24932861328125
0.24932861328125
0.245361328125
0.23284912109375
0.2301025390625
0.23956298828125
0.24169921875
0.2349853515625
0.23223876953125
0.225830078125
0.228271484375
0.22796630859375
0.23040771484375
0.22552490234375
0.2227783203125
0.225830078125
0.223388671875
0.2447509765625
0.23773193359375
0.2374267578125
0.23773193359375
0.23529052734375
0.23956298828125
0.23956298828125
0.24200439453125
0.2423095703125
0.24444580078125
0.24200439453125
0.2374267578125
0.22705078125
0.22064208984375
0.225830078125
0.2276611328125
0.2252197265625
0.22430419921875
0.2178955078125
0.2227783203125
0.2301025390625
0.23040771484375
0.22796630859375
0.2227783203125
0.22857666015625
0.21697998046875
0.22796630859375
0.22796630859375
0.23193359375
0.2301025390625
0.23040771484375
0.2325439453125
0.23284912109375
0.234375
0.2301025390625
0.22735595703125
0.21820068359375
0.21759033203125
0.2227783203125
0.22491455078125
0.21820068359375
0.2252197265625
0.2227783203125
0.2227783203125
0.22735595703125
0.22796630859375
0.228271484375
0.21820068359375
0.2252197265625
0.22308349609375
0.22735595703125
0.21820068359375
0.220947265625
0.22125244140625
0.22796630859375
0.23284912109375
0.23162841796875
0.2294921875
0.22613525390625
0.22613525390625
0.225830078125
0.2252197265625
0.22216796875
0.2227783203125
0.22552490234375
0.22369384765625
0.22216796875
0.22796630859375
0.22308349609375
0.223388671875
0.220947265625
0.21484375
0.22247314453125
0.2239990234375
0.2313232421875
0.21820068359375
0.225830078125
0.2227783203125
0.22979736328125
0.2227783203125
0.2203369140625
0.2239990234375
0.220947265625
0.22735595703125
0.230712890625
0.2325439453125
0.2301025390625
0.2301025390625
0.2252197265625
0.2227783203125
0.22003173828125
0.223388671875
0.2276611328125
0.22308349609375
0.216064453125
0.2130126953125
0.218505859375
0.22491455078125
0.22979736328125
0.2325439453125
0.2374267578125
0.2252197265625
0.223388671875
0.2203369140625
0.220947265625
0.21820068359375
0.22613525390625
0.2276611328125
0.22247314453125
0.22308349609375
0.22247314453125
0.2252197265625
0.22064208984375
0.2178955078125
0.2178955078125
0.22064208984375
0.21820068359375
0.22247314453125
0.2227783203125
0.2227783203125
0.22003173828125
0.22003173828125
0.22308349609375
0.22064208984375
0.2276611328125
0.2154541015625
0.22308349609375
0.22003173828125
0.22308349609375
0.2178955078125
0.21514892578125
0.22064208984375
0.21270751953125
0.21270751953125
0.21087646484375
0.21820068359375
0.2130126953125
0.20782470703125
0.20294189453125
0.21270751953125
0.22491455078125
0.2276611328125
0.22064208984375
0.22064208984375
0.22003173828125
0.22064208984375
0.22064208984375
0.22491455078125
0.23223876953125
0.22796630859375
0.2349853515625
0.2301025390625
0.22979736328125
0.22735595703125
0.230712890625
0.23651123046875
0.23681640625
0.23834228515625
0.2374267578125
0.24627685546875
0.25482177734375
0.26031494140625
0.255126953125
0.2606201171875
0.2679443359375
0.27740478515625
0.2886962890625
0.29876708984375
0.29388427734375
0.296630859375
0.2996826171875
0.2935791015625
0.306396484375
0.3125
0.3131103515625
0.30548095703125
0.32012939453125
0.31951904296875
0.31890869140625
0.3167724609375
0.32958984375
0.33203125
0.3271484375
0.33203125
0.3271484375
0.32989501953125
0.3265380859375
0.343017578125
0.35003662109375
0.35491943359375
0.3570556640625
0.3668212890625
0.360107421875
0.35736083984375
0.35736083984375
0.3570556640625
0.3570556640625
0.3668212890625
0.37933349609375
0.3765869140625
0.3839111328125
0.374755859375
0.37872314453125
0.3765869140625
0.37933349609375
0.384521484375
0.38909912109375
0.39581298828125
0.3912353515625
0.40069580078125
0.40802001953125
0.3985595703125
0.38421630859375
0.37445068359375
0.3668212890625
0.35797119140625
0.3564453125
0.35675048828125
0.352783203125
0.33966064453125
0.32501220703125
0.3118896484375
0.3009033203125
0.29144287109375
0.2960205078125
0.28411865234375
0.28717041015625
0.2764892578125
0.2728271484375
0.2703857421875
0.27252197265625
0.27435302734375
0.274658203125
0.279541015625
0.27557373046875
0.27008056640625
0.262451171875
0.262451171875
0.26702880859375
0.27008056640625
0.25726318359375
0.255126953125
0.2496337890625
0.24688720703125
0.24200439453125
0.2374267578125
0.22796630859375
0.21514892578125
0.21514892578125
0.21240234375
0.224609375
0.21270751953125
0.2081298828125
0.2081298828125
0.211181640625
0.21026611328125
0.20355224609375
0.20294189453125
0.19866943359375
0.205078125
0.2032470703125
0.2105712890625
0.2056884765625
0.21026611328125
0.208740234375
0.2105712890625
0.21087646484375
0.2130126953125
0.21240234375
0.20599365234375
0.2008056640625
0.2020263671875
0.20782470703125
0.2105712890625
0.21331787109375
0.20263671875
0.2056884765625
0.2056884765625
0.2056884765625
0.20050048828125
0.20050048828125
0.2105712890625
0.2130126953125
0.2099609375
0.2032470703125
0.2130126953125
0.2130126953125
0.21026611328125
0.20599365234375
0.20355224609375
0.2008056640625
0.19378662109375
0.1812744140625
0.166015625
0.15106201171875
0.13671875
0.12451171875
0.11566162109375
0.10833740234375
0.08697509765625
0.087890625
0.07232666015625
0.05035400390625
0.03021240234375
0.01617431640625
0.01861572265625
0.0286865234375
0.04150390625
0.05859375
0.09185791015625
0.12451171875
0.1605224609375
0.19287109375
0.24169921875
0.3070068359375
0.38116455078125
0.47332763671875
0.57708740234375
0.709228515625
0.8331298828125
0.94635009765625
1.05560302734375
1.1669921875
1.26190185546875
1.36871337890625
1.466064453125
1.5533447265625
1.6229248046875
1.700439453125
1.76300048828125
1.77459716796875
1.7535400390625
1.71295166015625
1.6314697265625
1.5606689453125
1.50543212890625
1.41998291015625
1.33697509765625
1.24176025390625
1.12579345703125
0.99578857421875
0.86944580078125
0.750732421875
0.6585693359375
0.58258056640625
0.51513671875
0.460205078125
0.40618896484375
0.35858154296875
0.32196044921875
0.3131103515625
0.29632568359375
0.281982421875
0.27191162109375
0.2679443359375
0.27679443359375
0.28656005859375
0.30059814453125
0.29632568359375
0.30975341796875
0.3125
0.3173828125
0.31005859375
0.30853271484375
0.3057861328125
0.2972412109375
0.29144287109375
0.289306640625
0.28411865234375
0.279541015625
0.279541015625
0.2716064453125
0.26519775390625
0.260009765625
0.2655029296875
0.2569580078125
0.260009765625
0.25238037109375
0.260009765625
0.257568359375
0.25482177734375
0.2490234375
0.24200439453125
0.24627685546875
0.24017333984375
0.244140625
0.24139404296875
0.23956298828125
0.2374267578125
0.234375
0.23468017578125
0.23193359375
0.2325439453125
0.2349853515625
0.23468017578125
0.2294921875
0.2294921875
0.22979736328125
0.23529052734375
0.2349853515625
0.2447509765625
0.2392578125
0.23956298828125
0.244140625
0.24627685546875
0.24169921875
0.24627685546875
0.252685546875
0.24169921875
0.2484130859375
0.24505615234375
0.24658203125
0.24139404296875
0.23895263671875
0.244140625
0.24627685546875
0.24688720703125
0.24932861328125
0.25482177734375
0.24932861328125
0.24658203125
0.24932861328125
0.25238037109375
0.24871826171875
0.260009765625
0.25482177734375
0.25360107421875
0.24932861328125
0.25238037109375
0.252685546875
0.252685546875
0.25970458984375
0.25482177734375
0.263671875
0.257568359375
0.25787353515625
0.26031494140625
0.27008056640625
0.27191162109375
0.27008056640625
0.269775390625
0.27008056640625
0.2716064453125
0.27435302734375
0.286865234375
0.2850341796875
0.2789306640625
0.28167724609375
0.28656005859375
0.27923583984375
0.2850341796875
0.2838134765625
0.28717041015625
0.28472900390625
0.28411865234375
0.284423828125
0.28656005859375
0.29083251953125
0.28045654296875
0.2862548828125
0.2911376953125
0.2960205078125
0.29327392578125
0.29327392578125
0.2984619140625
0.296630859375
0.2935791015625
0.296630859375
0.29632568359375
0.2886962890625
0.2886962890625
0.2984619140625
0.30792236328125
0.3057861328125
0.303955078125
0.2960205078125
0.3009033203125
0.29876708984375
0.30548095703125
0.30364990234375
0.2984619140625
0.30609130859375
0.3057861328125
0.31982421875
0.3106689453125
0.32073974609375
0.323486328125
0.32989501953125
0.3350830078125
0.32470703125
0.32440185546875
0.32440185546875
0.3289794921875
0.33447265625
0.33782958984375
0.33477783203125
0.33477783203125
0.3448486328125
0.34759521484375
0.3399658203125
0.34332275390625
0.3424072265625
0.34515380859375
0.3448486328125
0.34515380859375
0.3497314453125
0.35430908203125
0.35980224609375
0.35247802734375
0.35980224609375
0.35919189453125
0.36468505859375
0.36651611328125
0.364990234375
0.3643798828125
0.36285400390625
0.36956787109375
0.374755859375
0.3765869140625
0.37445068359375
0.36895751953125
0.367431640625
0.374755859375
0.37628173828125
0.3863525390625
0.384521484375
0.3790283203125
0.37872314453125
0.37689208984375
0.38177490234375
0.3839111328125
0.39398193359375
0.3887939453125
0.39825439453125
0.3961181640625
0.3985595703125
0.38848876953125
0.38909912109375
0.39398193359375
0.3887939453125
0.3936767578125
0.3985595703125
0.40283203125
0.4010009765625
0.41168212890625
0.4046630859375
0.39825439453125
0.3961181640625
0.4010009765625
0.40283203125
0.4095458984375
0.40985107421875
0.40924072265625
0.40557861328125
0.40374755859375
0.41168212890625
0.41168212890625
0.416259765625
0.4058837890625
0.41473388671875
0.40863037109375
0.4119873046875
0.408935546875
0.40863037109375
0.40374755859375
0.39398193359375
0.39520263671875
0.39642333984375
0.39886474609375
0.39154052734375
0.3887939453125
0.384521484375
0.377197265625
0.36651611328125
0.36468505859375
0.35736083984375
0.360107421875
0.35736083984375
0.3521728515625
0.3448486328125
0.3369140625
0.3350830078125
0.32257080078125
0.3228759765625
0.313720703125
0.3131103515625
0.3057861328125
0.30303955078125
0.29876708984375
0.29083251953125
0.29144287109375
0.28778076171875
0.28839111328125
0.2850341796875
0.284423828125
0.274658203125
0.262451171875
0.25787353515625
0.2606201171875
0.262451171875
0.26763916015625
0.26031494140625
0.25238037109375
0.247802734375
0.2435302734375
0.24261474609375
0.2374267578125
0.2520751953125
0.23773193359375
0.23712158203125
0.2325439453125
0.2325439453125
0.22705078125
0.230712890625
0.225830078125
0.22064208984375
0.22735595703125
0.22796630859375
0.2325439453125
0.22491455078125
0.22064208984375
0.2178955078125
0.2178955078125
0.21697998046875
0.22064208984375
0.2130126953125
0.22979736328125
0.2349853515625
0.23040771484375
0.220947265625
0.21697998046875
0.22308349609375
0.22308349609375
0.2325439453125
0.2288818359375
0.2252197265625
0.22003173828125
0.22552490234375
0.22918701171875
0.23223876953125
0.23956298828125
0.23284912109375
0.2294921875
0.2276611328125
0.22918701171875
0.223388671875
0.2252197265625
0.234375
0.23681640625
0.24017333984375
0.23529052734375
0.22216796875
0.2252197265625
0.23040771484375
0.2301025390625
0.23223876953125
0.23040771484375
0.2349853515625
0.22491455078125
0.23223876953125
0.2301025390625
0.22705078125
0.22552490234375
0.23040771484375
0.23223876953125
0.22979736328125
0.23834228515625
0.234375
0.2374267578125
0.2325439453125
0.2349853515625
0.2349853515625
0.2349853515625
0.23712158203125
0.24261474609375
0.23712158203125
0.23712158203125
0.2374267578125
0.23773193359375
0.23956298828125
0.24200439453125
0.24658203125
0.2447509765625
0.26123046875
0.245361328125
0.24444580078125
0.24932861328125
0.252685546875
0.24688720703125
0.2447509765625
0.24871826171875
0.23834228515625
0.244140625
0.24688720703125
0.24932861328125
0.24200439453125
0.242919921875
0.24200439453125
0.23956298828125
0.2325439453125
0.23773193359375
0.23773193359375
0.2374267578125
0.2423095703125
0.242919921875
0.23956298828125
0.23773193359375
0.24749755859375
0.2398681640625
0.245361328125
0.24017333984375
0.24658203125
0.25146484375
0.2447509765625
0.2532958984375
0.24200439453125
0.24658203125
0.23834228515625
0.23712158203125
0.23956298828125
0.2447509765625
0.24688720703125
0.24444580078125
0.24139404296875
0.24322509765625
0.24444580078125
0.24383544921875
0.24017333984375
0.23773193359375
0.23223876953125
0.2301025390625
0.2374267578125
0.2349853515625
0.24688720703125
0.240478515625
0.23284912109375
0.22979736328125
0.23101806640625
0.233154296875
0.2349853515625
0.24200439453125
0.24017333984375
0.24444580078125
0.24017333984375
0.2447509765625
0.23681640625
0.2325439453125
0.2374267578125
0.23284912109375
0.230712890625
0.235595703125
0.2325439453125
0.22857666015625
0.22552490234375
0.22857666015625
0.23529052734375
0.2325439453125
0.230712890625
0.21575927734375
0.2178955078125
0.21820068359375
0.22491455078125
0.22979736328125
0.23040771484375
0.23284912109375
0.223388671875
0.23193359375
0.230712890625
0.230712890625
0.2301025390625
0.23681640625
0.2276611328125
0.220947265625
0.22308349609375
0.2301025390625
0.2325439453125
0.2301025390625
0.2252197265625
0.22064208984375
0.2203369140625
0.22064208984375
0.220947265625
0.2154541015625
0.225830078125
0.22186279296875
0.220947265625
0.21575927734375
0.213623046875
0.216064453125
0.21270751953125
0.22491455078125
0.22064208984375
0.2178955078125
0.213623046875
0.21881103515625
0.213623046875
0.2130126953125
0.216064453125
0.216064453125
0.21575927734375
0.21148681640625
0.211181640625
0.21087646484375
0.213623046875
0.21148681640625
0.21575927734375
0.211181640625
0.2130126953125
0.2008056640625
0.20843505859375
0.2117919921875
0.21087646484375
0.20660400390625
0.19866943359375
0.20416259765625
0.198974609375
0.20538330078125
0.1983642578125
0.2020263671875
0.19683837890625
0.20111083984375
0.198974609375
0.198974609375
0.20050048828125
0.20355224609375
0.203857421875
0.203857421875
0.20843505859375
0.206298828125
0.20599365234375
0.20843505859375
0.2203369140625
0.21575927734375
0.21636962890625
0.20660400390625
0.20660400390625
0.206298828125
0.20660400390625
0.206298828125
0.203857421875
0.20660400390625
0.19683837890625
0.2081298828125
0.2081298828125
0.206298828125
0.198974609375
0.19683837890625
0.201416015625
0.20477294921875
0.206298828125
0.2081298828125
0.213623046875
0.211181640625
0.20843505859375
0.20660400390625
0.20355224609375
0.20599365234375
0.20599365234375
0.1983642578125
0.2020263671875
0.20111083984375
0.20843505859375
0.20355224609375
0.20172119140625
0.201416015625
0.196533203125
0.20416259765625
0.20111083984375
0.2081298828125
0.20172119140625
0.20416259765625
0.2093505859375
0.211181640625
0.2130126953125
0.2093505859375
0.20843505859375
0.2069091796875
0.208740234375
0.2093505859375
0.20416259765625
0.2020263671875
0.20660400390625
0.2020263671875
0.20416259765625
0.19683837890625
0.19866943359375
0.2020263671875
0.20294189453125
0.20355224609375
0.20355224609375
0.20660400390625
0.194091796875
0.20172119140625
0.19927978515625
0.2020263671875
0.196533203125
0.19927978515625
0.2008056640625
0.196533203125
0.19622802734375
0.2020263671875
0.203857421875
0.198974609375
0.20416259765625
0.20172119140625
0.1983642578125
0.2001953125
0.208740234375
0.2032470703125
0.20538330078125
0.203857421875
0.19866943359375
0.19622802734375
0.198974609375
0.201416015625
0.19378662109375
0.198974609375
0.18890380859375
0.196533203125
0.19195556640625
0.191650390625
0.1861572265625
0.18707275390625
0.1837158203125
0.185546875
0.18646240234375
0.19134521484375
0.19866943359375
0.198974609375
0.1971435546875
0.19683837890625
0.203857421875
0.19378662109375
0.20660400390625
0.21392822265625
0.218505859375
0.223388671875
0.22308349609375
0.230712890625
0.22857666015625
0.2325439453125
0.2288818359375
0.23773193359375
0.24017333984375
0.2557373046875
0.262451171875
0.27252197265625
0.27252197265625
0.2752685546875
0.2825927734375
0.2850341796875
0.28472900390625
0.277099609375
0.28228759765625
0.2874755859375
0.301513671875
0.3076171875
0.3106689453125
0.29815673828125
0.29937744140625
0.301513671875
0.3057861328125
0.3033447265625
0.30120849609375
0.303955078125
0.303955078125
0.31829833984375
0.31341552734375
0.31341552734375
0.31097412109375
0.313720703125
0.31097412109375
0.308837890625
0.311279296875
0.31646728515625
0.3204345703125
0.32257080078125
0.3228759765625
0.32318115234375
0.322265625
0.32989501953125
0.335693359375
0.330810546875
0.33538818359375
0.333251953125
0.33599853515625
0.33966064453125
0.33843994140625
0.3485107421875
0.35308837890625
0.35797119140625
0.343017578125
0.338134765625
0.32745361328125
0.322265625
0.3082275390625
0.3082275390625
0.3033447265625
0.2923583984375
0.286865234375
0.283203125
0.28045654296875
0.269775390625
0.2655029296875
0.2587890625
0.24749755859375
0.2374267578125
0.238037109375
0.234375
0.23406982421875
0.23529052734375
0.230712890625
0.235595703125
0.2374267578125
0.2349853515625
0.23284912109375
0.2325439453125
0.23101806640625
0.24200439453125
0.23529052734375
0.230712890625
0.228271484375
0.2276611328125
0.2252197265625
0.22125244140625
0.22125244140625
0.22125244140625
0.22064208984375
0.21148681640625
0.2032470703125
0.206298828125
0.20416259765625
0.19683837890625
0.196533203125
0.1910400390625
0.18646240234375
0.18402099609375
0.181884765625
0.184326171875
0.18218994140625
0.184326171875
0.1708984375
0.184326171875
0.181884765625
0.17974853515625
0.17425537109375
0.17730712890625
0.18402099609375
0.18218994140625
0.1824951171875
0.1800537109375
0.18218994140625
0.177001953125
0.17669677734375
0.177001953125
0.177001953125
0.1812744140625
0.1849365234375
0.17669677734375
0.184326171875
0.18218994140625
0.1739501953125
0.177001953125
0.17974853515625
0.18402099609375
0.177001953125
0.1849365234375
0.1788330078125
0.18157958984375
0.17120361328125
0.1708984375
0.1708984375
0.16143798828125
0.16326904296875
0.1458740234375
0.12847900390625
0.101318359375
0.08758544921875
0.09002685546875
0.08941650390625
0.07537841796875
0.05889892578125
0.0390625
0.0311279296875
0.01617431640625
0.0006103515625
-0.00579833984375
0.00152587890625
0.01068115234375
0.01495361328125
0.03082275390625
0.04547119140625
0.091552734375
0.1324462890625
0.1763916015625
0.2166748046875
0.272216796875
0.355224609375
0.44036865234375
0.54473876953125
0.67626953125
0.8026123046875
0.9051513671875
1.01654052734375
1.13067626953125
1.22314453125
1.3311767578125
1.44500732421875
1.52191162109375
1.59454345703125
1.66717529296875
1.72607421875
1.717529296875
1.6925048828125
1.66839599609375
1.57958984375
1.527099609375
1.4581298828125
1.383056640625
1.3031005859375
1.201171875
1.0699462890625
0.924072265625
0.79864501953125
0.69976806640625
0.6048583984375
0.52490234375
0.4730224609375
0.4205322265625
0.3662109375
0.30914306640625
0.28076171875
0.2679443359375
0.2581787109375
0.24322509765625
0.235595703125
0.235595703125
0.2423095703125
0.2655029296875
0.28045654296875
0.29388427734375
0.2886962890625
0.29632568359375
0.29388427734375
0.29449462890625
0.28472900390625
0.28045654296875
0.2777099609375
0.27099609375
0.27069091796875
0.26397705078125
0.26123046875
0.24993896484375
0.247802734375
0.245361328125
0.2362060546875
0.2301025390625
0.23101806640625
0.22125244140625
0.22308349609375
0.22308349609375
0.2227783203125
0.22308349609375
0.2227783203125
0.21881103515625
0.213623046875
0.22369384765625
0.21331787109375
0.21392822265625
0.21331787109375
0.21453857421875
0.208740234375
0.2044677734375
0.21331787109375
0.21026611328125
0.21026611328125
0.218505859375
0.2178955078125
0.21331787109375
0.21331787109375
0.2130126953125
0.20904541015625
0.2105712890625
0.2130126953125
0.2142333984375
0.2191162109375
0.21484375
0.22369384765625
0.22369384765625
0.21881103515625
0.22308349609375
0.2117919921875
0.21575927734375
0.21636962890625
0.2215576171875
0.21942138671875
0.22125244140625
0.22796630859375
0.22430419921875
0.2227783203125
0.21636962890625
0.22064208984375
0.223388671875
0.230712890625
0.22796630859375
0.230712890625
0.2276611328125
0.223388671875
0.2215576171875
0.230712890625
0.24261474609375
0.24505615234375
0.238037109375
0.23773193359375
0.245361328125
0.242919921875
0.250244140625
0.24505615234375
0.250244140625
0.24993896484375
0.25054931640625
0.25604248046875
0.25299072265625
0.25787353515625
0.25421142578125
0.25787353515625
0.25604248046875
0.25787353515625
0.25421142578125
0.252685546875
0.25634765625
0.2630615234375
0.2581787109375
0.26580810546875
0.2685546875
0.26641845703125
0.26336669921875
0.26336669921875
0.26580810546875
0.27587890625
0.28289794921875
0.2703857421875
0.26763916015625
0.2655029296875
0.2850341796875
0.28717041015625
0.28594970703125
0.2850341796875
0.27740478515625
0.286865234375
0.28228759765625
0.28717041015625
0.2874755859375
0.294189453125
0.29693603515625
0.29693603515625
0.30120849609375
0.301513671875
0.29937744140625
0.303955078125
0.3106689453125
0.31341552734375
0.30853271484375
0.3106689453125
0.3082275390625
0.303955078125
0.3192138671875
0.3155517578125
0.3179931640625
0.31585693359375
0.31890869140625
0.32501220703125
0.321044921875
0.322265625
0.321044921875
0.32745361328125
0.32501220703125
0.3326416015625
0.3271484375
0.32745361328125
0.340576171875
0.34271240234375
0.34271240234375
0.345458984375
0.3460693359375
0.3509521484375
0.3558349609375
0.36041259765625
0.3631591796875
0.3582763671875
0.367431640625
0.361328125
0.3753662109375
0.374755859375
0.37261962890625
0.369873046875
0.37506103515625
0.38482666015625
0.38665771484375
0.3863525390625
0.379638671875
0.382080078125
0.37750244140625
0.37933349609375
0.3851318359375
0.384521484375
0.3948974609375
0.3948974609375
0.3900146484375
0.38970947265625
0.39215087890625
0.38726806640625
0.38909912109375
0.39154052734375
0.3973388671875
0.396728515625
0.40435791015625
0.39947509765625
0.396728515625
0.39703369140625
0.396728515625
0.401611328125
0.4010009765625
0.4010009765625
0.39703369140625
0.40374755859375
0.4034423828125
0.41290283203125
0.40985107421875
0.4095458984375
0.41229248046875
0.4132080078125
0.41229248046875
0.41748046875
0.419921875
0.4180908203125
0.41748046875
0.42236328125
0.42755126953125
0.4217529296875
0.41534423828125
0.4010009765625
0.40618896484375
0.4034423828125
0.406494140625
0.404052734375
0.39703369140625
0.39337158203125
0.38299560546875
0.38482666015625
0.36712646484375
0.362548828125
0.3582763671875
0.35797119140625
0.357666015625
0.35064697265625
0.3424072265625
0.333251953125
0.32745361328125
0.32501220703125
0.3326416015625
0.323486328125
0.31585693359375
0.31585693359375
0.3143310546875
0.3009033203125
0.30242919921875
0.29510498046875
0.291748046875
0.284423828125
0.2825927734375
0.281982421875
0.2679443359375
0.272216796875
0.2606201171875
0.25604248046875
0.24749755859375
0.24993896484375
0.24688720703125
0.2423095703125
0.23529052734375
0.23101806640625
0.2276611328125
0.223388671875
0.22430419921875
0.22552490234375
0.22857666015625
0.225830078125
0.21881103515625
0.211181640625
0.21331787109375
0.198974609375
0.20416259765625
0.206298828125
0.208740234375
0.203857421875
0.19927978515625
0.194091796875
0.1898193359375
0.196533203125
0.19073486328125
0.189208984375
0.18463134765625
0.19622802734375
0.19927978515625
0.19683837890625
0.20111083984375
0.1922607421875
0.18157958984375
0.186767578125
0.194091796875
0.191650390625
0.184326171875
0.189208984375
0.19500732421875
0.1922607421875
0.19256591796875
0.18218994140625
0.18218994140625
0.18218994140625
0.17974853515625
0.1873779296875
0.18707275390625
0.18402099609375
0.17333984375
0.181884765625
0.181884765625
0.1904296875
0.18157958984375
0.17913818359375
0.18218994140625
0.184326171875
0.1861572265625
0.18157958984375
0.184326171875
0.17120361328125
0.16876220703125
0.177001953125
0.186767578125
0.18402099609375
0.191650390625
0.17913818359375
0.18341064453125
0.19134521484375
0.196533203125
0.191650390625
0.18951416015625
0.186767578125
0.186767578125
0.2032470703125
0.19775390625
0.2008056640625
0.2020263671875
0.2032470703125
0.208740234375
0.20843505859375
0.203857421875
0.1953125
0.191650390625
0.19378662109375
0.19866943359375
0.20355224609375
0.20599365234375
0.20355224609375
0.20355224609375
0.19927978515625
0.20111083984375
0.20172119140625
0.198974609375
0.2044677734375
0.2105712890625
0.21148681640625
0.20355224609375
0.2081298828125
0.20233154296875
0.2081298828125
0.20355224609375
0.20782470703125
0.211181640625
0.2081298828125
0.2081298828125
0.2093505859375
0.2099609375
0.20416259765625
0.20904541015625
0.20660400390625
0.211181640625
0.21148681640625
0.20904541015625
0.20416259765625
0.21331787109375
0.216064453125
0.216064453125
0.20599365234375
0.2081298828125
0.213623046875
0.21148681640625
0.216064453125
0.208740234375
0.21881103515625
0.21087646484375
0.21820068359375
0.2154541015625
0.21331787109375
0.21392822265625
0.22064208984375
0.22216796875
0.21148681640625
0.2105712890625
0.213623046875
0.21087646484375
0.20416259765625
0.20843505859375
0.206298828125
0.203857421875
0.196533203125
0.208740234375
0.20660400390625
0.201416015625
0.196533203125
0.1995849609375
0.201416015625
0.196533203125
0.2008056640625
0.18890380859375
0.2032470703125
0.2130126953125
0.2154541015625
0.2081298828125
0.206298828125
0.206298828125
0.206298828125
0.21484375
0.21575927734375
0.2117919921875
0.206298828125
0.2056884765625
0.203857421875
0.20294189453125
0.20294189453125
0.20660400390625
0.2020263671875
0.198974609375
0.2032470703125
0.20111083984375
0.194091796875
0.191650390625
0.18646240234375
0.1861572265625
0.2008056640625
0.1934814453125
0.19927978515625
0.2020263671875
0.20294189453125
0.198974609375
0.19134521484375
0.189208984375
0.189208984375
0.19134521484375
0.191650390625
0.19378662109375
0.194091796875
0.19622802734375
0.1934814453125
0.198974609375
0.1910400390625
0.19134521484375
0.1861572265625
0.19378662109375
0.1885986328125
0.18218994140625
0.191650390625
0.19378662109375
0.20111083984375
0.18707275390625
0.18707275390625
0.186767578125
0.196533203125
0.196533203125
0.19683837890625
0.191650390625
0.18524169921875
0.19378662109375
0.19378662109375
0.18951416015625
0.1861572265625
0.1885986328125
0.191650390625
0.191650390625
0.1885986328125
0.19378662109375
0.19195556640625
0.18890380859375
0.19317626953125
0.1898193359375
0.17913818359375
0.18646240234375
0.19317626953125
0.186767578125
0.18646240234375
0.17913818359375
0.1885986328125
0.18646240234375
0.189208984375
0.186767578125
0.1837158203125
0.19134521484375
0.181884765625
0.1800537109375
0.1708984375
0.17913818359375
0.1788330078125
0.186767578125
0.1934814453125
0.18890380859375
0.1788330078125
0.1702880859375
0.1776123046875
0.18157958984375
0.18310546875
0.17913818359375
0.18402099609375
0.18646240234375
0.18646240234375
0.1763916015625
0.1861572265625
0.1861572265625
0.18890380859375
0.1861572265625
0.18890380859375
0.18890380859375
0.18524169921875
0.18829345703125
0.1837158203125
0.1873779296875
0.1812744140625
0.1934814453125
0.19317626953125
0.18402099609375
0.17852783203125
0.18157958984375
0.17913818359375
0.1763916015625
0.17822265625
0.1861572265625
0.18585205078125
0.1837158203125
0.1788330078125
0.16876220703125
0.1788330078125
0.17608642578125
0.17852783203125
0.1763916015625
0.1788330078125
0.1861572265625
0.18402099609375
0.18310546875
0.17425537109375
0.17608642578125
0.17059326171875
0.1708984375
0.17059326171875
0.1763916015625
0.17669677734375
0.179443359375
0.17333984375
0.1678466796875
0.16876220703125
0.1708984375
0.17120361328125
0.17669677734375
0.1812744140625
0.18402099609375
0.1861572265625
0.17364501953125
0.18341064453125
0.18402099609375
0.19317626953125
0.18341064453125
0.1812744140625
0.18890380859375
0.186767578125
0.1934814453125
0.20721435546875
0.213623046875
0.20111083984375
0.1983642578125
0.20782470703125
0.22216796875
0.22216796875
0.22003173828125
0.22613525390625
0.23681640625
0.24688720703125
0.24505615234375
0.24749755859375
0.252685546875
0.2703857421875
0.27008056640625
0.27252197265625
0.25543212890625
0.2630615234375
0.26947021484375
0.2752685546875
0.2813720703125
0.27740478515625
0.2789306640625
0.27496337890625
0.27191162109375
0.2667236328125
0.27862548828125
0.274658203125
0.279541015625
0.28411865234375
0.28961181640625
0.28656005859375
0.28900146484375
0.29876708984375
0.2972412109375
0.29144287109375
0.28900146484375
0.29632568359375
0.3033447265625
0.3106689453125
0.30364990234375
0.31219482421875
0.3173828125
0.30975341796875
0.299072265625
0.30120849609375
0.31951904296875
0.31982421875
0.3216552734375
0.3173828125
0.3271484375
0.333251953125
0.3375244140625
0.3302001953125
0.32958984375
0.33203125
0.33538818359375
0.32470703125
0.3125
0.306396484375
0.29876708984375
0.29296875
0.291748046875
0.28717041015625
0.2777099609375
0.27496337890625
0.255126953125
0.2471923828125
0.2423095703125
0.240478515625
0.24139404296875
0.2392578125
0.22796630859375
0.2154541015625
0.22552490234375
0.22735595703125
0.23193359375
0.22613525390625
0.22247314453125
0.22735595703125
0.22369384765625
0.2154541015625
0.21759033203125
0.21575927734375
0.2081298828125
0.2056884765625
0.198974609375
0.20751953125
0.21087646484375
0.2056884765625
0.18890380859375
0.1934814453125
0.19317626953125
0.1910400390625
0.17822265625
0.17578125
0.18646240234375
0.1861572265625
0.1904296875
0.1788330078125
0.18157958984375
0.17364501953125
0.16815185546875
0.169677734375
0.1629638671875
0.1629638671875
0.166015625
0.16448974609375
0.16082763671875
0.1605224609375
0.16571044921875
0.16510009765625
0.15533447265625
0.15899658203125
0.15655517578125
0.1702880859375
0.1611328125
0.1513671875
0.1556396484375
0.16632080078125
0.16998291015625
0.162353515625
0.17608642578125
0.16357421875
0.16845703125
0.16357421875
0.17333984375
0.16876220703125
0.17364501953125
0.17913818359375
0.16876220703125
0.17608642578125
0.17333984375
0.16845703125
0.1629638671875
0.15899658203125
0.15380859375
0.15380859375
0.14678955078125
0.13214111328125
0.09796142578125
0.0909423828125
0.09185791015625
0.08453369140625
0.06805419921875
0.04364013671875
0.04791259765625
0.03143310546875
0.0177001953125
0.00274658203125
-0.01556396484375
-0.02960205078125
-0.0152587890625
-0.0018310546875
0.01800537109375
0.04791259765625
0.07232666015625
0.1007080078125
0.14404296875
0.1947021484375
0.2435302734375
0.3179931640625
0.39703369140625
0.516357421875
0.6414794921875
0.79071044921875
0.914306640625
1.0235595703125
1.13616943359375
1.23626708984375
1.3397216796875
1.4300537109375
1.5216064453125
1.61376953125
1.689453125
1.74072265625
1.7626953125
1.7279052734375
1.68792724609375
1.60736083984375
1.52801513671875
1.45904541015625
1.39617919921875
1.302490234375
1.19232177734375
1.06201171875
0.90301513671875
0.767822265625
0.6585693359375
0.55694580078125
0.42755126953125
0.36163330078125
0.3399658203125
0.29876708984375
0.2508544921875
0.20751953125
0.18798828125
0.17333984375
0.16937255859375
0.15594482421875
0.1629638671875
0.169677734375
0.1959228515625
0.22216796875
0.2392578125
0.26123046875
0.28167724609375
0.2838134765625
0.28411865234375
0.28564453125
0.2777099609375
0.2667236328125
0.272216796875
0.26458740234375
0.26214599609375
0.26702880859375
0.25787353515625
0.234375
0.23468017578125
0.235595703125
0.2301025390625
0.21514892578125
0.21514892578125
0.20782470703125
0.21087646484375
0.2081298828125
0.21514892578125
0.20294189453125
0.1934814453125
0.2032470703125
0.2044677734375
0.1953125
0.194091796875
0.1934814453125
0.1934814453125
0.2032470703125
0.20660400390625
0.20843505859375
0.21270751953125
0.2178955078125
0.20782470703125
0.211181640625
0.20294189453125
0.19866943359375
0.1983642578125
0.2081298828125
0.20843505859375
0.20355224609375
0.2099609375
0.2105712890625
0.2154541015625
0.2081298828125
0.20782470703125
0.20355224609375
0.2081298828125
0.21514892578125
0.21575927734375
0.21514892578125
0.22003173828125
0.2252197265625
0.228271484375
0.22247314453125
0.2203369140625
0.2203369140625
0.2178955078125
0.23529052734375
0.23681640625
0.23223876953125
0.2227783203125
0.2227783203125
0.228271484375
0.22247314453125
0.2313232421875
0.23223876953125
0.23223876953125
0.22247314453125
0.23468017578125
0.234375
0.23712158203125
0.24139404296875
0.23468017578125
0.23956298828125
0.24505615234375
0.24688720703125
0.24139404296875
0.23956298828125
0.24566650390625
0.24871826171875
0.24139404296875
0.25390625
0.2520751953125
0.25482177734375
0.25482177734375
0.245361328125
0.23956298828125
0.23406982421875
0.2410888671875
0.24383544921875
0.25726318359375
0.26458740234375
0.26702880859375
0.25726318359375
0.264892578125
0.27191162109375
0.25726318359375
0.25482177734375
0.26519775390625
0.27679443359375
0.28167724609375
0.2825927734375
0.29388427734375
0.2935791015625
0.28900146484375
0.2886962890625
0.29144287109375
0.2984619140625
0.289306640625
0.29144287109375
0.3009033203125
0.29876708984375
0.30181884765625
0.30120849609375
0.3057861328125
0.291748046875
0.3057861328125
0.299072265625
0.3082275390625
0.30792236328125
0.31280517578125
0.31585693359375
0.31524658203125
0.321044921875
0.32501220703125
0.3326416015625
0.32989501953125
0.3302001953125
0.33538818359375
0.3472900390625
0.3472900390625
0.34027099609375
0.3350830078125
0.3424072265625
0.3521728515625
0.35797119140625
0.36468505859375
0.364990234375
0.3570556640625
0.34942626953125
0.35858154296875
0.35491943359375
0.3619384765625
0.37445068359375
0.3765869140625
0.3790283203125
0.377197265625
0.38330078125
0.3887939453125
0.39520263671875
0.39581298828125
0.39825439453125
0.396728515625
0.40283203125
0.41351318359375
0.41168212890625
0.413818359375
0.41748046875
0.42144775390625
0.42877197265625
0.4241943359375
0.41900634765625
0.4241943359375
0.4217529296875
0.4254150390625
0.42144775390625
0.4388427734375
0.43792724609375
0.43853759765625
0.4315185546875
0.4364013671875
0.44342041015625
0.44342041015625
0.44769287109375
0.450439453125
0.4510498046875
0.4473876953125
0.46295166015625
0.465087890625
0.46722412109375
0.46478271484375
0.46539306640625
0.4583740234375
0.457763671875
0.46478271484375
0.47393798828125
0.46295166015625
0.45013427734375
0.45013427734375
0.46112060546875
0.469970703125
0.46234130859375
0.4559326171875
0.447998046875
0.447998046875
0.45074462890625
0.4486083984375
0.443115234375
0.44158935546875
0.455322265625
0.45013427734375
0.450439453125
0.43914794921875
0.4290771484375
0.42449951171875
0.43182373046875
0.42144775390625
0.41595458984375
0.40557861328125
0.39306640625
0.384521484375
0.38665771484375
0.3887939453125
0.3692626953125
0.3594970703125
0.357666015625
0.36224365234375
0.3448486328125
0.33538818359375
0.32958984375
0.3265380859375
0.31585693359375
0.30792236328125
0.3076171875
0.31341552734375
0.30120849609375
0.2813720703125
0.289306640625
0.29388427734375
0.277099609375
0.2642822265625
0.262451171875
0.25848388671875
0.2532958984375
0.24871826171875
0.244140625
0.2490234375
0.25238037109375
0.244140625
0.2349853515625
0.252685546875
0.23468017578125
0.22796630859375
0.23193359375
0.2374267578125
0.2349853515625
0.2294921875
0.2288818359375
0.22491455078125
0.22979736328125
0.2252197265625
0.22247314453125
0.21087646484375
0.206298828125
0.2056884765625
0.20172119140625
0.2056884765625
0.21881103515625
0.2105712890625
0.198974609375
0.19073486328125
0.18829345703125
0.18890380859375
0.18585205078125
0.20050048828125
0.1910400390625
0.1959228515625
0.19561767578125
0.20355224609375
0.19287109375
0.18646240234375
0.189208984375
0.1837158203125
0.19134521484375
0.1934814453125
0.19378662109375
0.1885986328125
0.186767578125
0.18890380859375
0.18157958984375
0.18280029296875
0.194091796875
0.184326171875
0.18157958984375
0.17852783203125
0.17059326171875
0.16754150390625
0.16876220703125
0.1788330078125
0.1763916015625
0.17669677734375
0.1580810546875
0.16815185546875
0.1678466796875
0.16876220703125
0.1702880859375
0.18096923828125
0.1788330078125
0.1666259765625
0.16815185546875
0.169677734375
0.18157958984375
0.1788330078125
0.18310546875
0.18310546875
0.19134521484375
0.1861572265625
0.18341064453125
0.186767578125
0.1812744140625
0.18402099609375
0.1885986328125
0.194091796875
0.1934814453125
0.2032470703125
0.1959228515625
0.19683837890625
0.18829345703125
0.19134521484375
0.19622802734375
0.19622802734375
0.19866943359375
0.206298828125
0.21820068359375
0.22369384765625
0.2197265625
0.20599365234375
0.2154541015625
0.21820068359375
0.21331787109375
0.2178955078125
0.21820068359375
0.20843505859375
0.21270751953125
0.21820068359375
0.2081298828125
0.2032470703125
0.201416015625
0.19866943359375
0.203857421875
0.220947265625
0.201416015625
0.2032470703125
0.2001953125
0.20599365234375
0.20599365234375
0.19866943359375
0.2197265625
0.22003173828125
0.2215576171875
0.22064208984375
0.22491455078125
0.22125244140625
0.22796630859375
0.2325439453125
0.22705078125
0.21820068359375
0.2276611328125
0.22796630859375
0.22552490234375
0.22308349609375
0.2130126953125
0.21820068359375
0.2178955078125
0.23040771484375
0.21820068359375
0.21575927734375
0.2117919921875
0.2154541015625
0.2130126953125
0.22064208984375
0.218505859375
0.2130126953125
0.21759033203125
0.2215576171875
0.223388671875
0.22308349609375
0.21820068359375
0.206298828125
0.21514892578125
0.2178955078125
0.230712890625
0.22552490234375
0.220947265625
0.2227783203125
0.22308349609375
0.21514892578125
0.2105712890625
0.2130126953125
0.208740234375
0.220947265625
0.2069091796875
0.21392822265625
0.223388671875
0.2105712890625
0.206298828125
0.21087646484375
0.22064208984375
0.20355224609375
0.1983642578125
0.201416015625
0.20416259765625
0.20355224609375
0.2032470703125
0.20904541015625
0.21087646484375
0.205078125
0.2008056640625
0.20294189453125
0.1934814453125
0.2008056640625
0.20111083984375
0.201416015625
0.2056884765625
0.20843505859375
0.1910400390625
0.2008056640625
0.19866943359375
0.20111083984375
0.19622802734375
0.19927978515625
0.1934814453125
0.1922607421875
0.19989013671875
0.19378662109375
0.196533203125
0.186767578125
0.19134521484375
0.19378662109375
0.19378662109375
0.1910400390625
0.206298828125
0.213623046875
0.20660400390625
0.201416015625
0.19866943359375
0.20355224609375
0.206298828125
0.21575927734375
0.20355224609375
0.211181640625
0.20416259765625
0.201416015625
0.20599365234375
0.20172119140625
0.19683837890625
0.19683837890625
0.20111083984375
0.194091796875
0.203857421875
0.196533203125
0.1971435546875
0.18890380859375
0.1898193359375
0.184326171875
0.19378662109375
0.1812744140625
0.18310546875
0.1983642578125
0.1983642578125
0.18951416015625
0.18646240234375
0.19378662109375
0.20172119140625
0.19866943359375
0.1812744140625
0.1885986328125
0.1934814453125
0.201416015625
0.19378662109375
0.19866943359375
0.2020263671875
0.2032470703125
0.21026611328125
0.208740234375
0.211181640625
0.194091796875
0.2020263671875
0.211181640625
0.19744873046875
0.18646240234375
0.19683837890625
0.19805908203125
0.1983642578125
0.2105712890625
0.196533203125
0.189208984375
0.18890380859375
0.19195556640625
0.186767578125
0.1971435546875
0.1922607421875
0.189208984375
0.1910400390625
0.1873779296875
0.184326171875
0.18402099609375
0.19134521484375
0.186767578125
0.19439697265625
0.18890380859375
0.201416015625
0.19744873046875
0.18890380859375
0.196533203125
0.196533203125
0.19866943359375
0.19866943359375
0.2032470703125
0.19439697265625
0.19927978515625
0.19866943359375
0.196533203125
0.19134521484375
0.203857421875
0.20599365234375
0.2069091796875
0.213623046875
0.21636962890625
0.211181640625
0.2178955078125
0.223388671875
0.21820068359375
0.23284912109375
0.23193359375
0.24688720703125
0.2471923828125
0.2496337890625
0.24993896484375
0.25299072265625
0.262451171875
0.2728271484375
0.281982421875
0.281982421875
0.28717041015625
0.28961181640625
0.28045654296875
0.2752685546875
0.2838134765625
0.28656005859375
0.296630859375
0.29144287109375
0.2874755859375
0.2874755859375
0.28228759765625
0.2850341796875
0.29449462890625
0.29632568359375
0.28076171875
0.28717041015625
0.296630859375
0.296630859375
0.29205322265625
0.29937744140625
0.303955078125
0.299072265625
0.29937744140625
0.30181884765625
0.31829833984375
0.33538818359375
0.330810546875
0.323486328125
0.32989501953125
0.343017578125
0.3497314453125
0.3350830078125
0.3350830078125
0.33416748046875
0.3424072265625
0.347900390625
0.352783203125
0.35308837890625
0.3472900390625
0.35736083984375
0.352783203125
0.36041259765625
0.35491943359375
0.34027099609375
0.33294677734375
0.32501220703125
0.32684326171875
0.318603515625
0.301513671875
0.30670166015625
0.29144287109375
0.27801513671875
0.27313232421875
0.2679443359375
0.27008056640625
0.26031494140625
0.26092529296875
0.2471923828125
0.24505615234375
0.2362060546875
0.238037109375
0.23773193359375
0.235595703125
0.2398681640625
0.2288818359375
0.242919921875
0.24017333984375
0.2471923828125
0.2325439453125
0.230712890625
0.228271484375
0.22735595703125
0.2178955078125
0.218505859375
0.21575927734375
0.20355224609375
0.2020263671875
0.20904541015625
0.19989013671875
0.18707275390625
0.189208984375
0.191650390625
0.18707275390625
0.18463134765625
0.1934814453125
0.1922607421875
0.181884765625
0.1763916015625
0.16845703125
0.18035888671875
0.17913818359375
0.1763916015625
0.1708984375
0.179443359375
0.18646240234375
0.17578125
0.17059326171875
0.177001953125
0.1678466796875
0.1739501953125
0.1763916015625
0.16571044921875
0.18218994140625
0.17913818359375
0.181884765625
0.1788330078125
0.189208984375
0.18218994140625
0.181884765625
0.181884765625
0.18218994140625
0.194091796875
0.184326171875
0.1837158203125
0.17425537109375
0.179443359375
0.1788330078125
0.184326171875
0.184326171875
0.17547607421875
0.15960693359375
0.1446533203125
0.1397705078125
0.13275146484375
0.123291015625
0.0982666015625
0.08544921875
0.07293701171875
0.0677490234375
0.05828857421875
0.05523681640625
0.04364013671875
0.02838134765625
0.01861572265625
0.01007080078125
0.01312255859375
0.0128173828125
0.01617431640625
0.0225830078125
0.05859375
0.086669921875
0.11810302734375
0.1336669921875
0.18310546875
0.24322509765625
0.28289794921875
0.3521728515625
0.4248046875
0.52581787109375
0.64910888671875
0.7904052734375
0.9228515625
1.03729248046875
1.13189697265625
1.2579345703125
1.3629150390625
1.47705078125
1.55181884765625
1.6217041015625
1.70654296875
1.77764892578125
1.83258056640625
1.80633544921875
1.77398681640625
1.70013427734375
1.62353515625
1.551513671875
1.4691162109375
1.3751220703125
1.27044677734375
1.15692138671875
0.9942626953125
0.84686279296875
0.73333740234375
0.625
0.50201416015625
0.369873046875
0.31219482421875
0.27801513671875
0.23345947265625
0.208740234375
0.1849365234375
0.16357421875
0.1422119140625
0.13946533203125
0.14251708984375
0.15350341796875
0.181884765625
0.203857421875
0.220947265625
0.240478515625
0.2752685546875
0.27740478515625
0.28717041015625
0.299072265625
0.3009033203125
0.29876708984375
0.2886962890625
0.27984619140625
0.2655029296875
0.25787353515625
0.2471923828125
0.24749755859375
0.24017333984375
0.230712890625
0.22125244140625
0.23529052734375
0.228271484375
0.2154541015625
0.211181640625
0.2142333984375
0.216064453125
0.21087646484375
0.22125244140625
0.20843505859375
0.20843505859375
0.20904541015625
0.21453857421875
0.21575927734375
0.2105712890625
0.2032470703125
0.19683837890625
0.2081298828125
0.20965576171875
0.208740234375
0.19927978515625
0.2069091796875
0.21087646484375
0.2203369140625
0.21331787109375
0.2117919921875
0.205078125
0.211181640625
0.20660400390625
0.2130126953125
0.2117919921875
0.21575927734375
0.2301025390625
0.22552490234375
0.22796630859375
0.228271484375
0.230712890625
0.22369384765625
0.223388671875
0.22369384765625
0.233154296875
0.235595703125
0.238037109375
0.238037109375
0.22552490234375
0.2301025390625
0.228271484375
0.23284912109375
0.23040771484375
0.2276611328125
0.23040771484375
0.22857666015625
0.225830078125
0.23345947265625
0.23590087890625
0.23529052734375
0.250244140625
0.2471923828125
0.2532958984375
0.24017333984375
0.24444580078125
0.24566650390625
0.2587890625
0.25299072265625
0.2557373046875
0.2581787109375
0.25604248046875
0.25848388671875
0.26641845703125
0.2703857421875
0.2581787109375
0.2581787109375
0.25848388671875
0.26519775390625
0.252685546875
0.2557373046875
0.2496337890625
0.25970458984375
0.27252197265625
0.27496337890625
0.2777099609375
0.26092529296875
0.26275634765625
0.26702880859375
0.27801513671875
0.27069091796875
0.2825927734375
0.2825927734375
0.28472900390625
0.28717041015625
0.28961181640625
0.29144287109375
0.2874755859375
0.284423828125
0.28717041015625
0.296630859375
0.2972412109375
0.2996826171875
0.2972412109375
0.29693603515625
0.30181884765625
0.3106689453125
0.311279296875
0.30670166015625
0.3082275390625
0.306396484375
0.30914306640625
0.31585693359375
0.3253173828125
0.3106689453125
0.32501220703125
0.330810546875
0.3338623046875
0.3302001953125
0.32684326171875
0.3271484375
0.340576171875
0.34271240234375
0.33111572265625
0.33050537109375
0.333251953125
0.330810546875
0.34393310546875
0.34759521484375
