-2.5704206e-01 4.3338710e-01 1.7977145e-01 6.1508195e-01 7.1443720e-01 8.6725424e-01 6.3196994e-02 -4.5612121e-02 -1.5098629e-01 1.8032690e-02 -1.0321673e-01 2.3709474e-02 -8.2954850e-02 4.1471411e-02 -6.5287951e-03 2.9601061e-01 -1.7505781e-02 9.9687290e-02 -3.3457033e-01 1.6721754e+00 5.6281240e-01 -2.4356340e-01 4.7265749e-02 -4.5307256e-02 1.9957502e-01 2.8715575e-01 6.5609451e-01 1.7070186e-01 -3.0128208e-01 -3.6435500e-01 -3.3183273e-01 -2.9401451e-01 -3.0966260e-01 -2.7803194e-01 -3.0169010e-01 -2.5890690e-01 -2.7130521e-01 -2.4661033e-01 -2.7554237e-01 -2.9652461e-03 -1.9930811e-01 -5.5029068e-02 -5.6873890e-01 7.0799744e-01 1.1671628e+00 -5.7007245e-01 -2.2815629e-02 -3.4342411e-01 6.3513467e-02 -5.6252836e-02 4.8339746e-01 2.2301686e-01 -1.9829702e-01 -5.7436439e-01 -3.5064460e-01 -5.2054925e-01 -3.0336288e-01 -4.8603373e-01 -2.8820774e-01 -4.6121716e-01 -2.5897647e-01 -4.1730568e-01 -2.4079253e-01 -4.0235464e-01 -8.2372531e-02 -2.2790057e-01 -1.0221497e-01 -5.4889859e-01 1.7130840e-01 1.3768024e+00 -3.4686159e-01 -2.5014564e-01 -2.6938577e-01 -1.4817031e-01 -2.8859053e-03 2.3542604e-01 4.0291508e-01 -1.9137814e-01 -5.0425750e-01 -5.3183970e-01 -4.3173062e-01 -4.8132050e-01 -3.7749514e-01 -4.8544699e-01 -3.5034735e-01 -4.7309076e-01 -3.2252457e-01 -4.5015820e-01 -8.7666011e-02 -3.6669391e-01 -1.5227430e-01 -7.4048200e-01 9.5872484e-01 6.5726427e-01 -6.0553140e-01 -1.8590644e-01 -3.4103618e-01 -5.8220256e-02 -1.7063472e-02 4.1556520e-01 1.3993010e-01 -4.4930820e-01 -5.8692037e-01 -5.3703449e-01 -5.0525495e-01 -4.9734768e-01 -4.4449327e-01 -4.6871527e-01 -4.1381180e-01 -4.5470435e-01 -3.6518339e-01 -4.5275414e-01 -1.5325327e-01 -3.2426095e-01 -2.0396116e-01 -6.7757970e-01 4.2878526e-01 1.2022014e+00 -6.6990873e-01 -1.6169425e-01 -4.4404384e-01 -6.2195728e-02 -1.3257155e-01 3.9168295e-01 2.0472775e-01 -2.6558149e-01 -6.4873061e-01 -4.6854966e-01 -5.8755651e-01 -4.0149861e-01 -5.4762080e-01 -3.8200635e-01 -5.2770784e-01 -3.2235203e-01 -4.8756831e-01 -2.9505683e-01 -4.5292361e-01 -2.6130167e-01 -4.3807544e-01 -4.3212262e-02 -3.1822575e-01 -1.0676537e-01 -6.5437231e-01 5.3592104e-01 1.1718242e+00 -5.6002279e-01 -1.7573536e-01 -3.3077062e-01 -5.7899663e-02 -5.8504006e-02 3.6840351e-01 3.0789339e-01 -1.6868956e-01 -5.7415438e-01 -4.1142122e-01 -4.8636688e-01 -3.4682821e-01 -4.6018069e-01 -3.3103255e-01 -4.3835586e-01 -3.0906134e-01 -3.9750506e-01 -2.6282060e-01 -3.7357099e-01 -2.3116614e-01 -3.1582121e-01 5.1208895e-03 -2.9302463e-01 -1.1441323e-01 -6.2910303e-01 1.2066306e+00 5.8143240e-01 -5.3181194e-01 -9.9822234e-02 -3.0073743e-01 1.7774833e-02 2.7872574e-02 4.7630348e-01 1.9777632e-01 -3.4992082e-01 -5.4911201e-01 -4.3431909e-01 -4.8157342e-01 -3.8995456e-01 -4.6419587e-01 -3.6008853e-01 -4.3854243e-01 -3.3544704e-01 -4.1508551e-01 -2.8638850e-01 -3.8543954e-01 -2.5001927e-01 -3.4845877e-01 8.9912981e-03 -2.9811048e-01 -9.3010013e-02 -6.1865049e-01 1.2263086e+00 6.0860958e-01 -5.1328944e-01 -1.0407447e-01 -2.6770296e-01 3.9584952e-02 4.5484843e-02 5.3956832e-01 2.1831382e-01 -2.8096386e-01 -5.0733696e-01 -3.8125889e-01 -4.3917099e-01 -3.1320240e-01 -4.0602355e-01 -2.8412072e-01 -3.8264287e-01 -2.4778431e-01 -3.5657295e-01 -1.9474955e-01 -3.2973269e-01 4.7711885e-02 -2.6152890e-01 -3.2848340e-02 -6.2002917e-01 1.1326636e+00 7.9485154e-01 -5.2747249e-01 -3.2331175e-02 -2.7535416e-01 8.5584111e-02 6.3509355e-02 5.6506601e-01 3.0156028e-01 -2.4746476e-01 -4.9039816e-01 -3.5533833e-01 -4.1695979e-01 -2.9663316e-01 -3.8283795e-01 -2.8998038e-01 -3.5881700e-01 -2.6322430e-01 -3.7268052e-01 -2.3058841e-01 -2.9769450e-01 -2.5889716e-01 -2.8005677e-01 -5.4911805e-02 -2.5274672e-01 -1.9652832e-01 -3.1926491e-01 1.5068628e+00 5.5583155e-02 -3.2628432e-01 -2.1796901e-01 -1.5635162e-01 -4.8849785e-02 2.1366431e-01 4.8981243e-01 1.7445647e-01 -4.1788267e-01 -3.9285166e-01 -4.3130174e-01 -3.3167474e-01 -3.7401769e-01 -2.7125532e-01 -3.3733842e-01 -2.6319904e-01 -2.9053334e-01 -1.9825058e-01 -2.7317607e-01 -6.8570525e-02 -3.1835273e-02 -9.4720937e-02 -2.7808472e-01 -5.3048387e-02 1.6299233e+00 -1.1005463e-01 -1.9224374e-01 -1.2777813e-01 -6.1920698e-02 1.0013179e-01 3.2952726e-01 6.2099478e-01 8.2680868e-02 -3.7146470e-01 -4.0503396e-01 -3.4521415e-01 -3.4573808e-01 -2.8067652e-01 -3.4477701e-01 -2.2897292e-01 -3.1531408e-01 -1.8554638e-01 -3.0862903e-01 -1.4377325e-01 -3.0025887e-01 1.0883782e-01 -2.3929503e-01 2.2895795e-02 -5.8589067e-01 1.1966453e+00 8.3448395e-01 -4.9341392e-01 -3.6853960e-02 -2.3490659e-01 7.1378193e-02 1.0851669e-01 5.9372961e-01 3.4016762e-01 -2.0502458e-01 -4.3007049e-01 -3.1845055e-01 -3.3840652e-01 -2.5443379e-01 -2.9597769e-01 -2.2216898e-01 -2.3660288e-01 -2.1917197e-01 -6.8367020e-02 -2.7560990e-02 -6.8098942e-02 -2.7993777e-01 9.4280985e-02 1.6657949e+00 -1.8170269e-01 -2.5350530e-02 -1.3580230e-01 1.1764582e-01 1.3588036e-01 5.7326536e-01 6.5635240e-01 1.6229730e-01 -3.5221417e-01 -2.0422188e-01 -3.2125993e-01 -1.4534556e-01 -2.3945099e-01 -1.3129345e-01 -2.1518461e-01 -1.1022656e-01 -1.6277124e-01 1.2505085e-01 -1.4434223e-01 -9.3789082e-03 -4.5171672e-01 1.4924763e+00 5.2342414e-01 -4.3636684e-01 -3.6550870e-02 -2.0936270e-01 1.0135049e-01 1.4797955e-01 6.2585814e-01 1.6399602e-01 -3.5856380e-01 -4.9971972e-01 -4.2795254e-01 -4.1232291e-01 -3.6956913e-01 -3.8747466e-01 -3.0566715e-01 -3.8512392e-01 -2.5240501e-01 -3.7078325e-01 -1.2808373e-01 -1.9416899e-01 -1.4562393e-01 -4.4969713e-01 1.7431718e-02 1.4910383e+00 -3.2664062e-01 -2.2642431e-01 -2.7419706e-01 -1.1486775e-01 -3.6621162e-02 2.8570739e-01 4.1957233e-01 -8.4279199e-02 -5.9680863e-01 -4.8675780e-01 -5.3921081e-01 -4.8200277e-01 -4.5334691e-01 -4.5086057e-01 -4.4197351e-01 -4.3225024e-01 -4.2180795e-01 -4.1729999e-01 -3.9133973e-01 -4.0165205e-01 -3.4611401e-01 -3.2057288e-01 -1.2317903e-01 -3.3693044e-01 -2.6564714e-01 -5.5901311e-01 1.4080868e+00 1.2670027e-01 -4.9300296e-01 -2.1679399e-01 -3.0804843e-01 -7.0412333e-02 6.3577869e-02 4.6094836e-01 8.4251057e-02 -4.3791131e-01 -5.3659571e-01 -4.6750104e-01 -4.6893055e-01 -4.1041326e-01 -4.1024806e-01 -3.7771006e-01 -3.7868189e-01 -3.3666967e-01 -3.3614367e-01 -3.1646921e-01 -2.7930360e-01 -3.1446388e-01 -1.2196222e-01 -1.1618535e-01 -1.7392090e-01 -3.3288362e-01 -3.1828086e-02 1.5861184e+00 -2.6463132e-01 -1.7199661e-01 -2.3285651e-01 -6.0622936e-02 4.5195272e-03 3.4656583e-01 5.3213456e-01 6.1775534e-02 -4.6521407e-01 -4.2336553e-01 -4.2236956e-01 -3.6028176e-01 -3.7491514e-01 -3.2142290e-01 -3.3161349e-01 -2.8996456e-01 -3.0060255e-01 -2.5042316e-01 -2.6250169e-01 -2.1765963e-01 -2.0184154e-01 -2.0576638e-01 -5.6856034e-02 -1.9400648e-02 -8.5355347e-02 -2.7484489e-01 3.9285301e-02 1.6576435e+00 -2.0019873e-01 -1.0312612e-01 -1.8204888e-01 3.2962734e-02 6.0064354e-02 4.1085912e-01 6.0657825e-01 1.8578933e-01 -3.9137362e-01 -2.9345104e-01 -3.7177875e-01 -2.3356625e-01 -2.9262519e-01 -1.8466103e-01 -2.5614964e-01 -1.5631634e-01 -2.2252298e-01 -1.2394703e-01 -1.9003516e-01 -9.4126747e-02 -1.4703212e-01 -5.9906081e-02 -1.4619697e-01 -3.2099788e-02 -1.2155950e-01 8.7701598e-02 8.6616721e-02 3.3729561e-02 -1.3507422e-01 2.4085686e-02 1.6777708e+00 7.6631831e-02 -1.3137991e-01 -1.7814322e-02 8.2780313e-03 1.6968983e-01 3.6580674e-01 7.1493736e-01 2.7010651e-01 -2.3339788e-01 -3.3581909e-01 -2.6945995e-01 -2.7018531e-01 -2.1455189e-01 -2.4249891e-01 -1.9223479e-01 -2.2817878e-01 -1.6284351e-01 -2.1825519e-01 -1.4276050e-01 -1.9772048e-01 -1.1331793e-01 -1.8019464e-01 -7.0900230e-02 -1.5409381e-01 -4.4424913e-02 -7.7764018e-02 1.9250099e-01 -1.0383984e-01 5.0404722e-02 -3.3233824e-01 1.5811002e+00 5.1301303e-01 -2.4395239e-01 4.3140577e-02 -3.2710289e-02 1.7120976e-01 3.1073363e-01 7.0933329e-01 4.9881351e-01 -1.5481162e-01 -3.0125242e-01 -2.6609656e-01 -2.2442974e-01 -2.1181265e-01 -1.7992347e-01 -1.8594883e-01 -1.5898486e-01 -1.5951071e-01 -1.1304494e-01 -1.6641025e-01 -4.4992535e-02 -1.3911942e-01 1.6836217e-01 -4.4883774e-02 1.1090828e-01 -4.0208886e-01 9.1153978e-01 1.3052225e+00 -3.6947103e-01 1.4708731e-01 -1.6678651e-01 2.2290372e-01 1.7002833e-01 6.9413332e-01 5.9350549e-01 6.0592970e-02 -3.9935613e-01 -2.5322621e-01 -3.6435110e-01 -1.9513585e-01 -2.9985640e-01 -1.7468799e-01 -2.7777235e-01 -1.4485551e-01 -2.3735766e-01 -1.3665214e-01 -2.6639423e-01 -5.1680232e-03 -2.6540147e-02 -7.2863741e-02 -2.4784219e-01 -3.7362597e-02 1.6830209e+00 -4.1790729e-03 -1.7978473e-01 -5.0787320e-02 -1.1495371e-02 1.8091419e-01 3.9448428e-01 7.5549860e-01 2.3203832e-01 -2.7719940e-01 -3.6941457e-01 -2.8530856e-01 -3.1903392e-01 -2.2325991e-01 -2.8675201e-01 -2.0584684e-01 -2.8718760e-01 -1.7217449e-01 -2.7935058e-01 -1.6583589e-01 -2.6938860e-01 -5.3082789e-02 -6.7617144e-02 -9.5529486e-02 -3.2372789e-01 -6.8057686e-02 1.5676795e+00 -1.5093511e-01 -2.4760917e-01 -1.8442726e-01 -1.0443253e-01 3.0823490e-02 2.8178033e-01 6.0173090e-01 9.1756457e-02 -4.0225770e-01 -4.9500786e-01 -3.9507209e-01 -4.4712692e-01 -3.4371958e-01 -4.2276052e-01 -3.2070170e-01 -3.9871393e-01 -2.8797386e-01 -3.6077283e-01 -2.4048695e-01 -2.8924393e-01 3.3009801e-02 -2.4925285e-01 -8.9137170e-02 -5.2037675e-01 1.4020622e+00 4.4742490e-01 -4.1647224e-01 -7.3028370e-02 -1.7633832e-01 6.9021467e-02 2.0048214e-01 6.3491163e-01 3.8413422e-01 -2.5037645e-01 -3.4750051e-01 -3.1925274e-01 -2.5192735e-01 -2.6098735e-01 -1.8264135e-01 -1.9777602e-01 -1.3238883e-01 -1.5113440e-01 -8.4643744e-02 -6.6165465e-02 1.8079164e-01 -5.1846953e-02 7.5817165e-02 -2.6222379e-01 1.6979468e+00 5.0523566e-01 -1.1135802e-01 1.1356574e-01 9.8403766e-02 2.6986683e-01 4.4486236e-01 8.0966096e-01 4.9465910e-01 -1.6109488e-01 -2.1400150e-01 -2.2323066e-01 -1.4196149e-01 -1.9663010e-01 -1.0790471e-01 -2.1188532e-01 -7.7391610e-02 -2.2309299e-01 1.0687369e-01 -1.2841790e-01 4.6856856e-02 -4.9770234e-01 7.2805571e-01 1.3074862e+00 -4.7211483e-01 -1.1563109e-02 -2.8225090e-01 7.3470133e-02 3.2241860e-02 5.4085438e-01 4.5819391e-01 -1.1596497e-01 -4.7453507e-01 -3.6633098e-01 -3.9863633e-01 -2.9927077e-01 -3.5607158e-01 -2.9819024e-01 -2.9517394e-01 -3.0061493e-01 -1.3358771e-01 -9.4011766e-02 -1.4407982e-01 -3.3932263e-01 1.2055045e-02 1.6386462e+00 -2.6236814e-01 -1.0411044e-01 -1.9673044e-01 4.3744909e-02 8.3309872e-02 4.8865034e-01 6.3167517e-01 1.7024824e-01 -3.3963139e-01 -2.4941803e-01 -2.8878820e-01 -1.6367801e-01 -2.4390167e-01 -1.2094086e-01 -2.1562848e-01 -8.5155813e-02 -1.8802529e-01 -5.0425555e-02 -1.5989449e-01 1.1152241e-01 3.3843128e-02 7.8220514e-02 -2.3992775e-01 3.1061177e-01 1.7012227e+00 -1.4127690e-01 2.3754958e-02 -9.5000770e-02 1.3763527e-01 1.5773036e-01 5.4980193e-01 7.0051500e-01 2.4172334e-01 -2.3563994e-01 -1.4231161e-01 -2.0088820e-01 -7.9722281e-02 -1.5366624e-01 -4.2900319e-02 -1.6454694e-01 -7.0448081e-03 -1.6201033e-01 1.6631109e-01 -1.1986488e-02 1.0328319e-01 -3.1128551e-01 4.8637633e-01 1.5541211e+00 -2.3676493e-01 3.2017976e-02 -9.8023557e-02 1.2580220e-01 1.6126169e-01 5.5251413e-01 6.3965960e-01 4.4563650e-02 -3.3434178e-01 -3.0200581e-01 -2.9470760e-01 -2.6777611e-01 -2.4011301e-01 -2.4753000e-01 -2.2363951e-01 -2.2768799e-01 -1.8020180e-01 -2.0731870e-01 8.4253686e-02 -1.4899011e-01 2.4878546e-02 -5.4322814e-01 1.1135100e+00 1.0656780e+00 -4.9009940e-01 6.1977598e-02 -2.4648504e-01 1.3435440e-01 7.0780326e-02 6.0446559e-01 3.6691193e-01 -1.3368925e-01 -4.6169366e-01 -3.0140974e-01 -3.7632591e-01 -2.5481853e-01 -3.2506641e-01 -2.2816712e-01 -2.6959118e-01 -2.0950031e-01 -2.1694572e-01 -1.4296325e-01 4.2748359e-02 -1.3233071e-01 -9.8883665e-02 -3.5150996e-01 1.4661839e+00 4.3415109e-01 -3.4066093e-01 2.2771819e-02 -1.3944027e-01 1.7778445e-01 2.1046756e-01 6.9340559e-01 2.6329813e-01 -2.2085223e-01 -3.7430119e-01 -2.4423975e-01 -3.1883954e-01 -1.9238138e-01 -2.7622960e-01 -2.0350365e-01 -2.2271043e-01 -1.9840115e-01 -1.9246731e-01 -1.9228471e-01 -1.9695738e-02 -5.1979592e-02 -6.2542656e-02 -3.7488096e-01 3.7709473e-01 1.5501698e+00 -4.7109191e-01 4.5468409e-02 -3.1023996e-01 1.1418301e-01 -2.5436085e-02 5.0421537e-01 4.3179104e-01 3.8098982e-02 -5.2022257e-01 -3.0454178e-01 -4.8854062e-01 -2.5493182e-01 -4.9634925e-01 -2.4756143e-01 -5.0495207e-01 -2.2845828e-01 -4.7206486e-01 -6.5968211e-03 -4.4187461e-01 -1.3122489e-01 -7.3836441e-01 1.2570210e+00 3.2976298e-01 -5.2266466e-01 -2.7017133e-01 -3.0586895e-01 -1.0618743e-01 1.9749415e-02 4.1656396e-01 1.6412013e-01 -4.7153511e-01 -5.1472904e-01 -5.3966448e-01 -4.3315531e-01 -4.9297895e-01 -3.7976268e-01 -4.5763969e-01 -3.2309376e-01 -4.2911327e-01 -1.5289261e-01 -2.2174328e-01 -1.6574017e-01 -4.5599731e-01 3.9813905e-03 1.5482913e+00 -3.1430296e-01 -2.1289756e-01 -2.3676349e-01 -7.4178578e-02 3.3906372e-02 3.3668145e-01 5.5331446e-01 2.9165508e-03 -4.0217137e-01 -4.0597765e-01 -3.4847224e-01 -3.2010501e-01 -3.1511059e-01 -2.8608898e-01 -3.0210418e-01 -2.4422929e-01 -2.5263708e-01 -2.2340476e-01 -1.7187805e-01 3.8719316e-02 -1.6507233e-01 -9.2485897e-02 -4.2767522e-01 1.4667480e+00 4.6686988e-01 -4.2007176e-01 -2.3642794e-02 -2.1589519e-01 1.2543135e-01 1.2650398e-01 6.2799043e-01 2.1833235e-01 -2.1652948e-01 -4.4869504e-01 -2.5428375e-01 -3.6052863e-01 -1.8986893e-01 -3.3492190e-01 -1.4584872e-01 -3.0564613e-01 -8.9832947e-02 -2.7604771e-01 -4.4526764e-02 -2.4880267e-01 1.9408488e-01 -1.1515281e-01 1.3371497e-01 -4.3470525e-01 7.6012243e-01 1.3903027e+00 -2.8594348e-01 3.7130555e-02 -8.9114355e-02 1.2441933e-01 1.8720336e-01 5.3854939e-01 6.1388408e-01 3.7853086e-02 -2.5423429e-01 -2.4774190e-01 -1.8568087e-01 -1.7852322e-01 -1.3626331e-01 -1.6285490e-01 -8.0371497e-02 -1.4549103e-01 -8.2781758e-03 -1.2749365e-01 1.9257492e-01 1.0400472e-02 1.5770527e-01 -3.1827941e-01 6.8688440e-01 1.5597160e+00 -2.8281569e-01 1.5502952e-01 -7.7501714e-02 2.3692146e-01 2.1528353e-01 6.4489025e-01 6.4204583e-01 1.4223441e-01 -2.8301232e-01 -1.5384176e-01 -2.2714198e-01 -1.0115167e-01 -2.0039474e-01 -7.2476822e-02 -1.8023359e-01 -3.2492368e-02 -1.7185660e-01 1.3204464e-01 1.6551041e-03 9.2836180e-02 -2.8469140e-01 3.8310008e-01 1.7133969e+00 -2.1117514e-01 4.7383366e-02 -1.0348557e-01 1.6262642e-01 1.6963461e-01 5.6124606e-01 6.4703900e-01 1.6642286e-01 -3.0995868e-01 -2.1632388e-01 -2.5717795e-01 -1.6718834e-01 -2.1614067e-01 -1.3035126e-01 -1.8498018e-01 -1.0212702e-01 -1.3682698e-01 -6.1361495e-02 -4.8865279e-02 1.8281097e-01 -6.6983217e-02 -7.5292828e-03 -1.7466572e-01 1.8060952e+00 1.8542140e-01 -1.1492402e-01 -3.9701677e-02 5.1398749e-04 1.1966660e-01 3.6345317e-01 6.1756833e-01 2.7892122e-01 -2.9825886e-01 -2.8007984e-01 -3.0514933e-01 -2.0529126e-01 -2.7059617e-01 -1.8199919e-01 -2.5755810e-01 -1.4777417e-01 -2.1138957e-01 -1.0862295e-01 -1.3992170e-01 1.5493151e-01 -1.2982451e-01 2.0874749e-02 -3.8304168e-01 1.5853882e+00 4.9216259e-01 -2.7671656e-01 3.0319642e-02 -6.9073097e-02 1.7189711e-01 2.7656464e-01 6.7070409e-01 3.6373364e-01 -1.8245097e-01 -3.0740075e-01 -2.2318123e-01 -2.5491424e-01 -1.8321388e-01 -2.2150662e-01 -1.7426958e-01 -2.0171035e-01 -1.1668591e-01 -1.9939047e-01 8.7359825e-02 -5.9895871e-02 5.5124433e-02 -3.8147628e-01 6.5509754e-01 1.4606381e+00 -3.8625532e-01 1.4382131e-01 -1.7325727e-01 2.5618287e-01 1.2090653e-01 6.8560038e-01 5.5344426e-01 1.7602159e-01 -3.3361572e-01 -9.9892122e-02 -2.8952504e-01 -5.5007252e-02 -2.7846987e-01 -2.2685473e-02 -2.7144329e-01 4.9463521e-03 -2.4872014e-01 2.2128909e-01 -1.2743024e-01 1.5559665e-01 -4.9551749e-01 8.2466138e-01 1.3272551e+00 -3.4229877e-01 6.0674065e-03 -1.1016506e-01 8.6504517e-02 1.9367828e-01 5.2984840e-01 5.9174003e-01 -6.7485235e-02 -2.8521071e-01 -3.5479289e-01 -2.5329000e-01 -3.2925705e-01 -2.4591017e-01 -3.4958120e-01 -2.2344122e-01 -3.7187232e-01 -1.6427845e-02 -2.7028814e-01 -8.2452356e-02 -6.7096497e-01 6.3002372e-01 1.1030582e+00 -5.9238973e-01 -1.5483976e-01 -3.5680207e-01 -7.1928001e-02 -3.1925590e-02 3.8456779e-01 3.1673854e-01 -2.9484453e-01 -5.2730623e-01 -4.7881607e-01 -4.2558331e-01 -4.0324491e-01 -3.4198321e-01 -3.5231540e-01 -2.6470630e-01 -2.7240894e-01 -8.9840171e-04 -2.0513570e-01 -1.0446785e-01 -4.3134176e-01 1.5436281e+00 4.0685899e-01 -2.7135676e-01 7.7798807e-03 -2.2260948e-02 1.9326205e-01 3.6660286e-01 7.4128791e-01 3.6663380e-01 -1.5980513e-01 -1.6040163e-01 -1.5201918e-01 -4.6283462e-02 -1.0417698e-01 2.2952346e-02 -3.1503225e-02 3.0623928e-01 7.2783487e-03 1.9565998e-01 -3.3279506e-01 1.5038529e+00 9.5199213e-01 -2.0941356e-01 2.2584890e-01 4.8697388e-02 3.2866065e-01 4.3023732e-01 8.4489982e-01 5.3491949e-01 -3.4527310e-02 -1.3021307e-01 -6.8021659e-02 -5.0559243e-02 -4.5663331e-02 1.3208694e-02 -1.9766381e-02 3.3845529e-01 6.5212252e-02 1.8542999e-01 -3.0449159e-01 1.1664800e+00 1.5088510e+00 -2.5604170e-01 3.3707106e-01 1.5874472e-02 4.6008641e-01 3.8440899e-01 9.4075536e-01 6.2740592e-01 1.9760553e-01 -1.0623933e-01 8.7100338e-02 -3.7192974e-02 1.2102438e-01 -2.1345896e-03 1.1919620e-01 1.0711410e-01 3.6368729e-01 5.7039471e-02 1.4108999e-01 -1.1775071e-01 1.8611811e+00 3.8034784e-01 -2.1064623e-02 1.0341943e-01 1.4794029e-01 3.0270242e-01 5.0372732e-01 8.1502430e-01 2.8858834e-01 -1.3082159e-01 -1.6849858e-01 -1.2886007e-01 -1.2746146e-01 -9.7943437e-02 -1.3473252e-01 -6.7675427e-02 -1.3747580e-01 1.7258114e-01 -6.1127453e-02 5.6330938e-02 -4.7112668e-01 9.6313133e-01 1.2070362e+00 -4.8664059e-01 9.3310942e-02 -2.6684916e-01 1.8193973e-01 7.2525741e-02 6.2305655e-01 3.2439378e-01 -9.1242695e-02 -4.3559936e-01 -1.7900196e-01 -3.4666766e-01 -1.3336965e-01 -3.1112266e-01 -1.3373884e-01 -2.9502247e-01 -1.0049661e-01 -2.9060902e-01 5.6313853e-02 -8.7953568e-02 -2.7893772e-03 -3.6556576e-01 1.3745761e-01 1.6065633e+00 -1.3158776e-01 -1.5367061e-01 -1.1878769e-01 -4.3461596e-02 1.2268699e-01 3.2172759e-01 5.6611563e-01 -1.1864704e-02 -3.1337558e-01 -3.7970588e-01 -2.6261808e-01 -3.2612756e-01 -2.1424502e-01 -3.1225826e-01 -1.8508680e-01 -3.0428848e-01 -1.5808270e-01 -2.9898800e-01 -1.1256846e-01 -2.9837432e-01 9.1485235e-02 -1.8620085e-01 2.9073793e-02 -5.5399752e-01 6.4743857e-01 1.2710442e+00 -4.4636014e-01 -5.0284727e-02 -2.5909248e-01 2.0158057e-02 1.3691181e-02 4.1414277e-01 4.0272426e-01 -1.4439873e-01 -4.2439815e-01 -3.8622666e-01 -3.5970245e-01 -3.3933307e-01 -3.1799245e-01 -3.3313998e-01 -2.7542354e-01 -3.3509337e-01 -2.2292577e-01 -3.1055056e-01 -4.2421493e-03 -2.0209359e-01 -4.8931468e-02 -5.4675218e-01 7.6545743e-01 1.1298268e+00 -5.0964806e-01 1.6753555e-02 -2.7230254e-01 1.2009958e-01 4.0357343e-02 5.7859200e-01 3.8337946e-01 -1.1043925e-01 -4.6306263e-01 -2.7770763e-01 -4.0353690e-01 -2.2043328e-01 -3.6525689e-01 -2.0513361e-01 -3.3401204e-01 -1.7138791e-01 -3.2471366e-01 6.5192231e-03 -1.6570913e-01 -2.7088980e-02 -4.3362757e-01 3.0174082e-01 1.5372297e+00 -3.3499413e-01 -7.2617397e-02 -1.9441575e-01 4.5301678e-02 8.0405231e-02 4.6172703e-01 5.3335259e-01 -7.1860585e-03 -4.2550715e-01 -3.3261448e-01 -3.6499905e-01 -2.7423575e-01 -3.2954391e-01 -2.3158574e-01 -3.0648269e-01 -1.8432589e-01 -2.9572261e-01 -1.4650971e-01 -2.8998470e-01 5.6884359e-02 -1.7009181e-01 -1.4832180e-02 -5.1750222e-01 5.7192603e-01 1.3369353e+00 -5.3220166e-01 -8.0855597e-02 -3.4691085e-01 -2.1428844e-02 -9.2637816e-02 3.8047877e-01 2.5309364e-01 -1.8998317e-01 -6.6627243e-01 -4.8844012e-01 -6.1436343e-01 -4.5070751e-01 -5.8908044e-01 -4.3102403e-01 -5.6208713e-01 -4.0573666e-01 -5.4700382e-01 -3.7021202e-01 -5.3309710e-01 -1.9030270e-01 -3.6263186e-01 -2.3704438e-01 -6.4185649e-01 6.0199323e-02 1.3085257e+00 -4.8536536e-01 -2.9815555e-01 -3.5782486e-01 -1.8829301e-01 -1.0522387e-01 2.2045957e-01 3.7688143e-01 -1.5943103e-01 -5.4322829e-01 -5.0406568e-01 -4.6466567e-01 -4.3050390e-01 -4.0584717e-01 -3.7768454e-01 -3.5984128e-01 -3.5565650e-01 -3.2687658e-01 -2.7157951e-01 -8.2802204e-02 -2.3980995e-01 -2.2965209e-01 -2.9656815e-01 1.5280392e+00 -2.3704053e-02 -2.2445683e-01 -1.5223623e-01 -3.9003830e-02 7.2734656e-02 3.5304399e-01 5.7701011e-01 2.2389196e-01 -3.9291622e-01 -2.9183249e-01 -3.6789196e-01 -2.4434596e-01 -3.1292738e-01 -2.1997566e-01 -2.8962360e-01 -1.2341354e-01 -2.4541152e-01 1.5568914e-01 -1.5811023e-01 1.0224809e-01 -5.1987961e-01 1.3771891e+00 1.0563782e+00 -3.9417257e-01 1.2689190e-01 -1.2383010e-01 2.5029951e-01 2.2762499e-01 7.2102491e-01 4.4190843e-01 -9.2888771e-02 -3.2337368e-01 -1.9219739e-01 -2.4124966e-01 -1.2737460e-01 -1.9428801e-01 -1.0784194e-01 -1.6548302e-01 -2.2817375e-02 9.6077626e-02 -4.2417456e-02 -1.3109586e-01 -1.5518163e-01 1.8045944e+00 1.5744011e-01 -1.8903478e-01 -2.8322097e-02 1.1009873e-02 1.7054552e-01 3.8620208e-01 6.7589962e-01 1.8876115e-01 -2.6864778e-01 -2.8144915e-01 -2.6910924e-01 -1.9714287e-01 -2.5387448e-01 -1.5845281e-01 -2.4469130e-01 -1.1825265e-01 -2.3010847e-01 9.4218506e-02 -1.3885413e-01 5.7993407e-03 -5.0677720e-01 7.4229355e-01 1.3215567e+00 -4.9451814e-01 4.5591922e-02 -2.4478943e-01 1.3536791e-01 4.4304463e-02 5.6051554e-01 3.7244702e-01 -6.5613350e-02 -4.3268712e-01 -2.3156939e-01 -3.7202251e-01 -1.6955368e-01 -3.3682372e-01 -1.5062109e-01 -3.0888350e-01 -1.2913310e-01 -3.0380619e-01 4.0337121e-02 -1.3199534e-01 3.4650869e-02 -4.5266860e-01 3.6611312e-01 1.4895085e+00 -2.9750031e-01 -8.7657857e-02 -1.7848476e-01 1.1771553e-02 6.0124055e-02 3.9792307e-01 4.6253411e-01 -4.5279411e-02 -4.1711871e-01 -3.2769463e-01 -3.7223735e-01 -2.9305687e-01 -3.5049162e-01 -2.9919098e-01 -3.2978737e-01 -2.8776856e-01 -3.3155602e-01 -1.5522666e-01 -1.1942737e-01 -1.6175354e-01 -4.0858992e-01 1.1395946e-02 1.4877088e+00 -3.1848663e-01 -1.7294713e-01 -2.4905389e-01 -3.5924340e-02 1.1928394e-02 3.6661524e-01 4.7072830e-01 2.7165556e-02 -4.0599801e-01 -2.8423651e-01 -3.5095677e-01 -2.4963351e-01 -2.8776062e-01 -2.3069267e-01 -2.7106283e-01 -2.0913610e-01 -1.6467267e-01 8.4839932e-03 -1.6305729e-01 -2.0409911e-01 -1.5953575e-01 1.6431285e+00 -1.1671839e-01 -1.1514146e-01 -1.7287165e-01 5.3072705e-02 4.1052327e-02 4.5010954e-01 5.1914763e-01 1.5961586e-01 -4.0684957e-01 -2.3786859e-01 -3.8047670e-01 -1.7839940e-01 -3.6602587e-01 -1.4610902e-01 -3.3695543e-01 1.1524251e-01 -2.4789689e-01 2.0891190e-02 -6.5055487e-01 8.6184683e-01 1.0299377e+00 -5.1862298e-01 -7.8847859e-02 -2.8585390e-01 1.2762306e-02 5.3570097e-02 4.5198795e-01 2.9558318e-01 -3.5178519e-01 -4.7094737e-01 -4.9533039e-01 -4.0425720e-01 -4.8016815e-01 -3.5984246e-01 -4.6868205e-01 -1.0627143e-01 -3.6956401e-01 -2.2018701e-01 -7.5636429e-01 6.1789263e-01 1.0047757e+00 -6.8045914e-01 -1.7471141e-01 -4.3082223e-01 -5.6959599e-02 -7.8406993e-02 4.0722837e-01 1.6434543e-01 -3.5548290e-01 -5.7311688e-01 -4.6404965e-01 -4.8999711e-01 -4.0073931e-01 -4.5097776e-01 -3.8651873e-01 -3.9691887e-01 -2.5301114e-01 -1.4642488e-01 -2.9203627e-01 -3.7639137e-01 -4.1453897e-01 1.4197735e+00 -4.8834335e-02 -4.1990966e-01 -2.5233174e-01 -2.3915186e-01 -4.7834004e-02 1.3392289e-01 4.5182314e-01 -5.5125011e-02 -4.3191009e-01 -4.4856447e-01 -4.0907637e-01 -3.6947951e-01 -3.7619472e-01 -3.2882788e-01 -3.5651099e-01 -2.8095559e-01 -3.2276340e-01 -2.2435046e-01 -2.9785452e-01 -3.8931668e-02 -1.0520638e-01 -5.6371910e-02 -3.9564963e-01 3.4088558e-01 1.5314750e+00 -3.9255828e-01 2.0726206e-02 -2.1949749e-01 1.1332222e-01 7.9233265e-02 5.0801656e-01 4.9624946e-01 7.4285093e-02 -3.7172717e-01 -1.8892205e-01 -3.0568119e-01 -1.4632566e-01 -2.6953499e-01 -1.2375841e-01 -2.4027392e-01 -7.7701680e-02 -2.2755879e-01 8.9812864e-02 -3.5367898e-02 6.6146879e-02 -3.0919065e-01 3.2235742e-01 1.6315975e+00 -1.8741312e-01 1.6880540e-02 -7.9288901e-02 1.5757040e-01 1.8272112e-01 5.6624635e-01 6.2665798e-01 1.1312255e-01 -2.8893627e-01 -1.8882419e-01 -2.3424166e-01 -1.3044392e-01 -2.0584243e-01 -1.2093816e-01 -1.7420102e-01 -8.4601913e-02 -1.5553213e-01 -3.5756868e-02 -1.2237504e-01 2.2003690e-01 -7.2863300e-02 1.2443388e-01 -4.2331099e-01 1.3245708e+00 9.3322988e-01 -3.3342807e-01 1.3644738e-01 -9.2975336e-02 2.5437296e-01 2.4324232e-01 7.4854321e-01 4.1852985e-01 -4.1509083e-02 -2.9995153e-01 -1.4964039e-01 -2.3157845e-01 -1.1243001e-01 -2.1816302e-01 -1.0035805e-01 -2.0785855e-01 -5.3315242e-02 -1.9386369e-01 -1.9935297e-02 -1.7700623e-01 1.5697614e-01 -6.5548198e-03 9.8453072e-02 -3.0294889e-01 4.4211918e-01 1.6248034e+00 -2.0934125e-01 4.6144793e-02 -9.8220563e-02 1.5017313e-01 1.6460902e-01 5.6442700e-01 6.1744796e-01 1.1555561e-01 -2.9016462e-01 -1.9614638e-01 -2.4975790e-01 -1.5175931e-01 -2.3300927e-01 -1.3158190e-01 -2.1638130e-01 -1.0845162e-01 -2.0905426e-01 -5.5562742e-02 -1.8894972e-01 1.7510423e-01 -7.7825582e-02 1.1269122e-01 -4.2861407e-01 9.3797643e-01 1.2065784e+00 -4.0641512e-01 9.8388003e-02 -1.7288887e-01 1.9085102e-01 1.5552454e-01 6.4339475e-01 4.7766662e-01 -1.7727504e-02 -3.6003600e-01 -2.1858289e-01 -2.6231202e-01 -1.8769046e-01 -2.3988582e-01 -1.8888073e-01 -1.9507103e-01 -1.8170485e-01 -1.4502787e-01 -1.7520576e-01 8.6420503e-02 -9.0065340e-02 -6.9397476e-04 -4.6651904e-01 8.9651363e-01 1.1601947e+00 -5.4464942e-01 4.7479409e-02 -3.3918630e-01 1.2467310e-01 -5.9480050e-02 5.7758772e-01 2.1812806e-01 -1.5196525e-01 -6.2705365e-01 -3.0665736e-01 -5.6606951e-01 -2.5929822e-01 -5.2511374e-01 -2.3554966e-01 -5.1097376e-01 -1.9359275e-01 -4.6723292e-01 3.9805088e-02 -3.4657822e-01 1.1380919e-05 -7.0182040e-01 8.5367061e-01 1.0205982e+00 -4.9214545e-01 -1.1158019e-01 -2.3686371e-01 -1.4633863e-02 1.1007309e-01 4.6703605e-01 4.1014010e-01 -2.6153394e-01 -4.0487920e-01 -4.1760183e-01 -3.1464196e-01 -3.6880564e-01 -2.4317196e-01 -3.5730351e-01 -1.7080744e-01 -3.3204065e-01 3.7398929e-02 -1.4352379e-01 4.3781379e-02 -4.3645196e-01 5.4452167e-01 1.4482391e+00 -2.9584108e-01 4.2544197e-02 -9.6502338e-02 1.4103800e-01 2.1682080e-01 5.7313258e-01 6.2666703e-01 -3.5698582e-02 -2.8241119e-01 -2.8349816e-01 -2.0457003e-01 -2.3962213e-01 -1.6060687e-01 -2.2668305e-01 -1.0804549e-01 -1.9146004e-01 1.5898024e-01 -1.1875599e-01 8.2537324e-02 -4.4797485e-01 1.2549528e+00 9.7675993e-01 -3.7132747e-01 1.0362524e-01 -8.8481911e-02 2.2135102e-01 2.5942550e-01 7.0777395e-01 4.3992831e-01 -1.5065035e-01 -2.7858437e-01 -2.1051590e-01 -1.9871881e-01 -1.4054208e-01 -1.3905964e-01 -1.2628885e-01 -6.7533830e-02 -1.2412491e-01 1.5248622e-01 2.0353689e-02 1.1132167e-01 -3.1595948e-01 6.6052202e-01 1.6107776e+00 -3.4443539e-01 1.8746129e-01 -1.3289430e-01 2.9206883e-01 1.8273460e-01 7.4377949e-01 5.5802172e-01 9.4394406e-02 -3.2381151e-01 -1.3619418e-01 -2.7947969e-01 -7.8495809e-02 -2.4599661e-01 -5.5881558e-02 -2.4096123e-01 -2.1458263e-02 -2.1527125e-01 1.8786164e-01 -5.2992469e-02 1.4823034e-01 -3.7720193e-01 7.0915661e-01 1.5307686e+00 -2.8674271e-01 1.3328979e-01 -9.3975655e-02 2.3624341e-01 2.1488892e-01 6.6822476e-01 6.0095093e-01 5.0926056e-02 -2.7345864e-01 -1.5234375e-01 -1.9247449e-01 -8.2938431e-02 -1.6464874e-01 -5.2665989e-02 -1.5470370e-01 -2.0476605e-02 -1.3883910e-01 1.9494079e-01 -5.7641394e-02 1.4381392e-01 -4.0271558e-01 9.7141172e-01 1.2793903e+00 -3.7498905e-01 1.7366187e-01 -1.4503877e-01 2.8120667e-01 1.8151751e-01 7.2927494e-01 4.7199163e-01 -1.5238885e-02 -3.4059946e-01 -1.5562228e-01 -2.8156784e-01 -8.1007843e-02 -2.6729142e-01 -6.7750696e-02 -2.4950283e-01 -2.8273304e-02 -2.3572338e-01 1.3093347e-01 -3.0512665e-02 7.1280968e-02 -3.2595722e-01 2.9303162e-01 1.6517337e+00 -1.4971547e-01 -6.2798254e-02 -4.4311050e-02 6.8437650e-02 2.2777632e-01 4.9694540e-01 6.9783530e-01 8.2255831e-02 -2.2764026e-01 -2.3432611e-01 -1.4585210e-01 -1.8781282e-01 -8.7764626e-02 -1.9302253e-01 -5.8845078e-02 -1.9905129e-01 -3.9660597e-02 -1.9440165e-01 1.4470906e-01 -7.4341915e-02 8.8697272e-02 -4.3694522e-01 7.4790550e-01 1.3487781e+00 -3.5848750e-01 3.1892449e-02 -1.6561880e-01 1.2076558e-01 1.1415556e-01 5.5965340e-01 4.6321199e-01 -1.0729124e-01 -3.8128418e-01 -3.2528820e-01 -3.0551594e-01 -2.7514957e-01 -2.7928592e-01 -2.6760689e-01 -2.4669934e-01 -2.6029890e-01 -2.0344576e-01 -2.4073081e-01 -9.5704148e-03 -8.9645373e-02 -3.2332770e-02 -4.1596734e-01 4.7399241e-01 1.4330266e+00 -3.9321516e-01 5.6255836e-02 -2.0011755e-01 1.6447055e-01 8.5113191e-02 6.1737138e-01 5.0747833e-01 5.1911423e-02 -3.9840351e-01 -2.0526157e-01 -3.3835872e-01 -1.5943964e-01 -3.0530050e-01 -1.4548417e-01 -2.7952500e-01 -1.0184188e-01 -2.6439568e-01 4.5489668e-02 -5.9724225e-02 2.8290355e-02 -3.3187784e-01 2.7705384e-01 1.6388332e+00 -1.3930451e-01 -2.3350044e-02 -5.9417093e-02 1.0867980e-01 2.1033131e-01 5.4890872e-01 6.9473862e-01 1.0450683e-01 -2.6872266e-01 -2.5137118e-01 -2.1139181e-01 -1.8825361e-01 -1.6377916e-01 -1.5207178e-01 -1.3703604e-01 -1.1669621e-01 -1.2272222e-01 -1.0566232e-01 -2.1840100e-02 1.2917552e-01 -3.4802275e-02 -9.0889556e-02 -1.2014531e-01 1.7322643e+00 1.5982939e-01 -1.3817421e-01 -1.3817683e-02 4.5736798e-03 1.8107360e-01 3.9001754e-01 7.0450492e-01 2.4001795e-01 -2.5873650e-01 -2.5729999e-01 -2.3669680e-01 -1.8490230e-01 -1.7885413e-01 -1.4623597e-01 -1.4962099e-01 -1.1156840e-01 -1.2744867e-01 -7.8951134e-02 -6.8762928e-02 1.6188307e-01 -4.5901178e-02 2.2556759e-02 -3.2369539e-01 1.5928076e+00 5.4448805e-01 -2.7860725e-01 6.4767273e-02 -9.6247836e-02 2.4037278e-01 2.6361813e-01 7.6159482e-01 3.0281491e-01 -2.0615997e-01 -3.2640470e-01 -2.2087269e-01 -3.0430583e-01 -1.9502697e-01 -3.1893524e-01 -1.8699173e-01 -3.1884204e-01 -1.7362921e-01 -2.3101912e-01 7.9455482e-02 -2.0106560e-01 -7.9224343e-02 -4.5512582e-01 1.5148785e+00 3.3835776e-01 -3.3428749e-01 -8.7215585e-02 -1.2509006e-01 8.0653776e-02 2.5714491e-01 6.3383360e-01 2.4260793e-01 -2.8523924e-01 -3.4073062e-01 -3.0963786e-01 -2.7181654e-01 -2.5837122e-01 -2.4302855e-01 -2.3171742e-01 -1.9907119e-01 -1.8856357e-01 -1.8047942e-01 -5.1621827e-02 3.3053231e-02 -6.9443653e-02 -2.1791320e-01 -9.7213215e-03 1.7042880e+00 -1.3160418e-01 -7.6555518e-02 -1.5867570e-01 6.7924019e-02 7.4249274e-02 4.8046612e-01 5.9250840e-01 1.8075556e-01 -3.5434342e-01 -2.2685376e-01 -3.0701252e-01 -1.7379077e-01 -2.6821628e-01 -1.4866390e-01 -2.6030253e-01 -1.0501669e-01 -2.6262541e-01 8.6950058e-02 -1.1274657e-01 5.0126856e-02 -4.1119293e-01 5.0744270e-01 1.4864024e+00 -3.6336507e-01 8.8072788e-03 -1.9379121e-01 1.1338008e-01 1.1347511e-01 5.5634137e-01 5.4376550e-01 -6.6992577e-05 -3.7800482e-01 -2.3678007e-01 -3.2243753e-01 -1.9254085e-01 -3.0717758e-01 -1.6393172e-01 -2.8639488e-01 -1.2597777e-01 -2.6513708e-01 1.0258261e-01 -1.5394379e-01 4.1900603e-02 -5.2921333e-01 1.0484233e+00 1.0742992e+00 -4.5864525e-01 5.5426724e-02 -1.8848170e-01 1.7530731e-01 1.5408190e-01 6.8147144e-01 4.1469476e-01 -7.7372845e-02 -3.7232891e-01 -1.8931625e-01 -2.7478402e-01 -1.4562719e-01 -2.3451063e-01 -1.4243945e-01 -2.0012156e-01 -1.1598046e-01 -1.4811593e-01 -3.3705653e-02 9.9117613e-02 -1.1871765e-02 -5.4375350e-02 -2.4318919e-01 1.5570131e+00 4.8181687e-01 -2.9371350e-01 1.1085022e-01 -1.1303365e-01 2.7820276e-01 2.7168194e-01 7.8052315e-01 2.2783441e-01 -1.2942724e-01 -3.5626273e-01 -1.3974483e-01 -2.9238163e-01 -1.0376846e-01 -2.8993555e-01 -7.9546198e-02 -2.9243069e-01 -4.2359338e-02 -2.7996476e-01 1.8601686e-01 -2.0777653e-01 1.3360388e-01 -5.6507245e-01 1.0615877e+00 1.0491916e+00 -3.7278882e-01 2.5265501e-02 -1.0961838e-01 1.2942959e-01 2.3823788e-01 6.4474116e-01 5.6601157e-01 -9.9240956e-02 -2.1436550e-01 -2.3258502e-01 -1.3247490e-01 -1.9836462e-01 -1.1829948e-01 -2.0021285e-01 -8.3608459e-02 -2.0817617e-01 8.2742609e-02 -4.9409116e-02 5.8194386e-02 -3.2265234e-01 2.8096420e-01 1.6534053e+00 -1.7996173e-01 2.5342311e-02 -5.7836956e-02 1.2017607e-01 2.4279442e-01 5.5699592e-01 7.4323956e-01 6.9988298e-02 -2.1718899e-01 -2.9816474e-01 -1.5902089e-01 -2.7826140e-01 -1.1968477e-01 -2.7809032e-01 -7.5814605e-02 -2.3680437e-01 1.3477710e-01 -1.6413103e-01 4.9941182e-02 -5.3699591e-01 9.4075894e-01 1.1661107e+00 -4.4169162e-01 2.4031411e-02 -1.9997914e-01 1.0027883e-01 1.3092729e-01 5.7820177e-01 4.4806874e-01 -1.9107623e-01 -3.6933855e-01 -3.4281195e-01 -3.0336238e-01 -3.0927699e-01 -2.5528630e-01 -3.2512180e-01 -1.9975621e-01 -3.2186172e-01 5.2492635e-02 -2.4004025e-01 -4.0106568e-02 -6.3394289e-01 9.5283923e-01 1.2550709e+00 -6.0541329e-01 -3.1840015e-02 -3.4371333e-01 1.4023005e-02 -3.5776080e-03 4.9168394e-01 2.7827545e-01 -2.4430768e-01 -5.5372749e-01 -3.9999080e-01 -4.6429690e-01 -3.6835971e-01 -4.0604525e-01 -3.6367193e-01 -3.8576919e-01 -2.5949827e-01 -1.0404362e-01 -2.6720460e-01 -2.6095762e-01 -4.8950578e-01 1.5484363e+00 2.2479598e-01 -4.8000299e-01 -1.9227668e-01 -2.7910033e-01 -1.1941932e-02 1.0558770e-01 4.8009675e-01 -7.7883355e-03 -4.7820844e-01 -5.0772496e-01 -4.9649146e-01 -4.6218732e-01 -4.3325326e-01 -4.3589793e-01 -4.1203395e-01 -3.7313000e-01 -3.7196157e-01 -2.9986747e-01 -2.8425121e-01 1.2391049e-02 -1.9748452e-01 -1.0935690e-01 -4.7913986e-01 1.3955039e+00 4.7318731e-01 -4.2391883e-01 -5.9986456e-02 -2.1871871e-01 7.6962508e-02 1.1258681e-01 5.2558150e-01 1.2171331e-01 -3.5928954e-01 -4.4565265e-01 -3.7225961e-01 -3.8029979e-01 -3.4330747e-01 -3.6174818e-01 -3.4301057e-01 -3.5769921e-01 -3.2893518e-01 -3.1854727e-01 -2.6494704e-01 -6.9145114e-02 -2.6437510e-01 -2.3046932e-01 -4.5186730e-01 1.4147995e+00 1.7043369e-01 -3.8497705e-01 -1.0974421e-01 -1.8850523e-01 6.3609388e-02 1.9120509e-01 5.6252713e-01 1.1857756e-01 -3.3511149e-01 -3.8932518e-01 -3.3654157e-01 -3.1731433e-01 -3.2408252e-01 -2.7046411e-01 -3.1046577e-01 -2.4179563e-01 -2.7598991e-01 -1.9465112e-02 -2.4545596e-01 -1.2833883e-01 -6.1440065e-01 1.1750147e+00 6.7510939e-01 -5.6525321e-01 -7.3829610e-02 -3.2873370e-01 7.3232424e-02 2.4283356e-02 5.8069664e-01 1.4552974e-01 -3.0570876e-01 -5.0508309e-01 -3.6795977e-01 -4.2259669e-01 -3.4039967e-01 -4.2073445e-01 -2.8295997e-01 -3.5084754e-01 -2.5754571e-01 -2.0461517e-01 -4.4480063e-02 -1.8033600e-01 -2.9681725e-01 -9.3670771e-02 1.6745024e+00 -2.6606409e-01 -1.3243503e-01 -2.5279331e-01 1.2811832e-02 -1.3250587e-02 4.2980569e-01 4.6739120e-01 6.1650733e-02 -4.6199418e-01 -2.8258976e-01 -3.9829938e-01 -1.9394914e-01 -3.4178996e-01 -1.5465593e-01 -2.8609736e-01 -9.1998541e-02 -2.6920433e-01 1.0691126e-01 -6.2227301e-02 9.9535491e-02 -3.6841406e-01 4.4132262e-01 1.5550711e+00 -2.5971733e-01 -1.8662412e-02 -1.3431192e-01 8.3361230e-02 9.8849393e-02 4.6598680e-01 4.9585665e-01 -8.8634169e-02 -4.5235974e-01 -3.4666753e-01 -4.2036218e-01 -3.1195090e-01 -3.8331651e-01 -2.9038049e-01 -3.8144237e-01 -2.6283300e-01 -3.5893472e-01 -4.1758094e-02 -2.7241807e-01 -1.1543082e-01 -6.1771378e-01 9.8671365e-01 8.5785365e-01 -5.5771679e-01 -6.8044404e-03 -3.0728252e-01 1.2320285e-01 3.8629286e-02 6.1450709e-01 2.3123926e-01 -2.0676245e-01 -4.8622891e-01 -2.8005280e-01 -3.6582985e-01 -2.2254159e-01 -3.2972755e-01 -1.6813671e-01 -3.1165864e-01 -4.0243849e-02 -6.0834948e-02 -4.3735964e-02 -2.5154320e-01 -8.4129905e-02 1.6283486e+00 1.0764893e-01 -1.9475573e-01 8.7366420e-03 -1.2062084e-02 2.5837375e-01 3.7896411e-01 7.7958330e-01 4.5923141e-02 -2.3148019e-01 -3.6698943e-01 -1.9476223e-01 -3.0713918e-01 -1.3675426e-01 -2.9228563e-01 -3.9872049e-02 -2.6003359e-01 1.4818506e-01 -1.5736008e-01 7.1416153e-02 -5.4899664e-01 9.4163451e-01 1.1652462e+00 -4.0574276e-01 3.1203958e-02 -1.7690413e-01 1.2024357e-01 1.2415426e-01 5.9462650e-01 4.2147242e-01 -1.9968115e-01 -3.7326696e-01 -3.0775518e-01 -2.6874239e-01 -2.2644999e-01 -2.2066059e-01 -2.1445580e-01 -1.6091444e-01 -7.7195894e-02 1.0844014e-01 -1.1251742e-01 -1.0592073e-01 -2.1859015e-01 1.9216340e+00 1.9465509e-01 -1.8139703e-01 -3.6434301e-02 1.4201522e-02 1.5642525e-01 4.1533221e-01 6.7662169e-01 1.7789420e-01 -3.0375041e-01 -1.9282257e-01 -2.4341897e-01 -8.6915478e-02 -1.6365914e-01 -5.1911849e-02 -1.5556723e-01 -4.9441004e-03 -1.5382143e-01 2.0684173e-01 -1.2360780e-04 1.5363374e-01 -3.7115265e-01 6.3228411e-01 1.6420833e+00 -3.2382568e-01 7.7895381e-02 -1.7457122e-01 1.1235395e-01 5.0843858e-02 4.5469849e-01 3.7255665e-01 -1.7399319e-01 -4.8654869e-01 -4.2132198e-01 -4.4698188e-01 -3.7552633e-01 -4.6017444e-01 -3.6482876e-01 -4.3867367e-01 -3.5570563e-01 -3.9526305e-01 -3.3135560e-01 -2.9753223e-01 -6.7384867e-02 -2.6772444e-01 -2.2635886e-01 -3.9652871e-01 1.5499927e+00 1.6399628e-01 -2.8111741e-01 -8.1540602e-02 -1.0283061e-01 9.5369808e-02 2.3609353e-01 5.8664016e-01 1.3886924e-01 -2.7559592e-01 -3.0601300e-01 -2.4298288e-01 -2.2527542e-01 -1.9389551e-01 -2.0868897e-01 -1.5157524e-01 -1.8890625e-01 -1.2054325e-01 -1.6465870e-01 -2.5700776e-02 8.1112112e-02 -8.2971413e-03 -1.4404233e-01 -2.2642391e-02 1.6830521e+00 1.2395752e-01 -1.3334830e-01 1.8974842e-02 6.2283991e-02 2.6339822e-01 4.6144243e-01 7.6547486e-01 2.4275330e-01 -1.0695552e-01 -1.4868452e-01 -4.6379085e-02 -6.4958231e-02 -4.5203135e-03 -4.0752281e-02 2.9958039e-02 -3.9968669e-02 6.6851593e-02 -4.0567641e-02 2.3111785e-01 1.4176480e-01 2.0887563e-01 -1.7481563e-01 5.2741492e-01 1.6842953e+00 -1.1953126e-01 1.6501347e-01 2.8208989e-02 2.5247565e-01 2.6357582e-01 6.2434726e-01 6.5874367e-01 1.0652817e-01 -2.3323728e-01 -1.5279120e-01 -1.8368751e-01 -1.2540067e-01 -1.5015754e-01 -1.3547870e-01 -1.1043928e-01 -1.1445379e-01 -2.8068536e-02 9.5136764e-02 -3.6693360e-02 -1.4634081e-01 -1.6122708e-01 1.6274555e+00 1.1715186e-01 -2.1764639e-01 -6.7490297e-02 -5.3916941e-02 1.4468551e-01 3.1636204e-01 6.2689220e-01 5.9149302e-02 -3.0119815e-01 -3.5092215e-01 -2.2510731e-01 -2.9481715e-01 -1.7301117e-01 -2.6264658e-01 -1.0538636e-01 -2.6243375e-01 1.4006264e-01 -1.2600890e-01 8.7560476e-02 -4.5203681e-01 9.6543907e-01 1.1346023e+00 -3.5486366e-01 6.5598941e-02 -1.2419487e-01 1.8040312e-01 1.9676973e-01 6.3263036e-01 4.2397992e-01 -1.8741077e-01 -3.1552026e-01 -2.9293515e-01 -2.6296520e-01 -2.8452248e-01 -2.4738709e-01 -2.9042236e-01 -3.7382337e-02 -1.6625234e-01 -8.9125427e-02 -5.6281547e-01 4.8057786e-01 1.2328989e+00 -5.2375520e-01 -5.0609899e-02 -3.1337080e-01 5.9659528e-02 3.3183105e-02 5.1421051e-01 3.4342735e-01 -2.3162728e-01 -4.3606068e-01 -3.5913625e-01 -3.4953812e-01 -3.3249539e-01 -1.1700008e-01 -3.9509850e-02 -1.2550200e-01 -4.4856751e-01 1.9808216e-01 1.6040143e+00 -4.7561592e-01 -6.3698834e-02 -3.1627455e-01 6.1390402e-02 2.7911307e-02 5.2099190e-01 3.7131872e-01 -1.7195406e-01 -4.3507858e-01 -3.2323563e-01 -3.5177413e-01 -2.8850517e-01 -1.3907744e-01 -5.3509993e-02 -1.7661646e-01 -4.6985012e-01 2.2207146e-01 1.5677255e+00 -5.4401117e-01 -1.6248432e-02 -3.5909130e-01 1.4256567e-01 2.8916760e-03 6.3330883e-01 2.8597159e-01 -6.9417839e-02 -4.8726836e-01 -1.5776989e-01 -4.1195622e-01 -7.3226234e-02 -3.6313051e-01 1.7197173e-01 -1.3773757e-01 7.5373243e-02 -6.0360912e-01 7.4891344e-01 1.2877347e+00 -4.2337878e-01 -2.5273711e-02 -1.7057982e-01 9.4250085e-02 1.7759700e-01 5.6310617e-01 4.0885444e-01 -2.0732729e-01 -2.3621699e-01 -2.5005747e-01 -1.4958715e-01 -1.6989911e-01 -8.4129325e-02 -1.4322465e-01 -3.0025207e-02 -1.1549953e-01 -5.4717677e-03 -8.2557811e-02 3.4451865e-02 -3.4265093e-02 8.8553177e-02 -1.5373574e-03 2.2482679e-01 2.1220567e-01 2.4897606e-01 -2.0990554e-02 3.2156191e-01 1.8199969e+00 1.7955607e-01 8.0986144e-02 1.4985151e-01 2.0228189e-01 3.4111244e-01 5.2268477e-01 7.8256923e-01 2.8183919e-01 -4.3286030e-02 -9.8055726e-02 2.3154597e-02 -6.8528958e-02 5.5313359e-02 -6.7141868e-02 3.9642173e-02 -6.5756691e-02 6.7089547e-02 -8.2652605e-02 1.4485822e-01 -9.0672790e-02 3.1345782e-01 3.4825881e-02 2.7340071e-01 -3.1556617e-01 1.1571941e+00 1.2930127e+00 -2.0867414e-01 2.3186734e-01 1.3316377e-02 3.0716375e-01 3.3872060e-01 7.5598074e-01 5.6267055e-01 -4.4100672e-02 -2.2439525e-01 -1.7613140e-01 -1.3951708e-01 -1.3885304e-01 -1.1785544e-01 -1.2884724e-01 -8.7331762e-02 -9.4291725e-02 -2.7187859e-02 -6.1894124e-02 1.9918175e-01 -1.6725741e-02 6.9638446e-02 -3.0293507e-01 1.6023412e+00 5.2048654e-01 -2.3668263e-01 5.0241830e-02 -3.8365353e-02 2.0865113e-01 3.3325383e-01 6.9189153e-01 2.4865174e-01 -3.0215356e-01 -3.5221507e-01 -3.1253568e-01 -2.8900911e-01 -2.4074285e-01 -2.4110519e-01 -2.3980825e-01 -2.0298234e-01 -2.3241497e-01 -1.6583245e-01 -2.0404145e-01 -1.2134186e-01 -1.9641273e-01 1.8099424e-02 -5.1958762e-02 1.3928712e-02 -3.5449814e-01 4.3528959e-01 1.5556269e+00 -3.1248699e-01 4.2636677e-02 -1.5901112e-01 1.3455103e-01 1.0389585e-01 5.4601316e-01 5.3592626e-01 1.8880216e-02 -3.9091178e-01 -2.4748193e-01 -3.2148205e-01 -1.8721295e-01 -2.5991650e-01 -1.6241261e-01 -2.3166263e-01 -1.3181709e-01 -2.0081726e-01 -1.0472233e-01 -1.6571079e-01 -5.2931992e-02 -1.3788183e-01 -1.0817744e-02 -6.7281307e-02 1.6205143e-01 -5.0953342e-02 7.6701567e-02 -2.0252568e-01 1.6797029e+00 4.0658027e-01 -1.0130132e-01 9.5266225e-02 8.8353251e-02 2.6262604e-01 4.2896306e-01 7.7082874e-01 3.8291640e-01 -1.6326223e-01 -2.0652750e-01 -1.9064631e-01 -1.3628220e-01 -1.3452523e-01 -1.1399558e-01 -1.1490875e-01 -9.8956506e-02 -1.0202211e-01 -7.5721940e-02 -7.8646561e-02 -6.0449300e-02 -4.8234915e-02 1.0084692e-01 -3.4434975e-02 5.6322782e-02 -1.6781564e-01 1.6270777e+00 4.4554425e-01 -1.5225244e-01 1.1791413e-01 -1.4196539e-03 2.6955763e-01 3.3816370e-01 7.9265423e-01 3.0857635e-01 -2.0596757e-01 -3.0042525e-01 -2.1479309e-01 -2.1923999e-01 -1.4840071e-01 -1.8262611e-01 -1.0020393e-01 -1.6361373e-01 -4.6818128e-02 -1.2954452e-01 -1.8166852e-02 -1.0634806e-01 9.5345356e-02 9.4408272e-02 8.8130748e-02 -1.6649190e-01 1.5287889e-01 1.6856516e+00 -2.8699247e-02 -6.5492806e-02 -4.7877700e-02 4.8473532e-02 1.6402061e-01 4.0793349e-01 6.6662145e-01 6.3708612e-02 -3.8410252e-01 -4.6691148e-01 -4.0863280e-01 -4.2777051e-01 -3.7060583e-01 -4.6509039e-01 -3.8025823e-01 -4.9101707e-01 -4.1023429e-01 -5.0995103e-01 -2.5804493e-01 -3.9104330e-01 -2.9057213e-01 -7.4063836e-01 1.3058566e-01 1.0926812e+00 -6.8564629e-01 -3.2052369e-01 -5.0875017e-01 -2.4735256e-01 -2.0583629e-01 1.8543854e-01 2.2524065e-01 -3.6501218e-01 -7.3964664e-01 -6.1760070e-01 -6.1817593e-01 -5.3480718e-01 -4.9649449e-01 -4.9107823e-01 -4.3736091e-01 -4.4008286e-01 -3.7667667e-01 -3.7346693e-01 -9.4119270e-02 -2.9092490e-01 -1.6844071e-01 -6.0078446e-01 1.1463280e+00 4.9241368e-01 -5.3763746e-01 -7.6434323e-02 -2.9675185e-01 5.7860911e-02 5.9279872e-02 5.6831975e-01 1.4257475e-01 -3.4557352e-01 -5.2387101e-01 -3.7627464e-01 -4.4323125e-01 -3.1503616e-01 -4.0137423e-01 -2.8794926e-01 -3.4096366e-01 -2.8229623e-01 -2.4814660e-01 -5.1258185e-02 -2.5172408e-01 -2.7038901e-01 -3.0406109e-01 1.4967367e+00 -1.6891535e-01 -2.6155958e-01 -2.6140776e-01 -1.0343880e-01 -4.4389186e-02 2.6838939e-01 4.5080683e-01 2.7900499e-02 -5.3529921e-01 -4.2283496e-01 -5.3123532e-01 -3.5141407e-01 -4.8515509e-01 -3.2509375e-01 -4.6035623e-01 -2.8706170e-01 -4.3310741e-01 -5.4203883e-03 -3.3369063e-01 -1.0033346e-01 -6.4681919e-01 1.1169494e+00 6.9796391e-01 -5.1795563e-01 -7.3150942e-02 -2.2753861e-01 8.1859055e-02 1.1164390e-01 5.9026015e-01 2.6687794e-01 -2.6689095e-01 -4.2615378e-01 -2.9986499e-01 -3.3273943e-01 -2.0095875e-01 -3.0216152e-01 -1.6074321e-01 -2.6592316e-01 6.1617566e-02 -8.5013841e-02 -2.0421504e-02 -4.6467772e-01 3.2742093e-01 1.4505055e+00 -3.3340791e-01 2.0275784e-02 -1.3965979e-01 1.3953653e-01 1.6144834e-01 5.8538085e-01 5.5204053e-01 2.0907135e-02 -3.2102397e-01 -1.9622029e-01 -2.5204487e-01 -1.3238819e-01 -2.1444958e-01 -9.7462196e-02 -1.8668607e-01 -5.7136359e-02 -1.0331247e-01 2.2838320e-01 -5.5925167e-02 8.2851441e-02 -3.2325633e-01 1.5990137e+00 5.9038641e-01 -1.9005702e-01 1.4383191e-01 5.7933958e-02 3.2722518e-01 4.3622341e-01 8.3679447e-01 4.1612029e-01 -7.1226342e-02 -1.4336843e-01 -6.3734549e-02 -7.0147667e-02 -1.9657051e-02 -5.5385099e-02 3.2079248e-02 -2.9031671e-02 6.6748715e-02 9.6210580e-02 3.1004394e-01 1.1110627e-01 8.8190935e-02 -7.3735343e-02 1.8458888e+00 4.0312901e-01 -9.5097150e-03 1.5869932e-01 1.8014881e-01 3.4213768e-01 5.3151809e-01 8.2363576e-01 3.6470931e-01 -1.2059866e-01 -1.1299547e-01 -1.2347243e-01 -3.6420566e-02 -8.4578612e-02 -3.6370935e-02 -5.9790551e-02 -1.6516525e-02 -5.0667202e-02 6.6751229e-03 1.8155584e-02 2.8791154e-01 1.5477015e-02 1.0435650e-01 -2.6282163e-01 1.5991057e+00 5.5066278e-01 -1.9061061e-01 1.2220771e-01 3.5984014e-02 2.5803826e-01 3.4803622e-01 7.4235769e-01 3.5008049e-01 -1.6058751e-01 -2.2868586e-01 -1.8041742e-01 -1.5194486e-01 -1.4735856e-01 -1.2415083e-01 -1.4697537e-01 -9.4306707e-02 -1.4954774e-01 -6.4504898e-02 -9.9623309e-02 1.8980592e-01 -4.8408819e-02 1.1061458e-01 -3.8051216e-01 1.4335281e+00 8.0754268e-01 -2.9618570e-01 1.5336584e-01 -5.7127765e-02 2.7440909e-01 2.9626559e-01 7.5677518e-01 4.0171923e-01 -1.1910749e-01 -2.6228417e-01 -1.7088216e-01 -1.7301189e-01 -1.4160519e-01 -1.2774128e-01 -1.2792566e-01 -7.5099896e-02 -1.0303869e-01 1.4208315e-01 4.2019024e-02 1.0618362e-01 -2.9733260e-01 7.9406816e-01 1.4722546e+00 -3.3771780e-01 2.2863562e-01 -1.1926934e-01 3.3781764e-01 1.9743578e-01 7.9350192e-01 5.4135893e-01 7.8615299e-02 -3.3340760e-01 -9.5729101e-02 -2.6423983e-01 -4.5500185e-02 -2.4102559e-01 -3.5798107e-02 -2.1287111e-01 -1.4221427e-02 -2.0003268e-01 9.7445768e-02 1.1147886e-02 8.3950139e-02 -2.2858013e-01 8.5912052e-02 1.6293808e+00 3.4896559e-02 -1.1751105e-01 2.3749083e-02 1.3676145e-02 2.1452926e-01 3.8043920e-01 7.1641872e-01 7.0050601e-02 -2.3778295e-01 -3.4272213e-01 -1.7645589e-01 -2.9121601e-01 -1.2558154e-01 -2.7971062e-01 -8.9649247e-02 -2.5871040e-01 -5.3899220e-02 -2.3684466e-01 1.7185110e-01 -1.3243053e-01 1.1208485e-01 -5.0315558e-01 9.3257060e-01 1.1064298e+00 -3.7256811e-01 4.5317028e-02 -1.1285115e-01 1.3293118e-01 1.9403095e-01 5.8068084e-01 4.6810240e-01 -1.3609153e-01 -3.3330791e-01 -2.9732646e-01 -2.5444910e-01 -2.4713534e-01 -2.2178375e-01 -2.3393412e-01 -2.0428785e-01 -2.0717870e-01 -1.5874128e-01 -1.4708765e-01 9.4842500e-02 -1.2956850e-01 -5.0691515e-02 -3.1469769e-01 1.6102120e+00 2.8243115e-01 -2.4261005e-01 -9.0811499e-03 -3.6452477e-02 1.6223177e-01 3.3498843e-01 6.6393485e-01 2.5853740e-01 -2.9639675e-01 -2.7611934e-01 -2.9020228e-01 -1.9635771e-01 -2.5222369e-01 -1.5975407e-01 -2.2898618e-01 -1.1978277e-01 -1.9699912e-01 1.0229774e-02 2.5868069e-02 7.5611469e-03 -2.2819481e-01 7.8910415e-02 1.6728879e+00 -4.9761102e-02 -8.1219277e-02 -3.2876557e-02 6.8193148e-02 2.1575981e-01 4.9469436e-01 6.9744769e-01 1.3184035e-01 -2.6731734e-01 -2.6468110e-01 -2.0251509e-01 -2.1815501e-01 -1.5284202e-01 -2.1275063e-01 -1.2025640e-01 -2.0139410e-01 -8.1004213e-02 -1.8638404e-01 1.6262482e-01 -1.0877260e-01 8.8946806e-02 -4.5822622e-01 1.2300754e+00 9.3614023e-01 -3.6175352e-01 1.1933101e-01 -9.6559541e-02 2.4969568e-01 2.4020377e-01 7.1702147e-01 4.1359375e-01 -9.4186488e-02 -3.4016512e-01 -1.8518075e-01 -2.6754069e-01 -1.3178677e-01 -2.4946113e-01 -1.2291746e-01 -2.3715506e-01 -7.7131782e-02 -2.2463621e-01 1.3600321e-01 -1.1029737e-01 6.6165651e-02 -4.8623118e-01 9.6079481e-01 1.0681303e+00 -4.2693924e-01 8.1250306e-02 -1.7627633e-01 2.0769135e-01 1.1289209e-01 6.7485111e-01 3.3961339e-01 -9.3714473e-02 -4.4738678e-01 -2.3183097e-01 -3.6354625e-01 -1.7461743e-01 -3.4397821e-01 -1.5161981e-01 -3.2715604e-01 -9.2277056e-02 -3.3687225e-01 1.0239185e-01 -1.8209072e-01 4.3035617e-02 -5.1545243e-01 6.6182478e-01 1.2728030e+00 -3.8339308e-01 -3.1140289e-02 -1.6200330e-01 6.1326371e-02 1.5212835e-01 4.9174562e-01 5.0674550e-01 -1.3449300e-01 -3.5149616e-01 -3.1461158e-01 -2.7609088e-01 -2.7107128e-01 -2.1213044e-01 -2.8131798e-01 -1.4046680e-01 -2.6282911e-01 9.2217059e-02 -1.3829050e-01 4.2384893e-02 -5.0639272e-01 9.2907987e-01 1.1187512e+00 -3.9511851e-01 9.0337624e-02 -1.6589900e-01 2.2187903e-01 1.8643412e-01 6.8287502e-01 4.4999616e-01 -1.2528919e-01 -3.4079525e-01 -2.4165820e-01 -2.6582659e-01 -1.8552881e-01 -2.5121456e-01 -1.6766063e-01 -1.9519978e-01 -8.8347020e-02 5.5680942e-02 -8.0156924e-02 -1.2530379e-01 -2.1169755e-01 1.6703571e+00 2.3518069e-01 -1.8481633e-01 7.9438735e-03 -4.5094417e-03 2.1534871e-01 3.8972468e-01 7.1677077e-01 1.5790959e-01 -2.6852906e-01 -2.9920559e-01 -2.5445604e-01 -2.2307659e-01 -2.1130379e-01 -1.9803969e-01 -1.8055977e-01 -1.5440669e-01 -4.8457418e-02 1.0323753e-01 -5.8875553e-02 -1.3033208e-01 -1.8542995e-01 1.6899052e+00 1.7948791e-01 -1.7270484e-01 3.7509159e-03 3.0177546e-02 2.1660397e-01 4.3034867e-01 7.1311797e-01 1.9733210e-01 -2.4392478e-01 -2.3409169e-01 -2.0626092e-01 -1.5878412e-01 -1.5832954e-01 -1.2793197e-01 -1.5856072e-01 -9.5385157e-02 -1.6656338e-01 3.6690771e-02 3.0097352e-02 1.6077845e-02 -2.2564185e-01 1.7780668e-01 1.6989322e+00 -1.2140324e-01 1.9933490e-02 -3.6081896e-02 1.4457858e-01 1.8641728e-01 5.3764799e-01 6.4073685e-01 1.4678420e-01 -3.0310655e-01 -1.9246700e-01 -2.3788884e-01 -1.4295444e-01 -1.9427056e-01 -1.4839847e-01 -1.7731919e-01 -3.4381354e-02 7.7547715e-02 -6.8777480e-02 -1.3689329e-01 -2.2991161e-01 1.7985942e+00 2.4738916e-01 -2.3557887e-01 -4.9036690e-03 -2.6305130e-02 1.8941414e-01 3.6514332e-01 6.8731856e-01 1.3591624e-01 -2.6693959e-01 -3.1011684e-01 -2.3751607e-01 -2.2684699e-01 -1.7364939e-01 -1.8689684e-01 -1.1760485e-01 -1.2460536e-01 1.3770773e-01 -1.2033239e-01 -5.3343512e-02 -3.3527405e-01 1.6811852e+00 4.1974879e-01 -2.7881487e-01 5.1950499e-02 -7.0870887e-02 2.5213405e-01 3.5377328e-01 7.5706269e-01 1.7088825e-01 -2.0676484e-01 -3.3120591e-01 -2.0787908e-01 -2.6747807e-01 -1.2918818e-01 -2.4504219e-01 -8.3252071e-02 -2.3499718e-01 1.7677737e-01 -1.1577571e-01 5.2279058e-02 -5.3573804e-01 8.9829117e-01 1.2226604e+00 -4.3878613e-01 4.1860263e-02 -2.1502374e-01 1.2615759e-01 1.2897564e-01 5.6646381e-01 3.5504276e-01 -2.3148288e-01 -4.3138173e-01 -3.6275377e-01 -3.4957948e-01 -3.2947793e-01 -3.1808702e-01 -3.3158619e-01 -2.8945690e-01 -3.4047927e-01 -7.4433660e-02 -2.0689513e-01 -1.7835401e-01 -5.8616982e-01 2.8851619e-01 1.4479553e+00 -5.1480638e-01 -9.4084678e-02 -3.4658535e-01 -2.1593237e-03 -7.6775566e-02 4.1486373e-01 2.7404855e-01 -1.9341830e-01 -5.3882633e-01 -3.9753597e-01 -4.4939488e-01 -3.3961875e-01 -4.1374515e-01 -3.2430161e-01 -3.9397677e-01 -2.9690026e-01 -3.5176277e-01 -2.0118401e-01 -8.2207616e-02 -1.7349680e-01 -2.3738093e-01 -3.7498084e-01 1.4499386e+00 1.8053540e-01 -4.1339528e-01 -9.7705799e-02 -2.3538187e-01 9.2645446e-02 1.3096946e-01 5.7949265e-01 -5.4769400e-03 -3.3073244e-01 -4.6483386e-01 -3.0046167e-01 -3.8699170e-01 -2.4229988e-01 -3.6436123e-01 -1.9932913e-01 -3.4938343e-01 -1.2551245e-01 -3.2762677e-01 8.2074036e-02 -1.9241405e-01 5.8553140e-02 -5.2168842e-01 7.6286920e-01 1.2192194e+00
7.2607848e+01 7.2586414e+01 7.2564980e+01 7.2543546e+01 7.2522112e+01 7.2500678e+01 7.2479245e+01 7.2457811e+01 7.2436377e+01 7.2414943e+01 7.2393509e+01 7.2372075e+01 7.2350641e+01 7.2329207e+01 7.2307774e+01 7.2286340e+01 7.2264906e+01 7.2243472e+01 7.2222038e+01 7.2200604e+01 7.2179170e+01 7.2157736e+01 7.2136303e+01 7.2114869e+01 7.2093435e+01 7.2072001e+01 7.2050567e+01 7.2029133e+01 7.2007699e+01 7.1986265e+01 7.1964832e+01 7.1943398e+01 7.1921964e+01 7.1900530e+01 7.1879096e+01 7.1857662e+01 7.1836228e+01 7.1814794e+01 7.1793361e+01 7.1771927e+01 7.1750493e+01 7.1729059e+01 7.1707625e+01 7.1686191e+01 7.1664757e+01 7.1643323e+01 7.1621890e+01 7.1600456e+01 7.1579022e+01 7.1557588e+01 7.1536154e+01 7.1514720e+01 7.1493286e+01 7.1471852e+01 7.1450419e+01 7.1428985e+01 7.1407551e+01 7.1386117e+01 7.1364683e+01 7.1343249e+01 7.1321815e+01 7.1300381e+01 7.1278948e+01 7.1257514e+01 7.1236080e+01 7.1214646e+01 7.1193212e+01 7.1171778e+01 7.1150344e+01 7.1128910e+01 7.1107477e+01 7.1086043e+01 7.1064609e+01 7.1043175e+01 7.1021741e+01 7.1000307e+01 7.0978873e+01 7.0957439e+01 7.0936006e+01 7.0914572e+01 7.0893138e+01 7.0871704e+01 7.0850270e+01 7.0828836e+01 7.0807402e+01 7.0785968e+01 7.0764535e+01 7.0743101e+01 7.0721667e+01 7.0700233e+01 7.0678799e+01 7.0657365e+01 7.0635931e+01 7.0614497e+01 7.0593064e+01 7.0571630e+01 7.0550196e+01 7.0528762e+01 7.0507328e+01 7.0485894e+01 7.0464460e+01 7.0443026e+01 7.0421593e+01 7.0400159e+01 7.0378725e+01 7.0357291e+01 7.0335857e+01 7.0314423e+01 7.0292989e+01 7.0271555e+01 7.0250122e+01 7.0228688e+01 7.0207254e+01 7.0185820e+01 7.0164386e+01 7.0142952e+01 7.0121518e+01 7.0100084e+01 7.0078651e+01 7.0057217e+01 7.0035783e+01 7.0014349e+01 6.9992915e+01 6.9971481e+01 6.9950047e+01 6.9928613e+01 6.9907180e+01 6.9885746e+01 6.9864312e+01 6.9842878e+01 6.9821444e+01 6.9800010e+01 6.9778576e+01 6.9757142e+01 6.9735709e+01 6.9714275e+01 6.9692841e+01 6.9671407e+01 6.9649973e+01 6.9628539e+01 6.9607105e+01 6.9585671e+01 6.9564238e+01 6.9542804e+01 6.9521370e+01 6.9499936e+01 6.9478502e+01 6.9457068e+01 6.9435634e+01 6.9414200e+01 6.9392767e+01 6.9371333e+01 6.9349899e+01 6.9328465e+01 6.9307031e+01 6.9285597e+01 6.9264163e+01 6.9242729e+01 6.9221296e+01 6.9199862e+01 6.9178428e+01 6.9156994e+01 6.9135560e+01 6.9114126e+01 6.9092692e+01 6.9071258e+01 6.9049824e+01 6.9028391e+01 6.9006957e+01 6.8985523e+01 6.8964089e+01 6.8942655e+01 6.8921221e+01 6.8899787e+01 6.8878353e+01 6.8856920e+01 6.8835486e+01 6.8814052e+01 6.8792618e+01 6.8771184e+01 6.8749750e+01 6.8728316e+01 6.8706882e+01 6.8685449e+01 6.8664015e+01 6.8642581e+01 6.8621147e+01 6.8599713e+01 6.8578279e+01 6.8556845e+01 6.8535411e+01 6.8513978e+01 6.8492544e+01 6.8471110e+01 6.8449676e+01 6.8428242e+01 6.8406808e+01 6.8385374e+01 6.8363940e+01 6.8342507e+01 6.8321073e+01 6.8299639e+01 6.8278205e+01 6.8256771e+01 6.8235337e+01 6.8213903e+01 6.8192469e+01 6.8171036e+01 6.8149602e+01 6.8128168e+01 6.8106734e+01 6.8085300e+01 6.8063866e+01 6.8042432e+01 6.8020998e+01 6.7999565e+01 6.7978131e+01 6.7956697e+01 6.7935263e+01 6.7913829e+01 6.7892395e+01 6.7870961e+01 6.7849527e+01 6.7828094e+01 6.7806660e+01 6.7785226e+01 6.7763792e+01 6.7742358e+01 6.7720924e+01 6.7699490e+01 6.7678056e+01 6.7656623e+01 6.7635189e+01 6.7613755e+01 6.7592321e+01 6.7570887e+01 6.7549453e+01 6.7528019e+01 6.7506585e+01 6.7485152e+01 6.7463718e+01 6.7442284e+01 6.7420850e+01 6.7392877e+01 6.7359341e+01 6.7325805e+01 6.7292268e+01 6.7258732e+01 6.7225195e+01 6.7191659e+01 6.7158123e+01 6.7124586e+01 6.7091050e+01 6.7057513e+01 6.7023977e+01 6.6990441e+01 6.6956904e+01 6.6923368e+01 6.6889831e+01 6.6856295e+01 6.6822759e+01 6.6789222e+01 6.6755686e+01 6.6722149e+01 6.6688613e+01 6.6655077e+01 6.6621540e+01 6.6588004e+01 6.6554468e+01 6.6520931e+01 6.6487395e+01 6.6453722e+01 6.6411444e+01 6.6369166e+01 6.6326888e+01 6.6284610e+01 6.6242333e+01 6.6200055e+01 6.6157777e+01 6.6115499e+01 6.6073221e+01 6.6030943e+01 6.5988665e+01 6.5946388e+01 6.5904110e+01 6.5861832e+01 6.5819554e+01 6.5777276e+01 6.5734998e+01 6.5692720e+01 6.5650443e+01 6.5608165e+01 6.5565887e+01 6.5523609e+01 6.5481331e+01 6.5439053e+01 6.5396775e+01 6.5354498e+01 6.5312220e+01 6.5269942e+01 6.5244480e+01 6.5236455e+01 6.5228430e+01 6.5220405e+01 6.5212379e+01 6.5204354e+01 6.5196329e+01 6.5188304e+01 6.5180279e+01 6.5172254e+01 6.5164229e+01 6.5156204e+01 6.5148179e+01 6.5140153e+01 6.5132128e+01 6.5124103e+01 6.5116078e+01 6.5108053e+01 6.5100028e+01 6.5092003e+01 6.5083978e+01 6.5075952e+01 6.5067927e+01 6.5059902e+01 6.5051877e+01 6.5043852e+01 6.5035827e+01 6.5027802e+01 6.5019777e+01 6.5026690e+01 6.5034124e+01 6.5041558e+01 6.5048993e+01 6.5056427e+01 6.5063862e+01 6.5071296e+01 6.5078731e+01 6.5086165e+01 6.5093600e+01 6.5101034e+01 6.5108469e+01 6.5115903e+01 6.5123338e+01 6.5130772e+01 6.5138207e+01 6.5145641e+01 6.5153076e+01 6.5160510e+01 6.5167945e+01 6.5175379e+01 6.5182814e+01 6.5190248e+01 6.5197683e+01 6.5205117e+01 6.5212552e+01 6.5219986e+01 6.5227421e+01 6.5234288e+01 6.5240437e+01 6.5246586e+01 6.5252735e+01 6.5258884e+01 6.5265034e+01 6.5271183e+01 6.5277332e+01 6.5283481e+01 6.5289631e+01 6.5295780e+01 6.5301929e+01 6.5308078e+01 6.5314227e+01 6.5320377e+01 6.5326526e+01 6.5332675e+01 6.5338824e+01 6.5344974e+01 6.5351123e+01 6.5357272e+01 6.5363421e+01 6.5369570e+01 6.5375720e+01 6.5381869e+01 6.5388018e+01 6.5394167e+01 6.5400317e+01 6.5406466e+01 6.5405755e+01 6.5404423e+01 6.5403090e+01 6.5401758e+01 6.5400426e+01 6.5399093e+01 6.5397761e+01 6.5396429e+01 6.5395096e+01 6.5393764e+01 6.5392431e+01 6.5391099e+01 6.5389767e+01 6.5388434e+01 6.5387102e+01 6.5385770e+01 6.5384437e+01 6.5383105e+01 6.5381773e+01 6.5380440e+01 6.5379108e+01 6.5377775e+01 6.5376443e+01 6.5375111e+01 6.5373778e+01 6.5372446e+01 6.5371114e+01 6.5369781e+01 6.5375217e+01 6.5391140e+01 6.5407062e+01 6.5422985e+01 6.5438907e+01 6.5454829e+01 6.5470752e+01 6.5486674e+01 6.5502597e+01 6.5518519e+01 6.5534442e+01 6.5550364e+01 6.5566287e+01 6.5582209e+01 6.5598132e+01 6.5614054e+01 6.5629977e+01 6.5645899e+01 6.5661822e+01 6.5677744e+01 6.5693667e+01 6.5709589e+01 6.5725512e+01 6.5741434e+01 6.5757357e+01 6.5773279e+01 6.5789202e+01 6.5805124e+01 6.5821047e+01 6.5853468e+01 6.5888407e+01 6.5923347e+01 6.5958287e+01 6.5993226e+01 6.6028166e+01 6.6063105e+01 6.6098045e+01 6.6132984e+01 6.6167924e+01 6.6202864e+01 6.6237803e+01 6.6272743e+01 6.6307682e+01 6.6342622e+01 6.6377562e+01 6.6412501e+01 6.6447441e+01 6.6482380e+01 6.6517320e+01 6.6552259e+01 6.6587199e+01 6.6622139e+01 6.6657078e+01 6.6692018e+01 6.6726957e+01 6.6761897e+01 6.6796837e+01 6.6820691e+01 6.6823303e+01 6.6825914e+01 6.6828526e+01 6.6831138e+01 6.6833749e+01 6.6836361e+01 6.6838973e+01 6.6841584e+01 6.6844196e+01 6.6846808e+01 6.6849420e+01 6.6852031e+01 6.6854643e+01 6.6857255e+01 6.6859866e+01 6.6862478e+01 6.6865090e+01 6.6867701e+01 6.6870313e+01 6.6872925e+01 6.6875536e+01 6.6878148e+01 6.6880760e+01 6.6883372e+01 6.6885983e+01 6.6888595e+01 6.6891207e+01 6.6893818e+01 6.6892156e+01 6.6889544e+01 6.6886933e+01 6.6884321e+01 6.6881709e+01 6.6879098e+01 6.6876486e+01 6.6873874e+01 6.6871263e+01 6.6868651e+01 6.6866039e+01 6.6863427e+01 6.6860816e+01 6.6858204e+01 6.6855592e+01 6.6852981e+01 6.6850369e+01 6.6847757e+01 6.6845146e+01 6.6842534e+01 6.6839922e+01 6.6837311e+01 6.6834699e+01 6.6832087e+01 6.6829475e+01 6.6826864e+01 6.6824252e+01 6.6821640e+01 6.6814027e+01 6.6794377e+01 6.6774728e+01 6.6755078e+01 6.6735428e+01 6.6715779e+01 6.6696129e+01 6.6676479e+01 6.6656830e+01 6.6637180e+01 6.6617530e+01 6.6597881e+01 6.6578231e+01 6.6558581e+01 6.6538932e+01 6.6519282e+01 6.6499632e+01 6.6479983e+01 6.6460333e+01 6.6440683e+01 6.6421034e+01 6.6401384e+01 6.6381734e+01 6.6362084e+01 6.6342435e+01 6.6322785e+01 6.6303135e+01 6.6283486e+01 6.6263836e+01 6.6275750e+01 6.6297151e+01 6.6318552e+01 6.6339953e+01 6.6361354e+01 6.6382755e+01 6.6404156e+01 6.6425557e+01 6.6446958e+01 6.6468359e+01 6.6489760e+01 6.6511161e+01 6.6532562e+01 6.6553963e+01 6.6575364e+01 6.6596765e+01 6.6618166e+01 6.6639567e+01 6.6660968e+01 6.6682369e+01 6.6703771e+01 6.6725172e+01 6.6746573e+01 6.6767974e+01 6.6789375e+01 6.6810776e+01 6.6832177e+01 6.6853578e+01 6.6877155e+01 6.6907468e+01 6.6937782e+01 6.6968095e+01 6.6998408e+01 6.7028721e+01 6.7059034e+01 6.7089347e+01 6.7119660e+01 6.7149973e+01 6.7180287e+01 6.7210600e+01 6.7240913e+01 6.7271226e+01 6.7301539e+01 6.7331852e+01 6.7362165e+01 6.7392478e+01 6.7422792e+01 6.7453105e+01 6.7483418e+01 6.7513731e+01 6.7544044e+01 6.7574357e+01 6.7604670e+01 6.7634984e+01 6.7665297e+01 6.7695610e+01 6.7725923e+01 6.7757641e+01 6.7789907e+01 6.7822173e+01 6.7854438e+01 6.7886704e+01 6.7918970e+01 6.7951236e+01 6.7983501e+01 6.8015767e+01 6.8048033e+01 6.8080299e+01 6.8112564e+01 6.8144830e+01 6.8177096e+01 6.8209362e+01 6.8241628e+01 6.8273893e+01 6.8306159e+01 6.8338425e+01 6.8370691e+01 6.8402956e+01 6.8435222e+01 6.8467488e+01 6.8499754e+01 6.8532019e+01 6.8564285e+01 6.8596551e+01 6.8628817e+01 6.8662881e+01 6.8704379e+01 6.8745877e+01 6.8787374e+01 6.8828872e+01 6.8870369e+01 6.8911867e+01 6.8953364e+01 6.8994862e+01 6.9036359e+01 6.9077857e+01 6.9119354e+01 6.9160852e+01 6.9202349e+01 6.9243847e+01 6.9285344e+01 6.9326842e+01 6.9368339e+01 6.9409837e+01 6.9451334e+01 6.9492832e+01 6.9534330e+01 6.9575827e+01 6.9617325e+01 6.9658822e+01 6.9700320e+01 6.9741817e+01 6.9783315e+01 6.9824812e+01 6.9862971e+01 6.9899487e+01 6.9936002e+01 6.9972518e+01 7.0009033e+01 7.0045549e+01 7.0082065e+01 7.0118580e+01 7.0155096e+01 7.0191611e+01 7.0228127e+01 7.0264643e+01 7.0301158e+01 7.0337674e+01 7.0374190e+01 7.0410705e+01 7.0447221e+01 7.0483736e+01 7.0520252e+01 7.0556768e+01 7.0593283e+01 7.0629799e+01 7.0666315e+01 7.0702830e+01 7.0739346e+01 7.0775861e+01 7.0812377e+01 7.0848893e+01 7.0882270e+01 7.0897220e+01 7.0912170e+01 7.0927121e+01 7.0942071e+01 7.0957021e+01 7.0971971e+01 7.0986921e+01 7.1001872e+01 7.1016822e+01 7.1031772e+01 7.1046722e+01 7.1061672e+01 7.1076623e+01 7.1091573e+01 7.1106523e+01 7.1121473e+01 7.1136423e+01 7.1151374e+01 7.1166324e+01 7.1181274e+01 7.1196224e+01 7.1211174e+01 7.1226124e+01 7.1241075e+01 7.1256025e+01 7.1270975e+01 7.1285925e+01 7.1300875e+01 7.1314443e+01 7.1327167e+01 7.1339890e+01 7.1352614e+01 7.1365337e+01 7.1378061e+01 7.1390784e+01 7.1403508e+01 7.1416231e+01 7.1428955e+01 7.1441678e+01 7.1454402e+01 7.1467125e+01 7.1479849e+01 7.1492572e+01 7.1505296e+01 7.1518019e+01 7.1530743e+01 7.1543466e+01 7.1556189e+01 7.1568913e+01 7.1581636e+01 7.1594360e+01 7.1607083e+01 7.1619807e+01 7.1632530e+01 7.1645254e+01 7.1657977e+01 7.1670552e+01 7.1681723e+01 7.1692895e+01 7.1704066e+01 7.1715238e+01 7.1726410e+01 7.1737581e+01 7.1748753e+01 7.1759924e+01 7.1771096e+01 7.1782268e+01 7.1793439e+01 7.1804611e+01 7.1815782e+01 7.1826954e+01 7.1838125e+01 7.1849297e+01 7.1860469e+01 7.1871640e+01 7.1882812e+01 7.1893983e+01 7.1905155e+01 7.1916327e+01 7.1927498e+01 7.1938670e+01 7.1949841e+01 7.1961013e+01 7.1972185e+01 7.1983356e+01 7.1994893e+01 7.2006704e+01 7.2018514e+01 7.2030325e+01 7.2042135e+01 7.2053946e+01 7.2065757e+01 7.2077567e+01 7.2089378e+01 7.2101188e+01 7.2112999e+01 7.2124810e+01 7.2136620e+01 7.2148431e+01 7.2160242e+01 7.2172052e+01 7.2183863e+01 7.2195673e+01 7.2207484e+01 7.2219295e+01 7.2231105e+01 7.2242916e+01 7.2254727e+01 7.2266537e+01 7.2278348e+01 7.2290158e+01 7.2301969e+01 7.2313780e+01 7.2325341e+01 7.2331830e+01 7.2338319e+01 7.2344808e+01 7.2351297e+01 7.2357785e+01 7.2364274e+01 7.2370763e+01 7.2377252e+01 7.2383741e+01 7.2390230e+01 7.2396719e+01 7.2403208e+01 7.2409696e+01 7.2416185e+01 7.2422674e+01 7.2429163e+01 7.2435652e+01 7.2442141e+01 7.2448630e+01 7.2455118e+01 7.2461607e+01 7.2468096e+01 7.2474585e+01 7.2481074e+01 7.2487563e+01 7.2494052e+01 7.2500541e+01 7.2507029e+01 7.2517791e+01 7.2532462e+01 7.2547133e+01 7.2561805e+01 7.2576476e+01 7.2591147e+01 7.2605819e+01 7.2620490e+01 7.2635161e+01 7.2649833e+01 7.2664504e+01 7.2679175e+01 7.2693847e+01 7.2708518e+01 7.2723189e+01 7.2737860e+01 7.2752532e+01 7.2767203e+01 7.2781874e+01 7.2796546e+01 7.2811217e+01 7.2825888e+01 7.2840560e+01 7.2855231e+01 7.2869902e+01 7.2884574e+01 7.2899245e+01 7.2913916e+01 7.2928588e+01 7.2951674e+01 7.2974782e+01 7.2997889e+01 7.3020997e+01 7.3044105e+01 7.3067213e+01 7.3090320e+01 7.3113428e+01 7.3136536e+01 7.3159643e+01 7.3182751e+01 7.3205859e+01 7.3228966e+01 7.3252074e+01 7.3275182e+01 7.3298290e+01 7.3321397e+01 7.3344505e+01 7.3367613e+01 7.3390720e+01 7.3413828e+01 7.3436936e+01 7.3460044e+01 7.3483151e+01 7.3506259e+01 7.3529367e+01 7.3552474e+01 7.3575582e+01 7.3596360e+01 7.3614541e+01 7.3632722e+01 7.3650903e+01 7.3669083e+01 7.3687264e+01 7.3705445e+01 7.3723626e+01 7.3741806e+01 7.3759987e+01 7.3778168e+01 7.3796349e+01 7.3814529e+01 7.3832710e+01 7.3850891e+01 7.3869072e+01 7.3887252e+01 7.3905433e+01 7.3923614e+01 7.3941795e+01 7.3959975e+01 7.3978156e+01 7.3996337e+01 7.4014518e+01 7.4032698e+01 7.4050879e+01 7.4069060e+01 7.4087241e+01 7.4105422e+01 7.4134857e+01 7.4164908e+01 7.4194959e+01 7.4225010e+01 7.4255061e+01 7.4285112e+01 7.4315163e+01 7.4345214e+01 7.4375265e+01 7.4405316e+01 7.4435367e+01 7.4465418e+01 7.4495469e+01 7.4525520e+01 7.4555571e+01 7.4585622e+01 7.4615673e+01 7.4645724e+01 7.4675775e+01 7.4705826e+01 7.4735877e+01 7.4765928e+01 7.4795979e+01 7.4826030e+01 7.4856081e+01 7.4886132e+01 7.4916183e+01 7.4946234e+01 7.4964564e+01 7.4966938e+01 7.4969312e+01 7.4971685e+01 7.4974059e+01 7.4976432e+01 7.4978806e+01 7.4981179e+01 7.4983553e+01 7.4985926e+01 7.4988300e+01 7.4990673e+01 7.4993047e+01 7.4995420e+01 7.4997794e+01 7.5000167e+01 7.5002541e+01 7.5004914e+01 7.5007288e+01 7.5009661e+01 7.5012035e+01 7.5014408e+01 7.5016782e+01 7.5019155e+01 7.5021529e+01 7.5023902e+01 7.5026276e+01 7.5028649e+01 7.5031023e+01 7.5024385e+01 7.5016732e+01 7.5009079e+01 7.5001426e+01 7.4993773e+01 7.4986120e+01 7.4978468e+01 7.4970815e+01 7.4963162e+01 7.4955509e+01 7.4947856e+01 7.4940203e+01 7.4932550e+01 7.4924897e+01 7.4917245e+01 7.4909592e+01 7.4901939e+01 7.4894286e+01 7.4886633e+01 7.4878980e+01 7.4871327e+01 7.4863675e+01 7.4856022e+01 7.4848369e+01 7.4840716e+01 7.4833063e+01 7.4825410e+01 7.4817757e+01 7.4808740e+01 7.4797439e+01 7.4786138e+01 7.4774837e+01 7.4763536e+01 7.4752236e+01 7.4740935e+01 7.4729634e+01 7.4718333e+01 7.4707032e+01 7.4695732e+01 7.4684431e+01 7.4673130e+01 7.4661829e+01 7.4650528e+01 7.4639228e+01 7.4627927e+01 7.4616626e+01 7.4605325e+01 7.4594024e+01 7.4582724e+01 7.4571423e+01 7.4560122e+01 7.4548821e+01 7.4537520e+01 7.4526219e+01 7.4514919e+01 7.4503618e+01 7.4492317e+01 7.4497115e+01 7.4504766e+01 7.4512416e+01 7.4520067e+01 7.4527718e+01 7.4535369e+01 7.4543020e+01 7.4550671e+01 7.4558322e+01 7.4565973e+01 7.4573624e+01 7.4581275e+01 7.4588926e+01 7.4596576e+01 7.4604227e+01 7.4611878e+01 7.4619529e+01 7.4627180e+01 7.4634831e+01 7.4642482e+01 7.4650133e+01 7.4657784e+01 7.4665435e+01 7.4673085e+01 7.4680736e+01 7.4688387e+01 7.4696038e+01 7.4703689e+01 7.4710166e+01 7.4714200e+01 7.4718235e+01 7.4722270e+01 7.4726304e+01 7.4730339e+01 7.4734374e+01 7.4738408e+01 7.4742443e+01 7.4746478e+01 7.4750513e+01 7.4754547e+01 7.4758582e+01 7.4762617e+01 7.4766651e+01 7.4770686e+01 7.4774721e+01 7.4778755e+01 7.4782790e+01 7.4786825e+01 7.4790860e+01 7.4794894e+01 7.4798929e+01 7.4802964e+01 7.4806998e+01 7.4811033e+01 7.4815068e+01 7.4819102e+01 7.4823137e+01 7.4816248e+01 7.4806630e+01 7.4797013e+01 7.4787395e+01 7.4777777e+01 7.4768159e+01 7.4758541e+01 7.4748923e+01 7.4739305e+01 7.4729687e+01 7.4720069e+01 7.4710451e+01 7.4700834e+01 7.4691216e+01 7.4681598e+01 7.4671980e+01 7.4662362e+01 7.4652744e+01 7.4643126e+01 7.4633508e+01 7.4623890e+01 7.4614272e+01 7.4604655e+01 7.4595037e+01 7.4585419e+01 7.4575801e+01 7.4566183e+01 7.4556565e+01 7.4553360e+01 7.4567025e+01 7.4580690e+01 7.4594355e+01 7.4608020e+01 7.4621685e+01 7.4635350e+01 7.4649015e+01 7.4662680e+01 7.4676345e+01 7.4690010e+01 7.4703675e+01 7.4717341e+01 7.4731006e+01 7.4744671e+01 7.4758336e+01 7.4772001e+01 7.4785666e+01 7.4799331e+01 7.4812996e+01 7.4826661e+01 7.4840326e+01 7.4853991e+01 7.4867656e+01 7.4881321e+01 7.4894986e+01 7.4908651e+01 7.4922316e+01 7.4935981e+01 7.4952222e+01 7.4969318e+01 7.4986415e+01 7.5003511e+01 7.5020607e+01 7.5037703e+01 7.5054799e+01 7.5071896e+01 7.5088992e+01 7.5106088e+01 7.5123184e+01 7.5140280e+01 7.5157376e+01 7.5174473e+01 7.5191569e+01 7.5208665e+01 7.5225761e+01 7.5242857e+01 7.5259954e+01 7.5277050e+01 7.5294146e+01 7.5311242e+01 7.5328338e+01 7.5345434e+01 7.5362531e+01 7.5379627e+01 7.5396723e+01 7.5413819e+01 7.5427655e+01 7.5430330e+01 7.5433005e+01 7.5435680e+01 7.5438355e+01 7.5441030e+01 7.5443705e+01 7.5446380e+01 7.5449056e+01 7.5451731e+01 7.5454406e+01 7.5457081e+01 7.5459756e+01 7.5462431e+01 7.5465106e+01 7.5467781e+01 7.5470456e+01 7.5473131e+01 7.5475806e+01 7.5478481e+01 7.5481156e+01 7.5483831e+01 7.5486507e+01 7.5489182e+01 7.5491857e+01 7.5494532e+01 7.5497207e+01 7.5499882e+01 7.5502557e+01 7.5502707e+01 7.5501782e+01 7.5500857e+01 7.5499932e+01 7.5499007e+01 7.5498082e+01 7.5497157e+01 7.5496232e+01 7.5495308e+01 7.5494383e+01 7.5493458e+01 7.5492533e+01 7.5491608e+01 7.5490683e+01 7.5489758e+01 7.5488833e+01 7.5487908e+01 7.5486983e+01 7.5486058e+01 7.5485133e+01 7.5484208e+01 7.5483284e+01 7.5482359e+01 7.5481434e+01 7.5480509e+01 7.5479584e+01 7.5478659e+01 7.5477734e+01 7.5476842e+01 7.5476102e+01 7.5475363e+01 7.5474623e+01 7.5473884e+01 7.5473144e+01 7.5472405e+01 7.5471666e+01 7.5470926e+01 7.5470187e+01 7.5469447e+01 7.5468708e+01 7.5467968e+01 7.5467229e+01 7.5466489e+01 7.5465750e+01 7.5465010e+01 7.5464271e+01 7.5463531e+01 7.5462792e+01 7.5462052e+01 7.5461313e+01 7.5460573e+01 7.5459834e+01 7.5459094e+01 7.5458355e+01 7.5457616e+01 7.5456876e+01 7.5456137e+01 7.5460834e+01 7.5468434e+01 7.5476033e+01 7.5483632e+01 7.5491232e+01 7.5498831e+01 7.5506430e+01 7.5514029e+01 7.5521629e+01 7.5529228e+01 7.5536827e+01 7.5544426e+01 7.5552026e+01 7.5559625e+01 7.5567224e+01 7.5574823e+01 7.5582423e+01 7.5590022e+01 7.5597621e+01 7.5605220e+01 7.5612820e+01 7.5620419e+01 7.5628018e+01 7.5635618e+01 7.5643217e+01 7.5650816e+01 7.5658415e+01 7.5666015e+01 7.5671560e+01 7.5663037e+01 7.5654514e+01 7.5645991e+01 7.5637468e+01 7.5628945e+01 7.5620422e+01 7.5611899e+01 7.5603376e+01 7.5594853e+01 7.5586330e+01 7.5577807e+01 7.5569284e+01 7.5560761e+01 7.5552238e+01 7.5543715e+01 7.5535192e+01 7.5526669e+01 7.5518146e+01 7.5509623e+01 7.5501099e+01 7.5492576e+01 7.5484053e+01 7.5475530e+01 7.5467007e+01 7.5458484e+01 7.5449961e+01 7.5441438e+01 7.5432915e+01 7.5407624e+01 7.5371280e+01 7.5334936e+01 7.5298591e+01 7.5262247e+01 7.5225903e+01 7.5189559e+01 7.5153215e+01 7.5116870e+01 7.5080526e+01 7.5044182e+01 7.5007838e+01 7.4971494e+01 7.4935150e+01 7.4898805e+01 7.4862461e+01 7.4826117e+01 7.4789773e+01 7.4753429e+01 7.4717084e+01 7.4680740e+01 7.4644396e+01 7.4608052e+01 7.4571708e+01 7.4535363e+01 7.4499019e+01 7.4462675e+01 7.4426331e+01 7.4392987e+01 7.4395081e+01 7.4397175e+01 7.4399269e+01 7.4401363e+01 7.4403457e+01 7.4405551e+01 7.4407645e+01 7.4409739e+01 7.4411833e+01 7.4413927e+01 7.4416021e+01 7.4418115e+01 7.4420209e+01 7.4422303e+01 7.4424397e+01 7.4426491e+01 7.4428585e+01 7.4430679e+01 7.4432773e+01 7.4434867e+01 7.4436961e+01 7.4439055e+01 7.4441149e+01 7.4443243e+01 7.4445337e+01 7.4447431e+01 7.4449525e+01 7.4451619e+01 7.4456784e+01 7.4464427e+01 7.4472070e+01 7.4479713e+01 7.4487357e+01 7.4495000e+01 7.4502643e+01 7.4510286e+01 7.4517929e+01 7.4525572e+01 7.4533215e+01 7.4540858e+01 7.4548501e+01 7.4556144e+01 7.4563787e+01 7.4571430e+01 7.4579073e+01 7.4586717e+01 7.4594360e+01 7.4602003e+01 7.4609646e+01 7.4617289e+01 7.4624932e+01 7.4632575e+01 7.4640218e+01 7.4647861e+01 7.4655504e+01 7.4663147e+01 7.4670297e+01 7.4660750e+01 7.4651203e+01 7.4641656e+01 7.4632109e+01 7.4622563e+01 7.4613016e+01 7.4603469e+01 7.4593922e+01 7.4584375e+01 7.4574828e+01 7.4565281e+01 7.4555734e+01 7.4546188e+01 7.4536641e+01 7.4527094e+01 7.4517547e+01 7.4508000e+01 7.4498453e+01 7.4488906e+01 7.4479359e+01 7.4469813e+01 7.4460266e+01 7.4450719e+01 7.4441172e+01 7.4431625e+01 7.4422078e+01 7.4412531e+01 7.4402984e+01 7.4390281e+01 7.4374471e+01 7.4358661e+01 7.4342851e+01 7.4327041e+01 7.4311232e+01 7.4295422e+01 7.4279612e+01 7.4263802e+01 7.4247992e+01 7.4232182e+01 7.4216372e+01 7.4200562e+01 7.4184753e+01 7.4168943e+01 7.4153133e+01 7.4137323e+01 7.4121513e+01 7.4105703e+01 7.4089893e+01 7.4074084e+01 7.4058274e+01 7.4042464e+01 7.4026654e+01 7.4010844e+01 7.3995034e+01 7.3979224e+01 7.3963415e+01 7.3947605e+01 7.3972299e+01 7.3997848e+01 7.4023396e+01 7.4048944e+01 7.4074493e+01 7.4100041e+01 7.4125590e+01 7.4151138e+01 7.4176686e+01 7.4202235e+01 7.4227783e+01 7.4253332e+01 7.4278880e+01 7.4304428e+01 7.4329977e+01 7.4355525e+01 7.4381074e+01 7.4406622e+01 7.4432170e+01 7.4457719e+01 7.4483267e+01 7.4508815e+01 7.4534364e+01 7.4559912e+01 7.4585461e+01 7.4611009e+01 7.4636557e+01 7.4662106e+01 7.4679359e+01 7.4686662e+01 7.4693966e+01 7.4701269e+01 7.4708573e+01 7.4715876e+01 7.4723180e+01 7.4730484e+01 7.4737787e+01 7.4745091e+01 7.4752394e+01 7.4759698e+01 7.4767001e+01 7.4774305e+01 7.4781609e+01 7.4788912e+01 7.4796216e+01 7.4803519e+01 7.4810823e+01 7.4818126e+01 7.4825430e+01 7.4832734e+01 7.4840037e+01 7.4847341e+01 7.4854644e+01 7.4861948e+01 7.4869251e+01 7.4876555e+01 7.4883859e+01 7.4891711e+01 7.4899605e+01 7.4907498e+01 7.4915392e+01 7.4923286e+01 7.4931179e+01 7.4939073e+01 7.4946967e+01 7.4954860e+01 7.4962754e+01 7.4970648e+01 7.4978542e+01 7.4986435e+01 7.4994329e+01 7.5002223e+01 7.5010116e+01 7.5018010e+01 7.5025904e+01 7.5033797e+01 7.5041691e+01 7.5049585e+01 7.5057478e+01 7.5065372e+01 7.5073266e+01 7.5081160e+01 7.5089053e+01 7.5096947e+01 7.5104841e+01 7.5106131e+01 7.5097734e+01 7.5089337e+01 7.5080941e+01 7.5072544e+01 7.5064147e+01 7.5055750e+01 7.5047353e+01 7.5038956e+01 7.5030560e+01 7.5022163e+01 7.5013766e+01 7.5005369e+01 7.4996972e+01 7.4988575e+01 7.4980178e+01 7.4971782e+01 7.4963385e+01 7.4954988e+01 7.4946591e+01 7.4938194e+01 7.4929797e+01 7.4921400e+01 7.4913004e+01 7.4904607e+01 7.4896210e+01 7.4887813e+01 7.4879416e+01 7.4871019e+01 7.4867776e+01 7.4865231e+01 7.4862686e+01 7.4860141e+01 7.4857596e+01 7.4855051e+01 7.4852506e+01 7.4849961e+01 7.4847417e+01 7.4844872e+01 7.4842327e+01 7.4839782e+01 7.4837237e+01 7.4834692e+01 7.4832147e+01 7.4829602e+01 7.4827057e+01 7.4824512e+01 7.4821967e+01 7.4819422e+01 7.4816877e+01 7.4814332e+01 7.4811787e+01 7.4809242e+01 7.4806697e+01 7.4804152e+01 7.4801608e+01 7.4799063e+01 7.4797686e+01 7.4798423e+01 7.4799161e+01 7.4799898e+01 7.4800635e+01 7.4801373e+01 7.4802110e+01 7.4802847e+01 7.4803585e+01 7.4804322e+01 7.4805059e+01 7.4805797e+01 7.4806534e+01 7.4807271e+01 7.4808008e+01 7.4808746e+01 7.4809483e+01 7.4810220e+01 7.4810958e+01 7.4811695e+01 7.4812432e+01 7.4813170e+01 7.4813907e+01 7.4814644e+01 7.4815382e+01 7.4816119e+01 7.4816856e+01 7.4817594e+01 7.4818331e+01 7.4809218e+01 7.4798106e+01 7.4786994e+01 7.4775883e+01 7.4764771e+01 7.4753659e+01 7.4742548e+01 7.4731436e+01 7.4720324e+01 7.4709212e+01 7.4698101e+01 7.4686989e+01 7.4675877e+01 7.4664766e+01 7.4653654e+01 7.4642542e+01 7.4631430e+01 7.4620319e+01 7.4609207e+01 7.4598095e+01 7.4586984e+01 7.4575872e+01 7.4564760e+01 7.4553649e+01 7.4542537e+01 7.4531425e+01 7.4520313e+01 7.4509202e+01 7.4494452e+01 7.4471478e+01 7.4448503e+01 7.4425528e+01 7.4402554e+01 7.4379579e+01 7.4356605e+01 7.4333630e+01 7.4310655e+01 7.4287681e+01 7.4264706e+01 7.4241731e+01 7.4218757e+01 7.4195782e+01 7.4172808e+01 7.4149833e+01 7.4126858e+01 7.4103884e+01 7.4080909e+01 7.4057934e+01 7.4034960e+01 7.4011985e+01 7.3989011e+01 7.3966036e+01 7.3943061e+01 7.3920087e+01 7.3897112e+01 7.3874138e+01 7.3851163e+01 7.3816334e+01 7.3778200e+01 7.3740067e+01 7.3701933e+01 7.3663799e+01 7.3625665e+01 7.3587531e+01 7.3549398e+01 7.3511264e+01 7.3473130e+01 7.3434996e+01 7.3396862e+01 7.3358728e+01 7.3320595e+01 7.3282461e+01 7.3244327e+01 7.3206193e+01 7.3168059e+01 7.3129926e+01 7.3091792e+01 7.3053658e+01 7.3015524e+01 7.2977390e+01 7.2939257e+01 7.2901123e+01 7.2862989e+01 7.2824855e+01 7.2786721e+01 7.2759290e+01 7.2762752e+01 7.2766213e+01 7.2769675e+01 7.2773137e+01 7.2776598e+01 7.2780060e+01 7.2783522e+01 7.2786984e+01 7.2790445e+01 7.2793907e+01 7.2797369e+01 7.2800830e+01 7.2804292e+01 7.2807754e+01 7.2811215e+01 7.2814677e+01 7.2818139e+01 7.2821600e+01 7.2825062e+01 7.2828524e+01 7.2831985e+01 7.2835447e+01 7.2838909e+01 7.2842371e+01 7.2845832e+01 7.2849294e+01 7.2852756e+01 7.2856217e+01 7.2857410e+01 7.2857775e+01 7.2858140e+01 7.2858505e+01 7.2858870e+01 7.2859235e+01 7.2859600e+01 7.2859965e+01 7.2860330e+01 7.2860695e+01 7.2861060e+01 7.2861425e+01 7.2861789e+01 7.2862154e+01 7.2862519e+01 7.2862884e+01 7.2863249e+01 7.2863614e+01 7.2863979e+01 7.2864344e+01 7.2864709e+01 7.2865074e+01 7.2865439e+01 7.2865804e+01 7.2866169e+01 7.2866534e+01 7.2866899e+01 7.2867263e+01 7.2868693e+01 7.2874180e+01 7.2879667e+01 7.2885153e+01 7.2890640e+01 7.2896126e+01 7.2901613e+01 7.2907099e+01 7.2912586e+01 7.2918073e+01 7.2923559e+01 7.2929046e+01 7.2934532e+01 7.2940019e+01 7.2945505e+01 7.2950992e+01 7.2956479e+01 7.2961965e+01 7.2967452e+01 7.2972938e+01 7.2978425e+01 7.2983911e+01 7.2989398e+01 7.2994884e+01 7.3000371e+01 7.3005858e+01 7.3011344e+01 7.3016831e+01 7.3022317e+01 7.3037841e+01 7.3058017e+01 7.3078192e+01 7.3098368e+01 7.3118544e+01 7.3138720e+01 7.3158896e+01 7.3179072e+01 7.3199247e+01 7.3219423e+01 7.3239599e+01 7.3259775e+01 7.3279951e+01 7.3300127e+01 7.3320302e+01 7.3340478e+01 7.3360654e+01 7.3380830e+01 7.3401006e+01 7.3421182e+01 7.3441357e+01 7.3461533e+01 7.3481709e+01 7.3501885e+01 7.3522061e+01 7.3542236e+01 7.3562412e+01 7.3582588e+01 7.3601396e+01 7.3612950e+01 7.3624503e+01 7.3636056e+01 7.3647609e+01 7.3659162e+01 7.3670715e+01 7.3682269e+01 7.3693822e+01 7.3705375e+01 7.3716928e+01 7.3728481e+01 7.3740035e+01 7.3751588e+01 7.3763141e+01 7.3774694e+01 7.3786247e+01 7.3797801e+01 7.3809354e+01 7.3820907e+01 7.3832460e+01 7.3844013e+01 7.3855567e+01 7.3867120e+01 7.3878673e+01 7.3890226e+01 7.3901779e+01 7.3913333e+01 7.3924886e+01 7.3927806e+01 7.3925741e+01 7.3923677e+01 7.3921612e+01 7.3919547e+01 7.3917483e+01 7.3915418e+01 7.3913353e+01 7.3911289e+01 7.3909224e+01 7.3907159e+01 7.3905094e+01 7.3903030e+01 7.3900965e+01 7.3898900e+01 7.3896836e+01 7.3894771e+01 7.3892706e+01 7.3890642e+01 7.3888577e+01 7.3886512e+01 7.3884447e+01 7.3882383e+01 7.3880318e+01 7.3878253e+01 7.3876189e+01 7.3874124e+01 7.3872059e+01 7.3870118e+01 7.3869180e+01 7.3868243e+01 7.3867305e+01 7.3866368e+01 7.3865431e+01 7.3864493e+01 7.3863556e+01 7.3862618e+01 7.3861681e+01 7.3860744e+01 7.3859806e+01 7.3858869e+01 7.3857931e+01 7.3856994e+01 7.3856057e+01 7.3855119e+01 7.3854182e+01 7.3853244e+01 7.3852307e+01 7.3851369e+01 7.3850432e+01 7.3849495e+01 7.3848557e+01 7.3847620e+01 7.3846682e+01 7.3845745e+01 7.3844808e+01 7.3843870e+01 7.3847790e+01 7.3855162e+01 7.3862534e+01 7.3869905e+01 7.3877277e+01 7.3884649e+01 7.3892021e+01 7.3899392e+01 7.3906764e+01 7.3914136e+01 7.3921508e+01 7.3928879e+01 7.3936251e+01 7.3943623e+01 7.3950995e+01 7.3958367e+01 7.3965738e+01 7.3973110e+01 7.3980482e+01 7.3987854e+01 7.3995225e+01 7.4002597e+01 7.4009969e+01 7.4017341e+01 7.4024712e+01 7.4032084e+01 7.4039456e+01 7.4046828e+01 7.4053947e+01 7.4057113e+01 7.4060280e+01 7.4063446e+01 7.4066612e+01 7.4069778e+01 7.4072944e+01 7.4076111e+01 7.4079277e+01 7.4082443e+01 7.4085609e+01 7.4088775e+01 7.4091942e+01 7.4095108e+01 7.4098274e+01 7.4101440e+01 7.4104606e+01 7.4107773e+01 7.4110939e+01 7.4114105e+01 7.4117271e+01 7.4120437e+01 7.4123603e+01 7.4126770e+01 7.4129936e+01 7.4133102e+01 7.4136268e+01 7.4139434e+01 7.4142601e+01 7.4140039e+01 7.4132503e+01 7.4124967e+01 7.4117431e+01 7.4109895e+01 7.4102359e+01 7.4094824e+01 7.4087288e+01 7.4079752e+01 7.4072216e+01 7.4064680e+01 7.4057144e+01 7.4049609e+01 7.4042073e+01 7.4034537e+01 7.4027001e+01 7.4019465e+01 7.4011929e+01 7.4004394e+01 7.3996858e+01 7.3989322e+01 7.3981786e+01 7.3974250e+01 7.3966714e+01 7.3959179e+01 7.3951643e+01 7.3944107e+01 7.3936571e+01 7.3929154e+01 7.3932811e+01 7.3936469e+01 7.3940127e+01 7.3943785e+01 7.3947443e+01 7.3951100e+01 7.3954758e+01 7.3958416e+01 7.3962074e+01 7.3965732e+01 7.3969389e+01 7.3973047e+01 7.3976705e+01 7.3980363e+01 7.3984020e+01 7.3987678e+01 7.3991336e+01 7.3994994e+01 7.3998652e+01 7.4002309e+01 7.4005967e+01 7.4009625e+01 7.4013283e+01 7.4016941e+01 7.4020598e+01 7.4024256e+01 7.4027914e+01 7.4031572e+01 7.4036311e+01 7.4042196e+01 7.4048080e+01 7.4053965e+01 7.4059849e+01 7.4065734e+01 7.4071618e+01 7.4077503e+01 7.4083387e+01 7.4089272e+01 7.4095156e+01 7.4101041e+01 7.4106925e+01 7.4112810e+01 7.4118694e+01 7.4124579e+01 7.4130463e+01 7.4136348e+01 7.4142232e+01 7.4148117e+01 7.4154001e+01 7.4159886e+01 7.4165770e+01 7.4171655e+01 7.4177539e+01 7.4183424e+01 7.4189308e+01 7.4195193e+01 7.4201077e+01 7.4209589e+01 7.4218207e+01 7.4226824e+01 7.4235442e+01 7.4244059e+01 7.4252677e+01 7.4261295e+01 7.4269912e+01 7.4278530e+01 7.4287148e+01 7.4295765e+01 7.4304383e+01 7.4313001e+01 7.4321618e+01 7.4330236e+01 7.4338853e+01 7.4347471e+01 7.4356089e+01 7.4364706e+01 7.4373324e+01 7.4381942e+01 7.4390559e+01 7.4399177e+01 7.4407795e+01 7.4416412e+01 7.4425030e+01 7.4433647e+01 7.4442265e+01 7.4451629e+01 7.4461956e+01 7.4472284e+01 7.4482611e+01 7.4492938e+01 7.4503265e+01 7.4513592e+01 7.4523920e+01 7.4534247e+01 7.4544574e+01 7.4554901e+01 7.4565229e+01 7.4575556e+01 7.4585883e+01 7.4596210e+01 7.4606537e+01 7.4616865e+01 7.4627192e+01 7.4637519e+01 7.4647846e+01 7.4658174e+01 7.4668501e+01 7.4678828e+01 7.4689155e+01 7.4699483e+01 7.4709810e+01 7.4720137e+01 7.4730464e+01 7.4740791e+01 7.4764870e+01 7.4790276e+01 7.4815683e+01 7.4841090e+01 7.4866497e+01 7.4891904e+01 7.4917311e+01 7.4942718e+01 7.4968125e+01 7.4993532e+01 7.5018938e+01 7.5044345e+01 7.5069752e+01 7.5095159e+01 7.5120566e+01 7.5145973e+01 7.5171380e+01 7.5196787e+01 7.5222193e+01 7.5247600e+01 7.5273007e+01 7.5298414e+01 7.5323821e+01 7.5349228e+01 7.5374635e+01 7.5400042e+01 7.5425448e+01 7.5450855e+01 7.5470088e+01 7.5479550e+01 7.5489012e+01 7.5498474e+01 7.5507936e+01 7.5517398e+01 7.5526860e+01 7.5536322e+01 7.5545784e+01 7.5555246e+01 7.5564708e+01 7.5574170e+01 7.5583632e+01 7.5593094e+01 7.5602556e+01 7.5612018e+01 7.5621481e+01 7.5630943e+01 7.5640405e+01 7.5649867e+01 7.5659329e+01 7.5668791e+01 7.5678253e+01 7.5687715e+01 7.5697177e+01 7.5706639e+01 7.5716101e+01 7.5725563e+01 7.5735025e+01 7.5742606e+01 7.5749887e+01 7.5757169e+01 7.5764450e+01 7.5771732e+01 7.5779013e+01 7.5786295e+01 7.5793576e+01 7.5800858e+01 7.5808139e+01 7.5815420e+01 7.5822702e+01 7.5829983e+01 7.5837265e+01 7.5844546e+01 7.5851828e+01 7.5859109e+01 7.5866391e+01 7.5873672e+01 7.5880954e+01 7.5888235e+01 7.5895516e+01 7.5902798e+01 7.5910079e+01 7.5917361e+01 7.5924642e+01 7.5931924e+01 7.5939205e+01 7.5940686e+01 7.5930801e+01 7.5920915e+01 7.5911030e+01 7.5901144e+01 7.5891258e+01 7.5881373e+01 7.5871487e+01 7.5861602e+01 7.5851716e+01 7.5841830e+01 7.5831945e+01 7.5822059e+01 7.5812174e+01 7.5802288e+01 7.5792402e+01 7.5782517e+01 7.5772631e+01 7.5762746e+01 7.5752860e+01 7.5742974e+01 7.5733089e+01 7.5723203e+01 7.5713318e+01 7.5703432e+01 7.5693546e+01 7.5683661e+01 7.5673775e+01 7.5663890e+01 7.5655114e+01 7.5646593e+01 7.5638073e+01 7.5629552e+01 7.5621031e+01 7.5612511e+01 7.5603990e+01 7.5595469e+01 7.5586949e+01 7.5578428e+01 7.5569908e+01 7.5561387e+01 7.5552866e+01 7.5544346e+01 7.5535825e+01 7.5527304e+01 7.5518784e+01 7.5510263e+01 7.5501742e+01 7.5493222e+01 7.5484701e+01 7.5476181e+01 7.5467660e+01 7.5459139e+01 7.5450619e+01 7.5442098e+01 7.5433577e+01 7.5425057e+01 7.5420971e+01 7.5427820e+01 7.5434669e+01 7.5441518e+01 7.5448368e+01 7.5455217e+01 7.5462066e+01 7.5468915e+01 7.5475764e+01 7.5482614e+01 7.5489463e+01 7.5496312e+01 7.5503161e+01 7.5510011e+01 7.5516860e+01 7.5523709e+01 7.5530558e+01 7.5537408e+01 7.5544257e+01 7.5551106e+01 7.5557955e+01 7.5564805e+01 7.5571654e+01 7.5578503e+01 7.5585352e+01 7.5592202e+01 7.5599051e+01 7.5605900e+01 7.5612749e+01 7.5618629e+01 7.5624208e+01 7.5629788e+01 7.5635367e+01 7.5640947e+01 7.5646526e+01 7.5652106e+01 7.5657685e+01 7.5663265e+01 7.5668845e+01 7.5674424e+01 7.5680004e+01 7.5685583e+01 7.5691163e+01 7.5696742e+01 7.5702322e+01 7.5707901e+01 7.5713481e+01 7.5719060e+01 7.5724640e+01 7.5730220e+01 7.5735799e+01 7.5741379e+01 7.5746958e+01 7.5752538e+01 7.5758117e+01 7.5763697e+01 7.5769276e+01 7.5782105e+01 7.5817995e+01 7.5853885e+01 7.5889775e+01 7.5925665e+01 7.5961555e+01 7.5997445e+01 7.6033335e+01 7.6069225e+01 7.6105115e+01 7.6141004e+01 7.6176894e+01 7.6212784e+01 7.6248674e+01 7.6284564e+01 7.6320454e+01 7.6356344e+01 7.6392234e+01 7.6428124e+01 7.6464014e+01 7.6499904e+01 7.6535794e+01 7.6571683e+01 7.6607573e+01 7.6643463e+01 7.6679353e+01 7.6715243e+01 7.6751133e+01 7.6787023e+01 7.6815079e+01 7.6840004e+01 7.6864929e+01 7.6889854e+01 7.6914779e+01 7.6939705e+01 7.6964630e+01 7.6989555e+01 7.7014480e+01 7.7039406e+01 7.7064331e+01 7.7089256e+01 7.7114181e+01 7.7139106e+01 7.7164032e+01 7.7188957e+01 7.7213882e+01 7.7238807e+01 7.7263733e+01 7.7288658e+01 7.7313583e+01 7.7338508e+01 7.7363433e+01 7.7388359e+01 7.7413284e+01 7.7438209e+01 7.7463134e+01 7.7488059e+01 7.7515080e+01 7.7551041e+01 7.7587002e+01 7.7622963e+01 7.7658924e+01 7.7694885e+01 7.7730846e+01 7.7766807e+01 7.7802768e+01 7.7838729e+01 7.7874691e+01 7.7910652e+01 7.7946613e+01 7.7982574e+01 7.8018535e+01 7.8054496e+01 7.8090457e+01 7.8126418e+01 7.8162379e+01 7.8198340e+01 7.8234301e+01 7.8270262e+01 7.8306224e+01 7.8342185e+01 7.8378146e+01 7.8414107e+01 7.8450068e+01 7.8486029e+01 7.8521990e+01 7.8513881e+01 7.8483587e+01 7.8453293e+01 7.8422999e+01 7.8392705e+01 7.8362411e+01 7.8332117e+01 7.8301823e+01 7.8271529e+01 7.8241234e+01 7.8210940e+01 7.8180646e+01 7.8150352e+01 7.8120058e+01 7.8089764e+01 7.8059470e+01 7.8029176e+01 7.7998882e+01 7.7968588e+01 7.7938294e+01 7.7908000e+01 7.7877706e+01 7.7847412e+01 7.7817117e+01 7.7786823e+01 7.7756529e+01 7.7726235e+01 7.7695941e+01 7.7665551e+01 7.7634576e+01 7.7603601e+01 7.7572626e+01 7.7541651e+01 7.7510676e+01 7.7479701e+01 7.7448726e+01 7.7417751e+01 7.7386776e+01 7.7355801e+01 7.7324826e+01 7.7293851e+01 7.7262875e+01 7.7231900e+01 7.7200925e+01 7.7169950e+01 7.7138975e+01 7.7108000e+01 7.7077025e+01 7.7046050e+01 7.7015075e+01 7.6984100e+01 7.6953125e+01 7.6922150e+01 7.6891175e+01 7.6860200e+01 7.6829224e+01 7.6798249e+01 7.6771399e+01 7.6747122e+01 7.6722844e+01 7.6698567e+01 7.6674290e+01 7.6650013e+01 7.6625736e+01 7.6601458e+01 7.6577181e+01 7.6552904e+01 7.6528627e+01 7.6504349e+01 7.6480072e+01 7.6455795e+01 7.6431518e+01 7.6407240e+01 7.6382963e+01 7.6358686e+01 7.6334409e+01 7.6310132e+01 7.6285854e+01 7.6261577e+01 7.6237300e+01 7.6213023e+01 7.6188745e+01 7.6164468e+01 7.6140191e+01 7.6115914e+01 7.6090454e+01 7.6053203e+01 7.6015951e+01 7.5978700e+01 7.5941448e+01 7.5904197e+01 7.5866945e+01 7.5829694e+01 7.5792442e+01 7.5755191e+01 7.5717939e+01 7.5680688e+01 7.5643436e+01 7.5606185e+01 7.5568933e+01 7.5531682e+01 7.5494431e+01 7.5457179e+01 7.5419928e+01 7.5382676e+01 7.5345425e+01 7.5308173e+01 7.5270922e+01 7.5233670e+01 7.5196419e+01 7.5159167e+01 7.5121916e+01 7.5084664e+01 7.5047413e+01 7.5015389e+01 7.4987365e+01 7.4959342e+01 7.4931319e+01 7.4903295e+01 7.4875272e+01 7.4847249e+01 7.4819225e+01 7.4791202e+01 7.4763179e+01 7.4735155e+01 7.4707132e+01 7.4679108e+01 7.4651085e+01 7.4623062e+01 7.4595038e+01 7.4567015e+01 7.4538992e+01 7.4510968e+01 7.4482945e+01 7.4454922e+01 7.4426898e+01 7.4398875e+01 7.4370852e+01 7.4342828e+01 7.4314805e+01 7.4286782e+01 7.4258758e+01 7.4230336e+01 7.4192766e+01 7.4155196e+01 7.4117626e+01 7.4080056e+01 7.4042486e+01 7.4004916e+01 7.3967346e+01 7.3929776e+01 7.3892206e+01 7.3854636e+01 7.3817066e+01 7.3779496e+01 7.3741926e+01 7.3704356e+01 7.3666786e+01 7.3629217e+01 7.3591647e+01 7.3554077e+01 7.3516507e+01 7.3478937e+01 7.3441367e+01 7.3403797e+01 7.3366227e+01 7.3328657e+01 7.3291087e+01 7.3253517e+01 7.3215947e+01 7.3178377e+01 7.3156252e+01 7.3148549e+01 7.3140845e+01 7.3133142e+01 7.3125439e+01 7.3117736e+01 7.3110032e+01 7.3102329e+01 7.3094626e+01 7.3086923e+01 7.3079220e+01 7.3071516e+01 7.3063813e+01 7.3056110e+01 7.3048407e+01 7.3040703e+01 7.3033000e+01 7.3025297e+01 7.3017594e+01 7.3009891e+01 7.3002187e+01 7.2994484e+01 7.2986781e+01 7.2979078e+01 7.2971374e+01 7.2963671e+01 7.2955968e+01 7.2948265e+01 7.2940562e+01 7.2945777e+01 7.2951091e+01 7.2956405e+01 7.2961719e+01 7.2967033e+01 7.2972347e+01 7.2977661e+01 7.2982975e+01 7.2988289e+01 7.2993603e+01 7.2998917e+01 7.3004231e+01 7.3009544e+01 7.3014858e+01 7.3020172e+01 7.3025486e+01 7.3030800e+01 7.3036114e+01 7.3041428e+01 7.3046742e+01 7.3052056e+01 7.3057370e+01 7.3062684e+01 7.3067998e+01 7.3073312e+01 7.3078626e+01 7.3083940e+01 7.3089253e+01 7.3099862e+01 7.3116495e+01 7.3133128e+01 7.3149761e+01 7.3166394e+01 7.3183028e+01 7.3199661e+01 7.3216294e+01 7.3232927e+01 7.3249560e+01 7.3266193e+01 7.3282826e+01 7.3299459e+01 7.3316092e+01 7.3332725e+01 7.3349358e+01 7.3365991e+01 7.3382624e+01 7.3399257e+01 7.3415890e+01 7.3432524e+01 7.3449157e+01 7.3465790e+01 7.3482423e+01 7.3499056e+01 7.3515689e+01 7.3532322e+01 7.3548955e+01 7.3565588e+01 7.3572161e+01 7.3578127e+01 7.3584093e+01 7.3590060e+01 7.3596026e+01 7.3601992e+01 7.3607958e+01 7.3613924e+01 7.3619890e+01 7.3625856e+01 7.3631822e+01 7.3637789e+01 7.3643755e+01 7.3649721e+01 7.3655687e+01 7.3661653e+01 7.3667619e+01 7.3673585e+01 7.3679552e+01 7.3685518e+01 7.3691484e+01 7.3697450e+01 7.3703416e+01 7.3709382e+01 7.3715348e+01 7.3721315e+01 7.3727281e+01 7.3733247e+01 7.3733987e+01 7.3727463e+01 7.3720939e+01 7.3714415e+01 7.3707890e+01 7.3701366e+01 7.3694842e+01 7.3688318e+01 7.3681794e+01 7.3675270e+01 7.3668746e+01 7.3662222e+01 7.3655698e+01 7.3649174e+01 7.3642650e+01 7.3636126e+01 7.3629602e+01 7.3623078e+01 7.3616554e+01 7.3610030e+01 7.3603506e+01 7.3596982e+01 7.3590458e+01 7.3583934e+01 7.3577409e+01 7.3570885e+01 7.3564361e+01 7.3557837e+01 7.3551313e+01 7.3534777e+01 7.3517050e+01 7.3499323e+01 7.3481597e+01 7.3463870e+01 7.3446143e+01 7.3428417e+01 7.3410690e+01 7.3392963e+01 7.3375237e+01 7.3357510e+01 7.3339783e+01 7.3322057e+01 7.3304330e+01 7.3286603e+01 7.3268877e+01 7.3251150e+01 7.3233423e+01 7.3215697e+01 7.3197970e+01 7.3180243e+01 7.3162517e+01 7.3144790e+01 7.3127063e+01 7.3109337e+01 7.3091610e+01 7.3073883e+01 7.3056157e+01 7.3017057e+01 7.2941421e+01 7.2865785e+01 7.2790149e+01 7.2714513e+01 7.2638877e+01 7.2563241e+01 7.2487606e+01 7.2411970e+01 7.2336334e+01 7.2260698e+01 7.2185062e+01 7.2109426e+01 7.2033790e+01 7.1958154e+01 7.1882518e+01 7.1806882e+01 7.1731247e+01 7.1655611e+01 7.1579975e+01 7.1504339e+01 7.1428703e+01 7.1353067e+01 7.1277431e+01 7.1201795e+01 7.1126159e+01 7.1050523e+01 7.0974888e+01 7.0899252e+01 7.0891300e+01 7.0895821e+01 7.0900341e+01 7.0904861e+01 7.0909382e+01 7.0913902e+01 7.0918422e+01 7.0922942e+01 7.0927463e+01 7.0931983e+01 7.0936503e+01 7.0941023e+01 7.0945544e+01 7.0950064e+01 7.0954584e+01 7.0959104e+01 7.0963625e+01 7.0968145e+01 7.0972665e+01 7.0977185e+01 7.0981706e+01 7.0986226e+01 7.0990746e+01 7.0995267e+01 7.0999787e+01 7.1004307e+01 7.1008827e+01 7.1013348e+01 7.1021102e+01 7.1035737e+01 7.1050372e+01 7.1065008e+01 7.1079643e+01 7.1094278e+01 7.1108913e+01 7.1123548e+01 7.1138183e+01 7.1152819e+01 7.1167454e+01 7.1182089e+01 7.1196724e+01 7.1211359e+01 7.1225995e+01 7.1240630e+01 7.1255265e+01 7.1269900e+01 7.1284535e+01 7.1299171e+01 7.1313806e+01 7.1328441e+01 7.1343076e+01 7.1357711e+01 7.1372346e+01 7.1386982e+01 7.1401617e+01 7.1416252e+01 7.1430887e+01 7.1434628e+01 7.1435560e+01 7.1436492e+01 7.1437424e+01 7.1438356e+01 7.1439288e+01 7.1440220e+01 7.1441152e+01 7.1442084e+01 7.1443016e+01 7.1443948e+01 7.1444880e+01 7.1445812e+01 7.1446744e+01 7.1447676e+01 7.1448609e+01 7.1449541e+01 7.1450473e+01 7.1451405e+01 7.1452337e+01 7.1453269e+01 7.1454201e+01 7.1455133e+01 7.1456065e+01 7.1456997e+01 7.1457929e+01 7.1458861e+01 7.1459793e+01 7.1467310e+01 7.1492596e+01 7.1517881e+01 7.1543166e+01 7.1568452e+01 7.1593737e+01 7.1619022e+01 7.1644307e+01 7.1669593e+01 7.1694878e+01 7.1720163e+01 7.1745449e+01 7.1770734e+01 7.1796019e+01 7.1821304e+01 7.1846590e+01 7.1871875e+01 7.1897160e+01 7.1922446e+01 7.1947731e+01 7.1973016e+01 7.1998302e+01 7.2023587e+01 7.2048872e+01 7.2074157e+01 7.2099443e+01 7.2124728e+01 7.2150013e+01 7.2175299e+01 7.2205254e+01 7.2236801e+01 7.2268348e+01 7.2299896e+01 7.2331443e+01 7.2362991e+01 7.2394538e+01 7.2426086e+01 7.2457633e+01 7.2489180e+01 7.2520728e+01 7.2552275e+01 7.2583823e+01 7.2615370e+01 7.2646917e+01 7.2678465e+01 7.2710012e+01 7.2741560e+01 7.2773107e+01 7.2804655e+01 7.2836202e+01 7.2867749e+01 7.2899297e+01 7.2930844e+01 7.2962392e+01 7.2993939e+01 7.3025486e+01 7.3057034e+01 7.3085736e+01 7.3104411e+01 7.3123087e+01 7.3141762e+01 7.3160438e+01 7.3179113e+01 7.3197789e+01 7.3216464e+01 7.3235139e+01 7.3253815e+01 7.3272490e+01 7.3291166e+01 7.3309841e+01 7.3328517e+01 7.3347192e+01 7.3365868e+01 7.3384543e+01 7.3403218e+01 7.3421894e+01 7.3440569e+01 7.3459245e+01 7.3477920e+01 7.3496596e+01 7.3515271e+01 7.3533947e+01 7.3552622e+01 7.3571297e+01 7.3589973e+01 7.3608648e+01 7.3626331e+01 7.3643581e+01 7.3660831e+01 7.3678081e+01 7.3695330e+01 7.3712580e+01 7.3729830e+01 7.3747080e+01 7.3764330e+01 7.3781580e+01 7.3798829e+01 7.3816079e+01 7.3833329e+01 7.3850579e+01 7.3867829e+01 7.3885078e+01 7.3902328e+01 7.3919578e+01 7.3936828e+01 7.3954078e+01 7.3971328e+01 7.3988577e+01 7.4005827e+01 7.4023077e+01 7.4040327e+01 7.4057577e+01 7.4074827e+01 7.4092076e+01 7.4110088e+01 7.4131775e+01 7.4153461e+01 7.4175148e+01 7.4196835e+01 7.4218522e+01 7.4240208e+01 7.4261895e+01 7.4283582e+01 7.4305268e+01 7.4326955e+01 7.4348642e+01 7.4370329e+01 7.4392015e+01 7.4413702e+01 7.4435389e+01 7.4457075e+01 7.4478762e+01 7.4500449e+01 7.4522135e+01 7.4543822e+01 7.4565509e+01 7.4587196e+01 7.4608882e+01 7.4630569e+01 7.4652256e+01 7.4673942e+01 7.4695629e+01 7.4717316e+01 7.4731564e+01 7.4741753e+01 7.4751943e+01 7.4762133e+01 7.4772322e+01 7.4782512e+01 7.4792702e+01 7.4802891e+01 7.4813081e+01 7.4823271e+01 7.4833461e+01 7.4843650e+01 7.4853840e+01 7.4864030e+01 7.4874219e+01 7.4884409e+01 7.4894599e+01 7.4904788e+01 7.4914978e+01 7.4925168e+01 7.4935357e+01 7.4945547e+01 7.4955737e+01 7.4965927e+01 7.4976116e+01 7.4986306e+01 7.4996496e+01 7.5006685e+01 7.5015160e+01 7.5011329e+01 7.5007499e+01 7.5003668e+01 7.4999838e+01 7.4996008e+01 7.4992177e+01 7.4988347e+01 7.4984516e+01 7.4980686e+01 7.4976855e+01 7.4973025e+01 7.4969195e+01 7.4965364e+01 7.4961534e+01 7.4957703e+01 7.4953873e+01 7.4950043e+01 7.4946212e+01 7.4942382e+01 7.4938551e+01 7.4934721e+01 7.4930891e+01 7.4927060e+01 7.4923230e+01 7.4919399e+01 7.4915569e+01 7.4911738e+01 7.4907908e+01 7.4913914e+01 7.4926542e+01 7.4939170e+01 7.4951798e+01 7.4964425e+01 7.4977053e+01 7.4989681e+01 7.5002309e+01 7.5014936e+01 7.5027564e+01 7.5040192e+01 7.5052820e+01 7.5065447e+01 7.5078075e+01 7.5090703e+01 7.5103330e+01 7.5115958e+01 7.5128586e+01 7.5141214e+01 7.5153841e+01 7.5166469e+01 7.5179097e+01 7.5191725e+01 7.5204352e+01 7.5216980e+01 7.5229608e+01 7.5242236e+01 7.5254863e+01 7.5267067e+01 7.5273889e+01 7.5280710e+01 7.5287532e+01 7.5294353e+01 7.5301175e+01 7.5307996e+01 7.5314818e+01 7.5321640e+01 7.5328461e+01 7.5335283e+01 7.5342104e+01 7.5348926e+01 7.5355747e+01 7.5362569e+01 7.5369390e+01 7.5376212e+01 7.5383033e+01 7.5389855e+01 7.5396677e+01 7.5403498e+01 7.5410320e+01 7.5417141e+01 7.5423963e+01 7.5430784e+01 7.5437606e+01 7.5444427e+01 7.5451249e+01 7.5458070e+01 7.5463893e+01 7.5468893e+01 7.5473894e+01 7.5478894e+01 7.5483894e+01 7.5488894e+01 7.5493894e+01 7.5498895e+01 7.5503895e+01 7.5508895e+01 7.5513895e+01 7.5518895e+01 7.5523896e+01 7.5528896e+01 7.5533896e+01 7.5538896e+01 7.5543896e+01 7.5548896e+01 7.5553897e+01 7.5558897e+01 7.5563897e+01 7.5568897e+01 7.5573897e+01 7.5578898e+01 7.5583898e+01 7.5588898e+01 7.5593898e+01 7.5598898e+01 7.5604133e+01 7.5619027e+01 7.5633920e+01 7.5648814e+01 7.5663708e+01 7.5678602e+01 7.5693496e+01 7.5708390e+01 7.5723284e+01 7.5738177e+01 7.5753071e+01 7.5767965e+01 7.5782859e+01 7.5797753e+01 7.5812647e+01 7.5827540e+01 7.5842434e+01 7.5857328e+01 7.5872222e+01 7.5887116e+01 7.5902010e+01 7.5916904e+01 7.5931797e+01 7.5946691e+01 7.5961585e+01 7.5976479e+01 7.5991373e+01 7.6006267e+01 7.6021161e+01 7.6036054e+01 7.6050948e+01 7.6065842e+01 7.6080736e+01 7.6095630e+01 7.6110524e+01 7.6125418e+01 7.6140311e+01 7.6155205e+01 7.6170099e+01 7.6184993e+01 7.6199887e+01 7.6214781e+01 7.6229675e+01 7.6244568e+01 7.6259462e+01 7.6274356e+01 7.6289250e+01 7.6304144e+01 7.6319038e+01 7.6333932e+01 7.6348825e+01 7.6363719e+01 7.6378613e+01 7.6393507e+01 7.6408401e+01 7.6423295e+01 7.6438189e+01 7.6453082e+01 7.6467976e+01 7.6482870e+01 7.6497764e+01 7.6512658e+01 7.6527552e+01 7.6542446e+01 7.6557339e+01 7.6572233e+01 7.6587127e+01 7.6602021e+01 7.6616915e+01 7.6631809e+01 7.6646703e+01 7.6661596e+01 7.6676490e+01 7.6691384e+01 7.6706278e+01 7.6721172e+01 7.6736066e+01 7.6750960e+01 7.6765853e+01 7.6780747e+01 7.6795641e+01 7.6810535e+01 7.6825429e+01 7.6840323e+01 7.6855217e+01 7.6870110e+01 7.6885004e+01 7.6899898e+01 7.6914792e+01 7.6929686e+01 7.6944580e+01 7.6959474e+01 7.6974367e+01 7.6989261e+01 7.7004155e+01 7.7019049e+01 7.7033943e+01 7.7048837e+01 7.7063730e+01 7.7078624e+01 7.7093518e+01 7.7108412e+01 7.7123306e+01 7.7138200e+01 7.7153094e+01 7.7167987e+01 7.7182881e+01 7.7197775e+01 7.7212669e+01 7.7227563e+01 7.7242457e+01 7.7257351e+01 7.7272244e+01 7.7287138e+01 7.7302032e+01 7.7316926e+01 7.7331820e+01 7.7346714e+01 7.7361608e+01 7.7376501e+01 7.7391395e+01 7.7406289e+01 7.7421183e+01 7.7436077e+01 7.7450971e+01 7.7465865e+01 7.7480758e+01 7.7495652e+01 7.7510546e+01 7.7525440e+01 7.7540334e+01 7.7555228e+01 7.7570122e+01 7.7585015e+01 7.7599909e+01 7.7614803e+01 7.7629697e+01 7.7644591e+01 7.7659485e+01 7.7674379e+01 7.7689272e+01 7.7704166e+01 7.7719060e+01 7.7733954e+01 7.7748848e+01 7.7763742e+01 7.7778636e+01 7.7793529e+01 7.7808423e+01 7.7823317e+01 7.7838211e+01 7.7853105e+01 7.7867999e+01 7.7882893e+01 7.7897786e+01 7.7912680e+01 7.7927574e+01 7.7942468e+01 7.7957362e+01 7.7972256e+01 7.7987150e+01 7.8002043e+01 7.8016937e+01 7.8031831e+01 7.8046725e+01 7.8061619e+01 7.8076513e+01 7.8091407e+01 7.8106300e+01 7.8121194e+01 7.8136088e+01 7.8150982e+01 7.8165876e+01 7.8180770e+01 7.8195664e+01 7.8210557e+01 7.8225451e+01 7.8240345e+01 7.8255239e+01 7.8270133e+01 7.8285027e+01 7.8299920e+01 7.8314814e+01 7.8329708e+01 7.8344602e+01 7.8359496e+01 7.8374390e+01 7.8389284e+01 7.8404177e+01 7.8419071e+01 7.8433965e+01 7.8448859e+01 7.8463753e+01 7.8478647e+01 7.8493541e+01 7.8508434e+01 7.8523328e+01 7.8538222e+01 7.8553116e+01 7.8568010e+01 7.8582904e+01 7.8597798e+01 7.8612691e+01 7.8627585e+01 7.8642479e+01 7.8657373e+01 7.8672267e+01 7.8687161e+01 7.8702055e+01 7.8716948e+01 7.8731842e+01 7.8746736e+01 7.8761630e+01 7.8776524e+01 7.8791418e+01 7.8806312e+01 7.8821205e+01 7.8836099e+01 7.8850993e+01 7.8865887e+01 7.8880781e+01 7.8895675e+01 7.8910569e+01 7.8925462e+01 7.8940356e+01 7.8955250e+01 7.8970144e+01 7.8985038e+01 7.8999932e+01 7.9014826e+01 7.9029719e+01 7.9044613e+01 7.9059507e+01 7.9074401e+01 7.9089295e+01 7.9104189e+01 7.9119083e+01 7.9133976e+01 7.9148870e+01 7.9163764e+01 7.9178658e+01 7.9193552e+01 7.9208446e+01 7.9223340e+01 7.9238233e+01 7.9253127e+01 7.9268021e+01 7.9282915e+01
