1.2098233e-01 3.3862915e-01 4.1452852e-01 5.1130189e-01 5.3195153e-01 4.3558233e-01 3.0369357e-01 2.3598240e-01 2.3792642e-01 2.2232117e-01 2.6397700e-01 2.5801685e-01 2.8256345e-01 2.4894421e-01 2.8705077e-01 3.5652824e-01 4.6587045e-01 3.8315140e-01 3.2333851e-01 2.0845626e-01 2.9863436e-01 1.3470561e-01 3.8065345e-01 1.5506610e+00 4.1449517e-01 3.2945361e-01 2.9459792e-01 3.0533683e-01 3.4678835e-01 3.7375384e-01 4.1360461e-01 4.7162610e-01 5.5460739e-01 6.1497456e-01 6.7964642e-01 5.6754566e-01 4.4683917e-01 3.7657663e-01 3.8288300e-01 3.6023712e-01 4.0891096e-01 3.9464767e-01 4.2177727e-01 3.8536405e-01 4.7718446e-01 4.8996339e-01 6.3858372e-01 4.9465238e-01 4.8864317e-01 3.4464140e-01 4.9639373e-01 1.9815847e-01 8.6925768e-01 1.6053218e+00 3.6986903e-01 5.8001136e-01 3.9232456e-01 5.4194437e-01 4.8910471e-01 5.8544990e-01 5.5805182e-01 6.7441369e-01 7.1788701e-01 8.2932059e-01 8.1413340e-01 7.3919857e-01 5.7473693e-01 5.6680566e-01 5.1773101e-01 5.7092829e-01 5.5240110e-01 5.9000005e-01 5.7303727e-01 7.0365250e-01 7.4266271e-01 7.8605880e-01 6.3787964e-01 6.0211227e-01 5.7238045e-01 6.0634174e-01 4.6852989e-01 1.8896504e+00 1.0003190e+00 6.1737140e-01 7.2086941e-01 6.3694567e-01 7.4044665e-01 7.2208911e-01 8.0716752e-01 8.1270588e-01 9.2799445e-01 9.6913814e-01 1.0737964e+00 9.6601569e-01 8.5014836e-01 7.5810743e-01 7.7633653e-01 7.5090035e-01 8.1480580e-01 7.6213735e-01 8.2165496e-01 7.8396997e-01 9.1724822e-01 9.1963003e-01 1.0474540e+00 8.7264528e-01 8.9215170e-01 7.2357605e-01 9.1499673e-01 5.2536362e-01 1.7529963e+00 1.7165699e+00 7.3944016e-01 9.8012490e-01 8.0165951e-01 9.7611824e-01 8.7130169e-01 1.0013310e+00 9.4787999e-01 1.0949215e+00 1.1283128e+00 1.2314531e+00 1.1693432e+00 1.0602749e+00 9.3786672e-01 9.4674729e-01 9.0889153e-01 9.2635207e-01 9.3056293e-01 9.6796514e-01 9.6571404e-01 9.3719956e-01 9.9111961e-01 1.0681396e+00 1.1460552e+00 1.0541392e+00 9.7229706e-01 8.8409957e-01 1.0155559e+00 7.0142159e-01 1.5099714e+00 2.1058804e+00 8.5958185e-01 1.1334454e+00 8.8277924e-01 1.1008933e+00 9.6727119e-01 1.1333609e+00 1.0358567e+00 1.2334776e+00 1.1878087e+00 1.3620582e+00 1.2617589e+00 1.2345982e+00 1.0356748e+00 1.0909728e+00 9.7528223e-01 1.0761481e+00 9.9878780e-01 1.1083621e+00 9.8851334e-01 1.0873671e+00 9.7438171e-01 1.1534203e+00 1.1180770e+00 1.2481749e+00 1.0277840e+00 1.0798876e+00 8.9223069e-01 1.1029767e+00 6.8212810e-01 1.9489193e+00 1.7625494e+00 9.0679610e-01 1.0953747e+00 9.6131469e-01 1.0626497e+00 1.0232495e+00 1.0866405e+00 1.0934926e+00 1.1862828e+00 1.2308697e+00 1.2887610e+00 1.2786946e+00 1.1379618e+00 1.0211710e+00 9.9576631e-01 9.7882379e-01 9.8369413e-01 1.0158340e+00 9.8803739e-01 1.0195738e+00 9.5862717e-01 1.0436564e+00 1.0593132e+00 1.1743699e+00 1.0933232e+00 1.0371996e+00 9.2370232e-01 9.9129533e-01 8.0727334e-01 1.1247175e+00 2.2155898e+00 1.0745731e+00 1.0072161e+00 9.5111001e-01 9.9436873e-01 9.9429335e-01 1.0084934e+00 1.0594458e+00 1.0888804e+00 1.1775466e+00 1.2155800e+00 1.2799674e+00 1.1437740e+00 1.0415996e+00 9.2437365e-01 9.5302326e-01 9.0743334e-01 9.5453214e-01 9.0462817e-01 9.5824156e-01 8.9309067e-01 9.9504791e-01 9.9266380e-01 1.1171068e+00 9.7945088e-01 9.8116010e-01 7.8691752e-01 9.8627583e-01 6.2045162e-01 1.3967130e+00 2.0073017e+00 7.8611991e-01 1.0114579e+00 8.2271304e-01 9.6660055e-01 8.9998184e-01 1.0002373e+00 9.7449438e-01 1.0973077e+00 1.1177941e+00 1.2327260e+00 1.2166426e+00 1.1102821e+00 9.6015663e-01 9.2154860e-01 9.0487326e-01 9.1658004e-01 9.2242527e-01 9.2963498e-01 9.1697410e-01 9.1762261e-01 1.0177773e+00 1.0501698e+00 1.1046179e+00 9.4372793e-01 9.2279882e-01 8.5444184e-01 9.1488996e-01 7.0239833e-01 2.0853039e+00 1.3780021e+00 8.2094364e-01 9.8663071e-01 8.5627941e-01 9.7763274e-01 9.3935478e-01 1.0177873e+00 1.0180896e+00 1.1102620e+00 1.1699892e+00 1.2530515e+00 1.1710837e+00 1.0206710e+00 9.4045822e-01 9.1978407e-01 9.1631448e-01 9.1495583e-01 9.2720958e-01 9.2749214e-01 9.4373258e-01 9.1325592e-01 9.9212918e-01 1.0524073e+00 1.1295170e+00 9.8806838e-01 9.6350926e-01 8.4649893e-01 9.8393024e-01 6.4343419e-01 1.6864461e+00 1.8587676e+00 7.7945864e-01 1.0625111e+00 8.2999395e-01 1.0463893e+00 8.9397692e-01 1.0485628e+00 9.6462153e-01 1.1516495e+00 1.1186202e+00 1.2655119e+00 1.1542128e+00 1.1155448e+00 9.0080704e-01 9.5078030e-01 8.5874600e-01 9.2789199e-01 8.8780012e-01 9.3389632e-01 8.6725641e-01 9.4231116e-01 8.6424581e-01 9.3537321e-01 8.3924695e-01 1.0280266e+00 1.0010576e+00 1.0901334e+00 9.1454162e-01 9.2469834e-01 8.1999170e-01 9.2248861e-01 6.5016140e-01 2.0600984e+00 1.3655036e+00 8.5244303e-01 9.6896267e-01 8.7440927e-01 9.6495034e-01 9.4649401e-01 1.0046615e+00 1.0300301e+00 1.0942599e+00 1.1773702e+00 1.2344029e+00 1.2046821e+00 1.0302665e+00 9.5920023e-01 9.1548210e-01 9.4293328e-01 9.1807595e-01 9.4880118e-01 9.2518037e-01 9.6842515e-01 9.3456282e-01 9.5654601e-01 9.2915915e-01 9.5685037e-01 9.2923107e-01 1.0111307e+00 1.0425477e+00 1.1485872e+00 1.0449323e+00 1.0243308e+00 8.9030195e-01 1.0402638e+00 7.2842649e-01 1.3660170e+00 2.1377479e+00 9.3600534e-01 1.0795850e+00 9.3907594e-01 1.0543915e+00 9.9500885e-01 1.0644222e+00 1.0462520e+00 1.1771418e+00 1.1817171e+00 1.3159458e+00 1.2545640e+00 1.2549710e+00 1.0245343e+00 1.0393625e+00 9.6002265e-01 1.0149807e+00 9.6435257e-01 1.0266876e+00 9.8412886e-01 1.0203984e+00 9.6137080e-01 1.0047112e+00 9.3448088e-01 1.0083578e+00 9.3083403e-01 1.0507514e+00 1.0330745e+00 1.1847739e+00 9.7191054e-01 1.0254190e+00 8.3027605e-01 1.0383955e+00 6.3337062e-01 1.8370842e+00 1.7259412e+00 8.1709227e-01 1.0590995e+00 8.7054767e-01 1.0146103e+00 9.4338502e-01 1.0405213e+00 1.0208427e+00 1.1414301e+00 1.1621834e+00 1.2927167e+00 1.2389821e+00 1.1203031e+00 9.5554116e-01 9.3896868e-01 9.1319546e-01 9.2275533e-01 9.0320496e-01 9.4662875e-01 9.1060237e-01 9.3735625e-01 9.0063228e-01 9.3797968e-01 9.8147531e-01 1.0740269e+00 1.0507847e+00 9.5914178e-01 8.6937599e-01 8.7429772e-01 8.3972141e-01 7.9631543e-01 2.0956902e+00 1.1750051e+00 8.4277251e-01 9.3408934e-01 8.6574970e-01 9.5773792e-01 9.0965774e-01 1.0057379e+00 9.8340006e-01 1.1230796e+00 1.1592886e+00 1.2613127e+00 1.1317359e+00 9.9892238e-01 8.7276033e-01 8.8211524e-01 8.5147552e-01 8.7480026e-01 8.4252370e-01 8.9216763e-01 8.4991139e-01 8.9812542e-01 8.2702859e-01 9.0328751e-01 9.1121990e-01 1.0239425e+00 1.0042585e+00 9.1280177e-01 7.8613121e-01 8.4285668e-01 7.0725453e-01 9.2562693e-01 2.0601072e+00 9.8241378e-01 8.5880738e-01 8.4425462e-01 8.6153432e-01 8.7478375e-01 8.9580245e-01 9.3830527e-01 9.6705255e-01 1.0725510e+00 1.1225150e+00 1.2056889e+00 1.0736879e+00 9.5079738e-01 8.3772994e-01 8.3758155e-01 7.9568237e-01 8.4955241e-01 8.2709772e-01 8.5020005e-01 8.0312082e-01 8.4065171e-01 7.9983967e-01 8.7470025e-01 8.7678627e-01 1.0173950e+00 9.0785899e-01 8.6669367e-01 7.2181481e-01 8.3952592e-01 6.0509634e-01 1.0453840e+00 2.0064072e+00 8.4100671e-01 8.4969190e-01 7.7589306e-01 8.3017651e-01 8.0418576e-01 8.6570681e-01 8.7414005e-01 9.4662115e-01 1.0061114e+00 1.0804009e+00 1.1217034e+00 1.0109396e+00 8.4734871e-01 7.8805615e-01 7.7485913e-01 7.7563663e-01 7.6305752e-01 7.7534983e-01 7.8475076e-01 7.8816332e-01 7.5846086e-01 7.5931999e-01 7.6898687e-01 7.5008425e-01 7.8282191e-01 8.2570153e-01 9.2817583e-01 8.7544319e-01 8.0176900e-01 7.0304245e-01 7.4009998e-01 6.2939664e-01 7.9682485e-01 2.0170775e+00 8.5786924e-01 7.6416524e-01 7.2189477e-01 7.4416913e-01 7.6009636e-01 7.7829000e-01 7.9224006e-01 8.6087974e-01 9.2583954e-01 1.0097190e+00 1.0500384e+00 9.6171196e-01 8.0090552e-01 7.1202788e-01 6.9917294e-01 6.7502801e-01 6.9518127e-01 6.7561139e-01 6.9593430e-01 6.6720031e-01 7.0863801e-01 6.4916909e-01 7.2499124e-01 7.5613458e-01 8.7119373e-01 7.3104229e-01 7.1272560e-01 5.6701675e-01 7.1471525e-01 4.0077067e-01 1.0870390e+00 1.7721913e+00 5.2988232e-01 7.4540100e-01 5.7286889e-01 7.0688216e-01 6.3544637e-01 7.4272101e-01 7.0012883e-01 8.4471705e-01 8.4279993e-01 9.9867837e-01 9.4287845e-01 8.8109653e-01 6.8418102e-01 6.5084223e-01 6.0901322e-01 6.4611590e-01 6.2450012e-01 6.4810054e-01 6.0797503e-01 6.6157434e-01 6.0928876e-01 6.4275058e-01 5.8739871e-01 6.5481351e-01 7.0413236e-01 7.9265975e-01 7.4396551e-01 6.6753027e-01 5.7512440e-01 6.0897563e-01 4.9380025e-01 6.2731310e-01 1.8206110e+00 7.9093710e-01 6.1603947e-01 6.2587591e-01 6.3074628e-01 6.4361493e-01 6.5610398e-01 7.2333719e-01 7.4252278e-01 8.3272821e-01 8.8547674e-01 9.6204033e-01 8.7565547e-01 7.2921938e-01 6.1446344e-01 6.1053552e-01 6.0059755e-01 6.1579706e-01 6.0544568e-01 6.2658196e-01 6.1440336e-01 6.1457699e-01 5.9298068e-01 5.8545184e-01 6.1421194e-01 6.9250822e-01 7.4685811e-01 7.2563266e-01 6.1021629e-01 5.6364047e-01 5.6257100e-01 4.8014018e-01 5.9072326e-01 1.8125130e+00 7.5125727e-01 6.0501608e-01 5.7235773e-01 6.0372958e-01 5.9905613e-01 6.4014302e-01 6.4432692e-01 7.2446508e-01 7.7167599e-01 8.8761675e-01 8.9468560e-01 8.4652914e-01 6.5598523e-01 5.9925224e-01 5.3290915e-01 5.6194696e-01 5.5008592e-01 5.7494979e-01 5.3709730e-01 5.8613805e-01 5.3833111e-01 5.8150561e-01 5.3450137e-01 5.6729280e-01 5.1961298e-01 5.9901536e-01 6.1863358e-01 7.2228264e-01 6.5060758e-01 6.1274496e-01 4.7885300e-01 5.9450439e-01 3.7426450e-01 7.1552795e-01 1.7655812e+00 5.5271328e-01 6.2099755e-01 5.1646641e-01 5.8903854e-01 5.7481477e-01 6.2723043e-01 6.3482917e-01 7.0774121e-01 7.6819698e-01 8.7919842e-01 8.8822273e-01 8.3707333e-01 6.2364877e-01 5.9867998e-01 5.4513608e-01 5.6132330e-01 5.3626759e-01 5.8108895e-01 5.5834007e-01 5.8607414e-01 5.4210118e-01 5.8079183e-01 5.1314695e-01 5.6293346e-01 5.2009243e-01 6.1344225e-01 6.2796477e-01 7.3438506e-01 6.0176016e-01 5.7539362e-01 4.1565314e-01 6.0688991e-01 2.0618366e-01 1.2842337e+00 1.4253108e+00 3.6396357e-01 6.4218709e-01 3.9547184e-01 5.9775535e-01 4.6386849e-01 6.3303937e-01 5.4073632e-01 7.0464466e-01 6.9023255e-01 8.4188834e-01 7.7527343e-01 6.9382421e-01 4.8221550e-01 5.0772027e-01 3.8990863e-01 4.9061990e-01 4.0808688e-01 4.8483026e-01 3.9176305e-01 4.8450571e-01 3.9678955e-01 4.7014603e-01 3.6808142e-01 4.4245479e-01 3.7234920e-01 5.1205972e-01 4.6746153e-01 6.3384964e-01 4.6486150e-01 5.0372155e-01 2.9408121e-01 4.9228725e-01 1.2292662e-01 1.0026695e+00 1.4851795e+00 3.5147731e-01 5.4043581e-01 3.6890779e-01 4.9847536e-01 4.4642748e-01 5.2683578e-01 5.2762352e-01 6.0858574e-01 6.5859016e-01 7.8267506e-01 7.7367010e-01 6.7340889e-01 5.0895423e-01 4.5055936e-01 4.4434495e-01 4.4726401e-01 4.4392456e-01 4.4990330e-01 4.6536744e-01 4.4671366e-01 4.8182879e-01 4.1783262e-01 5.4612643e-01 5.5671327e-01 6.5567995e-01 4.9048749e-01 5.0840420e-01 3.6083147e-01 5.1814086e-01 1.4988903e-01 1.3066412e+00 1.3155832e+00 3.0981322e-01 5.7593092e-01 3.6914163e-01 5.4550540e-01 4.3365201e-01 5.7322264e-01 5.2382738e-01 6.5357482e-01 6.8000302e-01 8.1911939e-01 7.4515585e-01 6.4176600e-01 4.3739837e-01 4.7608334e-01 3.9089003e-01 4.4552679e-01 3.8717345e-01 4.5436129e-01 3.9297447e-01 4.7228129e-01 4.8271538e-01 5.9379177e-01 5.3940787e-01 4.7911887e-01 3.5663030e-01 3.9903792e-01 2.6645331e-01 4.4572814e-01 1.6723066e+00 5.4827713e-01 4.0368377e-01 4.0197066e-01 3.7889705e-01 4.2383842e-01 4.2948131e-01 4.9977670e-01 4.9258006e-01 6.2133091e-01 6.6624286e-01 7.5448169e-01 6.0931652e-01 4.7929298e-01 3.6087624e-01 3.8116096e-01 3.3262084e-01 3.8355342e-01 3.1891057e-01 4.4127584e-01 4.5233354e-01 5.8319526e-01 4.1964663e-01 4.0532762e-01 2.3932887e-01 4.1980464e-01 2.6772952e-02 9.1844100e-01 1.4038653e+00 1.9173337e-01 4.5757922e-01 2.5360031e-01 4.0175775e-01 3.0558952e-01 4.3622152e-01 3.8946277e-01 5.3036977e-01 5.4787116e-01 6.5691762e-01 6.0019026e-01 5.3060959e-01 3.3617233e-01 3.7041168e-01 2.7607496e-01 3.4249641e-01 3.0016854e-01 3.9547182e-01 4.1500765e-01 5.2108895e-01 4.4636673e-01 3.9379741e-01 2.5198605e-01 3.3790596e-01 1.3568576e-01 4.3996713e-01 1.5893821e+00 4.2657294e-01 3.5171170e-01 3.2171291e-01 3.4195422e-01 3.5157359e-01 3.8008533e-01 4.2374287e-01 4.7149706e-01 5.4730778e-01 6.0717563e-01 6.7008793e-01 5.1887201e-01 4.1092961e-01 3.2499047e-01 3.5301396e-01 3.2693532e-01 3.6027375e-01 3.3766452e-01 4.6365647e-01 4.8526004e-01 5.7128286e-01 3.9374214e-01 4.0842321e-01 2.4369161e-01 4.2941046e-01 2.0952409e-03 1.2673506e+00 1.2086736e+00 2.2546207e-01 4.8000409e-01 2.6362862e-01 4.3515611e-01 3.4530345e-01 4.8022304e-01 4.1523000e-01 5.5673555e-01 5.6491535e-01 6.8593900e-01 6.0105498e-01 4.7464296e-01 3.4007591e-01 3.5043966e-01 3.2454411e-01 3.3587449e-01 3.2808462e-01 3.6096333e-01 3.1160339e-01 3.7304559e-01 4.1255332e-01 5.0636000e-01 4.7133087e-01 3.6379509e-01 2.8578576e-01 3.0553846e-01 2.2473155e-01 2.9878053e-01 1.5879366e+00 5.5836938e-01 3.0386989e-01 3.6034186e-01 3.0665615e-01 3.6032229e-01 3.5561026e-01 4.3388471e-01 4.3351300e-01 5.2309927e-01 5.9251666e-01 6.4836762e-01 5.3119689e-01 4.0478252e-01 3.0948588e-01 3.0807101e-01 2.9468913e-01 3.3220749e-01 2.8618426e-01 3.1255773e-01 3.1006577e-01 3.2255921e-01 2.7740121e-01 3.2125655e-01 3.6204587e-01 4.5706825e-01 4.1285959e-01 3.3393549e-01 2.6032758e-01 2.7717695e-01 1.7703465e-01 2.5015090e-01 1.5094975e+00 4.5422575e-01 2.7264268e-01 2.8380723e-01 2.8362108e-01 3.3219518e-01 3.1355276e-01 3.7049359e-01 4.0308645e-01 4.9761799e-01 5.5659752e-01 6.0167001e-01 5.1936105e-01 3.8313870e-01 2.8517251e-01 2.6922559e-01 2.5391489e-01 2.5598178e-01 2.9865904e-01 2.5756397e-01 2.7729973e-01 2.6374668e-01 2.7198642e-01 2.7385804e-01 3.3463393e-01 3.7737491e-01 4.5682538e-01 2.9643481e-01 2.7753003e-01 1.8057115e-01 2.6221949e-01 2.3318720e-02 1.2916394e+00 8.0857532e-01 1.2675703e-01 3.6068061e-01 1.8350597e-01 3.3083220e-01 2.4202574e-01 3.8595852e-01 3.4032738e-01 4.8369115e-01 4.6183396e-01 6.2147229e-01 5.3794912e-01 4.0148065e-01 2.3599225e-01 2.5499491e-01 2.1066962e-01 2.8249090e-01 2.1697932e-01 2.8823148e-01 2.3716454e-01 3.1763906e-01 2.4871717e-01 2.9594235e-01 2.3010514e-01 3.1303180e-01 2.2712294e-01 3.2748132e-01 3.2375111e-01 4.6863429e-01 3.4962957e-01 3.4769310e-01 1.7114606e-01 3.5581360e-01 3.2394717e-02 6.2834483e-01 1.4190211e+00 2.5961272e-01 3.5367185e-01 2.5037778e-01 3.1061414e-01 3.1002715e-01 3.5988311e-01 3.8239093e-01 4.3632795e-01 5.1482683e-01 6.1604059e-01 6.4790152e-01 5.2262161e-01 3.7469650e-01 3.0529568e-01 2.9703854e-01 2.7841207e-01 2.9862295e-01 2.8335981e-01 3.1015118e-01 3.0085302e-01 3.1059516e-01 2.8937590e-01 3.0922859e-01 2.9366043e-01 3.0545971e-01 2.7021327e-01 3.1569251e-01 2.6763315e-01 3.5283319e-01 3.6411040e-01 4.4239369e-01 3.9066982e-01 3.6033259e-01 2.6226916e-01 3.1395267e-01 1.8665454e-01 3.8830284e-01 1.5192065e+00 4.5484282e-01 3.4319637e-01 3.4745785e-01 3.2428343e-01 3.7166378e-01 3.6812930e-01 4.2792506e-01 4.5888555e-01 5.3967438e-01 6.1768918e-01 6.9254633e-01 5.9972817e-01 4.4293561e-01 3.1229559e-01 3.3144164e-01 2.6738044e-01 3.1409045e-01 2.8248473e-01 3.1000975e-01 2.9394820e-01 3.1981662e-01 2.7781630e-01 3.3393127e-01 2.6785959e-01 3.0975730e-01 2.5037122e-01 3.2274309e-01 2.4126162e-01 3.7006350e-01 3.4187090e-01 4.6419020e-01 3.0688835e-01 3.4240229e-01 1.7509094e-01 3.8040874e-01 -2.0576210e-02 9.4366431e-01 1.2059327e+00 1.6336228e-01 4.0657809e-01 2.1646662e-01 3.6206853e-01 2.8087273e-01 3.9655254e-01 3.6196983e-01 4.6951262e-01 5.1918905e-01 6.5160733e-01 6.3854931e-01 5.3036436e-01 3.2584727e-01 2.8051634e-01 2.3313350e-01 2.5237816e-01 2.3572326e-01 2.6247309e-01 2.4545752e-01 2.6538616e-01 2.6309168e-01 2.5452238e-01 2.6722792e-01 2.3467020e-01 2.5932579e-01 2.3433645e-01 2.8923024e-01 3.5299941e-01 4.0017186e-01 3.3168465e-01 3.1278406e-01 2.1325998e-01 2.7686236e-01 1.2163543e-01 3.7135114e-01 1.5074291e+00 3.4978045e-01 3.2029450e-01 2.5436291e-01 3.1853395e-01 3.0243200e-01 3.5218033e-01 3.7724972e-01 4.2049960e-01 5.3117757e-01 5.9563360e-01 6.9331308e-01 5.9841141e-01 4.0081831e-01 2.9899662e-01 2.6942545e-01 2.7470428e-01 2.5873597e-01 2.7023159e-01 2.7327129e-01 2.7719670e-01 2.9025813e-01 2.6864416e-01 2.9789147e-01 2.5176256e-01 3.0070850e-01 2.4299828e-01 3.0271888e-01 2.4217562e-01 3.7088621e-01 3.5768771e-01 4.4365443e-01 3.2285886e-01 3.3066644e-01 1.9463427e-01 3.5367711e-01 1.5171326e-02 9.5575248e-01 1.2501392e+00 1.7138115e-01 4.1909034e-01 2.2555387e-01 3.6432191e-01 2.9181189e-01 4.0356463e-01 3.6275167e-01 4.8495441e-01 5.4261703e-01 6.5739710e-01 6.8464446e-01 5.3935095e-01 3.5112731e-01 2.9874074e-01 2.6473702e-01 2.6468351e-01 2.5351417e-01 2.7414846e-01 2.6157491e-01 2.7070396e-01 2.5672438e-01 2.7602679e-01 2.6786558e-01 2.4826000e-01 2.4218067e-01 2.2798602e-01 2.5861635e-01 2.2232350e-01 3.1994531e-01 3.2122960e-01 4.0383316e-01 2.6009747e-01 2.9327004e-01 1.3781738e-01 2.9918351e-01 -5.8398892e-02 8.8223727e-01 1.2284592e+00 9.0965806e-02 3.4414976e-01 1.3953748e-01 3.0116206e-01 1.9997653e-01 3.2225674e-01 2.7446421e-01 3.9494264e-01 4.2924115e-01 5.9243166e-01 5.8012283e-01 4.8326446e-01 2.4163065e-01 2.0704041e-01 1.5678554e-01 1.6584261e-01 1.5262676e-01 1.6520604e-01 1.4395581e-01 1.8036743e-01 1.4447921e-01 1.6531573e-01 1.5802128e-01 1.3100520e-01 1.4899422e-01 1.1418415e-01 2.2030176e-01 2.3718290e-01 2.8233423e-01 1.8121056e-01 1.6781458e-01 4.9768547e-02 2.0644770e-01 -1.5987704e-01 8.1669984e-01 1.0871266e+00 -3.8529490e-02 2.8555584e-01 2.6073652e-02 2.5647400e-01 9.7306600e-02 2.6936777e-01 1.8604349e-01 3.5566199e-01 3.7018303e-01 5.4149160e-01 5.1448794e-01 4.4873054e-01 1.7226591e-01 1.9965794e-01 9.3593444e-02 1.7434575e-01 8.4894689e-02 1.8545968e-01 9.5133697e-02 1.8053462e-01 1.1507743e-01 1.7643289e-01 1.0910935e-01 1.6785059e-01 1.0482861e-01 2.6904860e-01 2.3476098e-01 2.9818688e-01 1.3415099e-01 1.5468383e-01 5.6700048e-02 1.4193538e-01 -4.4695610e-02 1.3547799e+00 4.8645830e-01 1.3031468e-01 1.5992417e-01 1.5433197e-01 1.7767921e-01 2.0377767e-01 2.3639041e-01 2.7165390e-01 3.5928054e-01 4.7535746e-01 5.4727361e-01 5.2927762e-01 2.9698026e-01 2.0909662e-01 1.3185077e-01 1.6244047e-01 1.2020640e-01 1.6742580e-01 1.3113754e-01 1.6436847e-01 1.4038018e-01 1.6774346e-01 1.3729078e-01 1.5696508e-01 1.4434009e-01 2.7803722e-01 2.6582431e-01 2.7911928e-01 1.6280311e-01 1.6969196e-01 9.4946480e-02 1.1428385e-01 5.4500881e-02 1.4182258e+00 3.9975408e-01 1.6553891e-01 1.6977181e-01 1.7839689e-01 1.9977104e-01 2.3728652e-01 2.1867198e-01 3.1172621e-01 3.7068837e-01 5.0490602e-01 5.6470521e-01 5.2446231e-01 2.9323848e-01 2.1381667e-01 1.6220550e-01 1.6783882e-01 1.4707823e-01 1.7933051e-01 1.5215454e-01 1.9437317e-01 1.5209758e-01 1.9911933e-01 1.4026835e-01 1.9950287e-01 1.4138410e-01 2.0450558e-01 1.4412202e-01 2.6526316e-01 2.6686530e-01 3.4717686e-01 2.0707323e-01 2.3574395e-01 7.3158974e-02 2.8696454e-01 -1.2252034e-01 8.9341805e-01 1.1389857e+00 7.5107590e-02 3.1609434e-01 1.0786838e-01 2.7788432e-01 1.9210480e-01 3.0119933e-01 2.5853566e-01 3.7805016e-01 4.4655782e-01 5.5174551e-01 5.5788050e-01 4.7773435e-01 2.6416907e-01 2.2432240e-01 1.6027894e-01 1.9424826e-01 1.9617200e-01 2.0409656e-01 1.7635177e-01 1.8624256e-01 2.0004692e-01 1.9840691e-01 1.7637884e-01 1.5987857e-01 1.7670910e-01 1.7884011e-01 1.8470989e-01 2.7415814e-01 2.8330692e-01 2.9595624e-01 2.0844697e-01 1.7990047e-01 1.3014127e-01 1.4767342e-01 2.2572997e-02 1.3839179e+00 5.3801214e-01 1.0782388e-01 2.4379779e-01 1.4657015e-01 2.4506759e-01 2.0180682e-01 2.8235786e-01 2.8164647e-01 3.9892098e-01 4.6839083e-01 5.8525033e-01 5.3139835e-01 3.6210727e-01 2.0972040e-01 1.9009925e-01 1.4625270e-01 1.7019316e-01 1.5738131e-01 1.7705759e-01 1.4573464e-01 1.9146591e-01 1.6793530e-01 1.7857220e-01 1.6669539e-01 2.7509150e-01 2.7642323e-01 3.1772156e-01 1.5784132e-01 1.7505974e-01 9.8922008e-02 1.3040332e-01 8.9167076e-03 1.4064882e+00 4.3165804e-01 1.3353886e-01 1.7610112e-01 1.6966405e-01 2.0556362e-01 2.0956864e-01 2.4663259e-01 2.9627143e-01 3.8486165e-01 4.8602995e-01 5.5264645e-01 5.2896168e-01 3.1418374e-01 2.0324052e-01 1.4648869e-01 1.7088364e-01 1.3292679e-01 1.6937839e-01 1.3981685e-01 1.8051031e-01 1.4756976e-01 1.8097034e-01 1.2205702e-01 2.0680488e-01 2.2482918e-01 3.4843438e-01 2.5413541e-01 2.1333925e-01 6.6650367e-02 1.9625636e-01 -6.0009491e-02 3.9752714e-01 1.3502691e+00 1.5938764e-01 1.9769351e-01 1.3829474e-01 1.8627837e-01 1.6935601e-01 2.2693330e-01 2.5296741e-01 3.0907227e-01 3.7360403e-01 5.0251158e-01 5.6153827e-01 4.4878751e-01 2.6484709e-01 1.6487804e-01 1.6101187e-01 1.3815925e-01 1.4473172e-01 1.4125554e-01 1.6714892e-01 1.5677453e-01 1.6039261e-01 1.3731475e-01 1.6266400e-01 1.4011355e-01 2.3696527e-01 2.6632689e-01 3.3522978e-01 2.0085799e-01 1.8690077e-01 5.3574155e-02 2.0762652e-01 -1.2877579e-01 1.0506614e+00 9.2348623e-01 -1.2528573e-03 2.8574142e-01 6.6973483e-02 2.6865967e-01 1.3566382e-01 2.8666887e-01 2.3691289e-01 3.8748039e-01 3.8826130e-01 5.6841470e-01 5.0258584e-01 4.1164141e-01 1.9791899e-01 1.9514802e-01 1.3429651e-01 1.9496349e-01 1.5105666e-01 1.9104659e-01 1.3868754e-01 2.1418181e-01 1.3845616e-01 2.1170979e-01 1.1930043e-01 2.0849087e-01 1.0588362e-01 2.7253782e-01 2.2896457e-01 3.7545185e-01 1.9057074e-01 2.3034995e-01 5.5746459e-02 2.6122497e-01 -1.3566179e-01 8.5698484e-01 1.1319510e+00 4.6040485e-02 2.8805277e-01 1.0502011e-01 2.5495087e-01 1.7572877e-01 2.8336276e-01 2.6331053e-01 3.5727224e-01 4.1947946e-01 5.3012134e-01 5.3823680e-01 4.2162361e-01 2.4457726e-01 2.0809487e-01 1.4751474e-01 1.7534034e-01 1.7310723e-01 1.7749213e-01 1.6241808e-01 1.8431370e-01 1.6552931e-01 1.6343231e-01 1.5009067e-01 1.5216566e-01 1.4037392e-01 1.5920992e-01 2.2594110e-01 2.9580280e-01 2.5819728e-01 1.7719605e-01 1.0969140e-01 1.2328693e-01 2.7919048e-02 1.1110880e-01 1.3856178e+00 2.9517348e-01 1.2773875e-01 1.2510715e-01 1.3094784e-01 1.4454486e-01 1.6702094e-01 1.9083743e-01 2.5408904e-01 3.2802103e-01 4.0335788e-01 4.9376069e-01 4.2761152e-01 2.5151596e-01 1.1420093e-01 9.0778295e-02 9.7776848e-02 5.4716393e-02 9.3934702e-02 7.3570302e-02 1.0630671e-01 7.5431983e-02 9.4882074e-02 6.8487401e-02 1.5382041e-01 1.9070737e-01 2.6010150e-01 1.2493379e-01 1.2134835e-01 -2.4506456e-02 1.4174723e-01 -2.1869921e-01 8.8252050e-01 9.1698831e-01 -9.5626123e-02 2.2050095e-01 -1.2774254e-02 1.9180626e-01 5.2546078e-02 2.1736552e-01 1.5347951e-01 3.1219178e-01 3.0592707e-01 5.0248620e-01 4.1985891e-01 3.5081098e-01 1.0076219e-01 1.3264502e-01 3.2515108e-02 1.0471945e-01 3.9372470e-02 1.1924198e-01 4.1350269e-02 1.2195908e-01 4.7375062e-02 1.1206142e-01 2.8259255e-02 1.6426118e-01 1.3886622e-01 2.9817373e-01 1.1400271e-01 1.3571420e-01 -4.3704191e-02 1.5319072e-01 -2.2094431e-01 5.5993221e-01 1.1460425e+00 -2.1026456e-02 1.5916546e-01 -3.2679717e-03 1.3242224e-01 5.9011915e-02 1.7156468e-01 1.2233356e-01 2.3490658e-01 2.8359792e-01 4.2217412e-01 4.2317914e-01 3.3137574e-01 1.1633462e-01 9.1946836e-02 3.0018771e-02 7.0939407e-02 2.4807821e-02 6.1577609e-02 4.9178432e-02 6.8919304e-02 4.8274105e-02 6.6038700e-02 2.0696348e-02 1.5123815e-01 1.7624144e-01 2.2959004e-01 7.9962230e-02 6.2411307e-02 -3.1101258e-02 7.0158066e-02 -2.0434966e-01 1.0540604e+00 6.6521746e-01 -7.5316728e-02 1.5167419e-01 -1.9720595e-02 1.1626607e-01 5.1417644e-02 1.7700753e-01 1.0775452e-01 2.6376857e-01 2.9168147e-01 4.3943976e-01 3.6219276e-01 2.5155425e-01 5.9982231e-02 6.4673792e-02 9.3168239e-03 4.5657148e-02 1.1488468e-02 5.9169632e-02 1.8725793e-02 5.1699525e-02 8.1352255e-03 6.0635419e-02 1.0677734e-03 5.0931960e-02 -4.4457104e-03 1.3543138e-01 1.4569667e-01 1.9704911e-01 3.5727446e-02 3.9811454e-02 -5.0480525e-02 1.5974881e-02 -1.4383687e-01 1.2385891e+00 3.3727898e-01 -1.0260297e-02 5.2720318e-02 2.4107569e-02 4.3255006e-02 7.2616525e-02 9.1639650e-02 1.5420429e-01 2.0083358e-01 3.1971525e-01 3.3983417e-01 3.4358943e-01 1.5791411e-01 7.1824184e-02 -3.6915907e-03 1.0090152e-02 -2.8728012e-02 4.0733302e-02 -1.1221779e-02 3.9649463e-02 -1.8422116e-02 3.6147788e-02 -2.7214423e-02 3.5226974e-02 -4.4982951e-02 3.6901020e-02 -5.8838040e-02 7.6879628e-02 6.7987041e-02 1.9765613e-01 2.6088334e-02 6.6225040e-02 -1.2768245e-01 9.7689635e-02 -3.2410797e-01 6.9326601e-01 9.2628938e-01 -1.1638779e-01 8.8917672e-02 -8.2981846e-02 3.9657267e-02 -2.9955680e-02 7.6244404e-02 4.3078722e-02 1.4711901e-01 1.8833061e-01 3.2422535e-01 2.9785751e-01 2.1477868e-01 2.1285825e-02 -2.5713261e-02 -5.3204590e-02 -6.6803866e-02 -5.2119179e-02 -5.4769233e-02 -2.6480737e-02 -6.6276186e-02 -3.4859542e-02 -4.9521844e-02 3.8593712e-02 7.1019947e-02 1.2467183e-01 -1.8914091e-02 -4.4200160e-02 -1.2607339e-01 -5.8045854e-02 -2.4952183e-01 1.1137819e+00 3.5032667e-01 -1.4865622e-01 1.2678037e-02 -7.7827503e-02 7.6543802e-03 -1.3927107e-02 4.9859897e-02 5.7525216e-02 1.9256586e-01 2.3425240e-01 3.4207837e-01 3.1861302e-01 1.1509630e-01 -1.4061938e-02 -6.2467943e-02 -4.4014565e-02 -7.3824122e-02 -3.9134993e-02 -7.6087662e-02 -2.5792586e-02 -5.9420249e-02 2.6197071e-02 4.5445713e-02 1.6832118e-01 9.7677499e-03 1.1170020e-02 -1.4929446e-01 1.2377614e-02 -3.0934635e-01 6.0920309e-01 9.7376486e-01 -2.1378246e-01 1.0378503e-01 -1.2435702e-01 5.4102773e-02 -5.6578725e-02 8.1598604e-02 2.7073885e-02 1.7711911e-01 1.9924903e-01 3.3993787e-01 3.0337456e-01 2.2396446e-01 9.1088182e-03 1.4326747e-02 -7.3397474e-02 5.1796989e-03 -6.5617525e-02 1.5908142e-02 -3.5376700e-02 1.9172693e-03 -1.8552173e-02 1.0392371e-01 1.1059360e-01 1.5697614e-01 -1.5308023e-02 -2.0675909e-02 -7.6112310e-02 -9.3090108e-02 -6.9271239e-02 1.2264079e+00 1.8001118e-01 -2.4329163e-02 -1.8144567e-02 -1.4660941e-02 4.2356158e-03 3.2851677e-02 4.5468712e-02 1.1025202e-01 1.7385790e-01 2.8272241e-01 3.1243904e-01 2.7649262e-01 6.4944868e-02 6.9160332e-03 -5.4637344e-02 -2.7461036e-02 -6.1495150e-02 -1.4406166e-02 -6.0712049e-02 -1.2996553e-03 -7.5987788e-02 -1.3478218e-02 -6.6004216e-02 2.9315469e-02 5.5716552e-02 1.5923762e-01 -8.8160003e-03 7.2555879e-03 -1.6338895e-01 2.4288127e-02 -3.5638845e-01 6.3959906e-01 9.1909066e-01 -1.8607452e-01 8.0168084e-02 -1.3443603e-01 4.1296971e-02 -4.7512879e-02 6.7003928e-02 5.7999204e-03 1.5417380e-01 1.5983738e-01 3.1145914e-01 2.5032595e-01 1.9875247e-01 -1.7470560e-02 -1.3052708e-02 -8.9392856e-02 -3.4396721e-02 -6.8267518e-02 -1.6647894e-02 -7.3732258e-02 -2.0156021e-02 -7.3742775e-02 -3.6305952e-02 -7.5757280e-02 -3.8755703e-02 -1.1064023e-01 -4.4442610e-02 -9.9571695e-02 3.3699506e-02 -5.5540489e-03 1.4019160e-01 -4.6121506e-02 1.8623057e-02 -1.6979890e-01 2.5159948e-02 -3.6512239e-01 6.5236632e-01 8.9074609e-01 -1.7808346e-01 5.2053286e-02 -1.2566249e-01 1.9622542e-02 -6.7393084e-02 4.4355310e-02 2.3743731e-03 1.2384267e-01 1.6379236e-01 2.9013294e-01 2.8360850e-01 1.8535978e-01 5.7486346e-03 -2.6991538e-02 -7.4792830e-02 -6.3130921e-02 -6.3342933e-02 -4.5516122e-02 -4.8548548e-02 -4.9486790e-02 -5.5537124e-02 -5.0258419e-02 -7.0425085e-02 -6.5527920e-02 1.1000585e-02 3.8858443e-02 1.1196252e-01 -3.7467295e-02 -4.9291530e-02 -1.4741701e-01 -5.6387411e-02 -3.1599614e-01 9.9398006e-01 4.3619144e-01 -1.8692524e-01 2.9592113e-02 -1.4134960e-01 1.5918260e-02 -8.8259371e-02 6.3132892e-02 1.3378198e-02 1.6248659e-01 1.5603072e-01 3.4254624e-01 2.4703804e-01 1.4527012e-01 -7.1352231e-02 -4.3212069e-02 -1.0989397e-01 -4.5939850e-02 -1.2147230e-01 -3.8719875e-02 -1.0698410e-01 -2.2520278e-02 -1.1044280e-01 5.9321005e-02 1.8433339e-02 1.4235530e-01 -5.6203540e-02 -3.1094179e-02 -1.7447172e-01 -1.1993610e-02 -3.3473154e-01 1.0228810e+00 4.7803200e-01 -1.6056291e-01 3.1114452e-02 -1.0255655e-01 4.1134406e-03 -4.8481513e-02 6.3387910e-02 5.1757430e-02 1.4884796e-01 2.2024800e-01 3.3918702e-01 2.9175938e-01 1.2400392e-01 -2.6265497e-02 -3.8238648e-02 -6.5124035e-02 -5.7704815e-02 -7.6490472e-02 -4.4335920e-02 -4.8100360e-02 -2.7460411e-02 -6.3978796e-02 -2.1091148e-02 6.0552763e-02 1.0779230e-01 6.5038868e-02 -1.2381822e-02 -8.8952929e-02 -5.9508225e-02 -1.9684111e-01 4.3473609e-02 1.1999162e+00 5.0512208e-02 -2.9157824e-03 -6.0936187e-02 -2.8953094e-02 -4.0698165e-02 2.8250757e-02 1.9728709e-02 1.0526342e-01 1.3963971e-01 2.6533395e-01 2.9630099e-01 2.4110936e-01 1.9481522e-02 -1.2903269e-02 -9.0772745e-02 -4.9064419e-02 -9.8602756e-02 -4.4963834e-02 -8.9578887e-02 -2.1074195e-02 -1.1389662e-01 2.3543929e-02 1.9676107e-02 1.4799186e-01 -4.8186176e-02 -1.9605745e-02 -2.1593445e-01 4.0186062e-03 -4.0099643e-01 6.1516674e-01 8.9092690e-01 -2.1670036e-01 3.1961997e-02 -1.5984713e-01 -2.3524601e-02 -1.0951671e-01 2.3845613e-03 -1.4131824e-02 8.2354044e-02 1.3470282e-01 2.3271026e-01 2.3368470e-01 1.1513038e-01 -6.6665710e-02 -1.3541767e-01 -1.2466791e-01 -1.1024078e-01 -1.3556472e-01 -1.2539846e-01 -1.2967516e-01 -1.2870741e-01 -1.3549250e-01 -1.2751781e-01 -7.2360466e-02 -7.4582483e-04 1.7487942e-02 -1.0947344e-01 -1.1624873e-01 -2.2448286e-01 -1.2511023e-01 -3.8050825e-01 9.5629622e-01 4.1362766e-01 -2.6031087e-01 -4.5327047e-02 -2.2009707e-01 -6.6603929e-02 -1.5812793e-01 -2.5233753e-02 -6.9970084e-02 6.9240276e-02 9.0081957e-02 2.4157004e-01 1.3478525e-01 2.3518251e-02 -1.4990565e-01 -1.2446412e-01 -1.9642476e-01 -1.3436192e-01 -2.0750001e-01 -1.3328396e-01 -1.6296611e-01 -1.1903964e-01 -7.7925150e-02 1.2725261e-02 -3.6666133e-02 -1.0074940e-01 -2.1532841e-01 -1.7737570e-01 -2.7760417e-01 -1.2870013e-01 1.1214806e+00 1.2314621e-02 -1.7987212e-01 -1.3038506e-01 -1.6271753e-01 -1.0372963e-01 -1.3420248e-01 -3.5142913e-02 -3.3012397e-02 6.3546592e-02 1.4335970e-01 2.3265106e-01 1.1645958e-01 -3.7579045e-02 -1.5629860e-01 -1.3463058e-01 -1.8296882e-01 -1.3623304e-01 -1.6165006e-01 -1.3989100e-01 -1.5667655e-01 -1.0837339e-01 -5.3894859e-02 3.0599294e-02 -1.6045000e-02 -1.0548443e-01 -1.8162247e-01 -1.5349190e-01 -2.4080727e-01 -1.4894672e-01 1.1142351e+00 6.5693911e-02 -1.5051396e-01 -1.1187129e-01 -1.5026718e-01 -8.1377463e-02 -9.5559717e-02 -4.0876180e-02 2.1369837e-03 8.2003149e-02 1.6425984e-01 2.4843692e-01 1.4805333e-01 -7.2727201e-03 -1.0680841e-01 -1.1332475e-01 -1.4031156e-01 -1.2073296e-01 -1.3219852e-01 -8.9789304e-02 -1.3131317e-01 -9.5030910e-02 -1.3838178e-01 -5.0849358e-02 -1.2446194e-02 8.1448833e-02 -3.7777688e-02 -4.7137835e-02 -2.0005542e-01 -6.1419857e-02 -3.1139049e-01 1.7178975e-01 1.1035411e+00 -1.0010368e-01 -2.9842389e-02 -1.2493336e-01 -5.6547876e-02 -7.0765072e-02 -6.7422996e-03 -2.2130849e-02 8.7089397e-02 1.0793197e-01 2.5332680e-01 2.5831218e-01 1.7996634e-01 1.1196845e-02 -5.1786574e-02 -9.6264293e-02 -6.5536103e-02 -7.1638403e-02 -3.5464170e-02 -7.8395112e-02 -3.2429556e-02 -7.5999345e-02 -2.6960976e-02 -8.2180232e-02 -4.3056264e-02 -7.6922205e-02 3.2468415e-02 5.3951454e-02 1.4462554e-01 -2.7658997e-02 -8.2679218e-03 -1.4089041e-01 -4.6955525e-03 -3.1036249e-01 9.8887543e-01 5.9717936e-01 -1.6120932e-01 7.2600610e-02 -9.6701526e-02 4.3003539e-02 -3.2218702e-02 6.8736820e-02 4.1663769e-02 1.8204112e-01 1.8402295e-01 3.2037140e-01 2.7189571e-01 1.7725187e-01 -2.4311804e-02 8.5008101e-03 -5.7286609e-02 -1.1324044e-02 -4.2627566e-02 -6.6461918e-03 -2.7884253e-02 -8.5923102e-04 -5.1195360e-02 1.1746085e-02 -7.2464922e-02 7.7328229e-02 7.1062712e-02 1.7084860e-01 -1.7769692e-02 3.7754739e-02 -1.3443541e-01 4.1209312e-02 -3.2927612e-01 8.5657503e-01 7.8278138e-01 -1.6446816e-01 9.4503087e-02 -8.6410078e-02 4.3171365e-02 -3.1004413e-02 9.0660865e-02 4.5651139e-02 1.8465216e-01 1.8684518e-01 3.4769117e-01 2.7690752e-01 1.7664251e-01 -2.7309844e-02 -1.9776422e-02 -8.3270880e-02 -3.6475827e-02 -9.3107489e-02 -2.5587124e-02 -9.6152097e-02 -1.6675647e-02 -1.1919837e-01 7.5081976e-03 1.2912912e-03 1.2505875e-01 -1.5439008e-02 -2.2354204e-02 -1.6975107e-01 -2.5265717e-02 -3.4892572e-01 3.3382471e-01 1.0357494e+00 -1.9661384e-01 7.4377672e-03 -1.6970091e-01 -3.3343616e-02 -1.0225583e-01 -4.6222878e-03 -2.6911500e-02 6.4501918e-02 1.3480497e-01 2.4753803e-01 2.4188218e-01 1.5659338e-01 -5.6647637e-02 -8.3522476e-02 -1.2805939e-01 -1.2679003e-01 -1.1365178e-01 -1.2601354e-01 -1.0760335e-01 -1.2275184e-01 -4.4030141e-02 -1.3903495e-02 6.7960367e-02 -4.3896233e-02 -8.5892657e-02 -2.0934723e-01 -7.7293671e-02 -3.9323891e-01 5.2904847e-01 9.0628127e-01 -2.9665042e-01 2.7605272e-02 -2.1654157e-01 -1.7968630e-02 -1.5440891e-01 1.1054262e-02 -7.9078444e-02 1.0031320e-01 7.7280219e-02 2.8063262e-01 1.7988311e-01 1.3734302e-01 -1.0106575e-01 -5.9880179e-02 -1.6940289e-01 -7.7232300e-02 -1.7989599e-01 -4.0366505e-02 -1.6123670e-01 -5.1305408e-02 -1.8536435e-01 3.0623739e-02 -1.6818073e-02 1.2086525e-01 -1.0296363e-01 -5.2051010e-02 -2.1134110e-01 -2.0491125e-02 -4.0315999e-01 8.4892563e-01 6.1112343e-01 -1.9750784e-01 6.4898301e-03 -1.4099463e-01 -1.4445524e-02 -5.5593004e-02 5.1229214e-03 2.7675097e-02 1.1143602e-01 1.9117947e-01 2.6973729e-01 2.5917352e-01 1.0999511e-01 -1.6871071e-02 -6.1389598e-02 -6.6110126e-02 -6.1422870e-02 -4.8787816e-02 -6.1543660e-02 -3.8518496e-02 -6.9974570e-02 -1.8525876e-02 -7.8952008e-02 -1.9130000e-02 3.4617106e-02 1.2816450e-01 5.4190931e-02 4.3103953e-03 -1.2878901e-01 -2.1934002e-02 -2.1430315e-01 8.0624122e-02 1.1538832e+00 6.4100734e-02 -1.1265943e-02 -4.4696055e-02 -2.3757712e-02 -2.7409282e-02 2.7260191e-02 3.9590444e-02 9.4073315e-02 1.7407020e-01 2.3640928e-01 3.2648041e-01 2.1721222e-01 7.0764069e-02 -2.4376108e-02 -2.3938370e-02 -4.8852378e-02 -2.2020875e-02 -5.2156296e-02 -1.3152030e-02 -3.6623465e-02 -2.5699109e-02 -3.3302400e-02 -2.0309262e-02 -6.6842329e-02 -1.3992193e-02 -7.2988761e-02 4.7649598e-02 4.1434941e-02 1.6380938e-01 7.6409921e-03 4.6183254e-02 -1.4652708e-01 5.5373084e-02 -3.1055070e-01 6.2736718e-01 9.5122404e-01 -1.3155352e-01 1.0131218e-01 -9.2139538e-02 6.9643116e-02 -2.7003249e-02 8.3052074e-02 4.9826868e-02 1.7251600e-01 1.9206078e-01 3.1056593e-01 3.0210700e-01 2.4205415e-01 3.8239302e-02 1.1950767e-02 -3.3355573e-02 -6.3055623e-03 -2.3805716e-02 3.7906605e-03 -7.6367497e-03 -1.1929364e-02 -2.5272782e-02 -7.5415874e-03 -4.3371633e-02 -1.3138832e-02 -4.7515682e-02 -3.7037591e-02 -2.1891782e-02 5.9451376e-02 1.0726323e-01 6.8599079e-02 -1.6081602e-02 -6.9166560e-02 -3.0864043e-02 -1.4574225e-01 -3.2550932e-03 1.2214974e+00 1.2229904e-01 -1.3173068e-02 -2.4083558e-02 -1.0330340e-02 7.3972236e-03 2.1879717e-02 5.1400186e-02 1.0860074e-01 1.6785417e-01 2.8058447e-01 3.1368059e-01 2.7064600e-01 9.0647530e-02 1.1930480e-02 -5.9150115e-02 -1.5344368e-02 -5.3838408e-02 -1.3781507e-02 -4.7334053e-02 -3.0890985e-04 -6.2076981e-02 -1.5082446e-02 -5.8969677e-02 5.6209114e-03 3.0475738e-02 1.2579010e-01 3.6743322e-02 7.1386428e-03 -1.1896087e-01 -2.1118607e-03 -2.5151884e-01 2.5002307e-01 1.1148086e+00 -1.3668768e-01 6.8739424e-02 -1.0507168e-01 1.1729030e-02 -6.5730444e-02 5.4446594e-02 2.3584634e-02 1.2489870e-01 1.5189383e-01 3.0941779e-01 3.1134752e-01 2.4273570e-01 7.0109966e-04 -1.7573410e-02 -1.1222107e-01 -3.5461842e-02 -1.1784575e-01 -4.9554659e-02 -1.1312117e-01 9.3480964e-03 7.4244264e-03 1.4005288e-01 -5.7253085e-03 1.0519391e-03 -2.0242516e-01 8.1585448e-03 -3.6930156e-01 4.4008580e-01 1.0501529e+00 -1.9604152e-01 2.0509553e-02 -1.4535854e-01 -3.5282303e-02 -7.1925541e-02 6.0328502e-03 -8.5479251e-03 9.6523124e-02 1.4340935e-01 2.6870853e-01 2.7520273e-01 1.4506995e-01 -1.7512653e-02 -9.7715831e-02 -9.7756220e-02 -1.1397697e-01 -1.0753849e-01 -1.1716041e-01 -4.9729660e-02 -1.7085928e-03 9.5861547e-02 5.6236249e-03 -5.6644189e-02 -1.7956211e-01 -8.0039638e-02 -3.3585400e-01 2.4781163e-01 1.1138969e+00 -2.1688172e-01 -4.0053968e-03 -2.0813111e-01 -2.7786981e-02 -1.5093050e-01 -2.0962607e-02 -5.7234467e-02 5.9936957e-02 5.6404194e-02 2.4359191e-01 1.9570340e-01 1.3064719e-01 -9.4364349e-02 -8.1327086e-02 -1.7203299e-01 -9.2600443e-02 -1.8090586e-01 -7.1276914e-02 -1.7669310e-01 -2.7732007e-02 -2.5450312e-02 8.7968733e-02 -9.2595839e-02 -7.8670058e-02 -2.5642139e-01 -4.6359159e-02 -4.7052160e-01 6.7044264e-01 7.9684183e-01 -2.7648906e-01 -1.7995435e-02 -2.0758566e-01 -6.8208259e-02 -1.3521262e-01 -3.4276413e-02 -4.4184847e-02 4.8208301e-02 8.3371182e-02 2.1125541e-01 1.7087992e-01 6.8963512e-02 -8.8522682e-02 -1.2652810e-01 -1.3124408e-01 -1.4050035e-01 -1.0705333e-01 -1.2056490e-01 -9.7240696e-02 -1.2134119e-01 -6.4230641e-02 4.6137928e-03 7.8105323e-02 -4.2372247e-02 -7.7949192e-02 -2.0693769e-01 -6.7300301e-02 -3.7788756e-01 4.2162795e-01 1.0162748e+00 -2.4001899e-01 3.0955552e-02 -1.9560694e-01 -1.1405485e-02 -1.2460166e-01 2.1428990e-02 -6.0972781e-02 9.1902118e-02 7.8324409e-02 2.4298118e-01 1.8356578e-01 1.3228203e-01 -9.6491283e-02 -5.0676942e-02 -1.5445918e-01 -6.7415114e-02 -1.5782374e-01 -6.0409227e-02 -1.4070438e-01 -6.1594175e-02 -1.6166364e-01 -8.1255542e-02 -1.6413828e-01 -3.5258645e-02 -6.4053412e-02 9.9606840e-02 -7.1244480e-02 -2.3244066e-02 -2.4733623e-01 -4.3095378e-02 -3.8504262e-01 2.1394027e-01 1.0511875e+00 -1.2509402e-01 -5.2246528e-02 -1.5935773e-01 -7.7692926e-02 -9.5614049e-02 -3.7482610e-02 -2.9535530e-02 2.9230051e-02 9.2069934e-02 1.7102988e-01 2.3243826e-01 1.2868902e-01 -2.3617171e-02 -1.1680201e-01 -9.8381690e-02 -1.2863960e-01 -1.0748915e-01 -1.2096569e-01 -9.7823812e-02 -1.3300435e-01 -7.9982655e-02 -1.3683707e-01 -1.7207027e-02 -1.6401555e-02 6.8144024e-02 -1.0616974e-01 -1.0214987e-01 -2.0866272e-01 -1.2895278e-01 -3.1472878e-01 1.0754353e+00 2.0685369e-01 -1.7857737e-01 -8.5351282e-02 -1.5063189e-01 -9.2306763e-02 -8.2185072e-02 -4.6502158e-02 2.6974138e-03 5.4375509e-02 1.6977977e-01 2.0795609e-01 1.7689607e-01 -2.0297393e-02 -8.8594415e-02 -1.4859607e-01 -1.2265634e-01 -1.6322132e-01 -1.1214148e-01 -1.4623728e-01 -1.1006104e-01 -1.4117359e-01 -1.6430095e-02 -1.6685237e-02 7.5558387e-02 -1.1458006e-01 -8.5956013e-02 -2.2569904e-01 -6.4382951e-02 -3.9284420e-01 9.5825927e-01 4.2791195e-01 -2.1754191e-01 -3.8451506e-02 -1.6636269e-01 -5.8940514e-02 -8.4315438e-02 -2.2440952e-02 -5.3178697e-03 7.4516318e-02 1.5834158e-01 2.3140495e-01 1.9634829e-01 3.5419574e-02 -7.9733018e-02 -1.0815002e-01 -1.0113344e-01 -1.2791346e-01 -8.5770096e-02 -1.2532325e-01 -6.7199864e-02 -1.1357568e-01 -2.6190263e-03 8.9727555e-03 1.0284316e-01 -7.8002434e-02 -4.5626840e-02 -2.1201641e-01 -3.4328124e-02 -3.9322069e-01 8.7038485e-01 6.0040978e-01 -2.1265149e-01 1.5504711e-02 -1.4438190e-01 -1.4509369e-02 -7.3014466e-02 2.0177884e-02 2.1585774e-03 1.1286292e-01 1.5952817e-01 2.7243434e-01 1.9755936e-01 7.7697094e-02 -5.9609646e-02 -7.9834187e-02 -9.5859050e-02 -8.8232835e-02 -7.3504298e-02 -9.5726283e-02 -6.6671103e-02 -9.0892074e-02 -1.3679670e-02 1.2590760e-02 1.1568920e-01 1.2158296e-02 -2.0449742e-02 -1.8135933e-01 -3.0146619e-02 -3.1680373e-01 3.1830696e-01 1.0864686e+00 -1.4172675e-01 2.5491229e-02 -1.0802880e-01 -8.7575296e-03 -6.8881438e-02 3.0350121e-02 6.7117197e-03 1.1392663e-01 1.3992532e-01 2.5592039e-01 2.5861633e-01 1.7152395e-01 -1.6813690e-02 -3.1578669e-02 -7.9955071e-02 -5.7197629e-02 -5.8933745e-02 -7.0533870e-02 -3.6961585e-02 -7.6067119e-02 1.8404570e-02 2.5875079e-02 1.2723756e-01 2.8695752e-02 -1.3285119e-02 -1.3940735e-01 -2.7350657e-02 -2.9988833e-01 3.2088115e-01 1.1048813e+00 -1.1875942e-01 3.1907013e-02 -1.2358512e-01 1.1791765e-03 -8.4402135e-02 2.8792389e-02 -2.3611789e-02 1.1012761e-01 1.1293858e-01 2.4182665e-01 2.2010314e-01 1.3133685e-01 -3.3478718e-02 -8.0593841e-02 -1.0162779e-01 -1.0809801e-01 -1.0391158e-01 -9.7115790e-02 -9.9106146e-02 -9.2128421e-02 -2.2850915e-02 4.6091184e-03 7.1659737e-02 -7.7818012e-02 -1.0338984e-01 -2.0273012e-01 -1.0276749e-01 -3.7209500e-01 9.5807185e-01 4.4023908e-01 -2.5424301e-01 -2.2039130e-02 -1.9258511e-01 -6.1953683e-02 -1.2892949e-01 -1.6106312e-02 -5.3645532e-02 7.8999446e-02 9.9698842e-02 2.1630676e-01 1.3183922e-01 -6.9645748e-03 -1.2934977e-01 -1.4897098e-01 -1.6472774e-01 -1.6443111e-01 -1.6713130e-01 -1.4581516e-01 -7.5915390e-02 -4.2740080e-02 4.7464053e-02 -1.1855704e-01 -1.2889691e-01 -2.5999053e-01 -1.1748350e-01 -4.6269952e-01 8.2597513e-01 5.6854377e-01 -3.3975184e-01 -3.2213582e-02 -2.4911949e-01 -6.8481202e-02 -1.8940946e-01 -3.4627938e-02 -1.0169427e-01 6.5409125e-02 4.7530779e-02 1.9029609e-01 9.8116778e-02 5.4308273e-03 -1.5463945e-01 -1.3658444e-01 -1.8329633e-01 -1.5500748e-01 -1.6633436e-01 -1.4007260e-01 -1.1242913e-01 -2.3422885e-02 3.8773523e-02 -4.8725881e-02 -1.0746620e-01 -2.3145088e-01 -1.1094522e-01 -3.9634908e-01 3.8080987e-01 9.8216847e-01 -2.9587135e-01 1.5675948e-02 -2.4739979e-01 -2.1688286e-02 -1.7225596e-01 1.1168534e-02 -1.0024316e-01 8.6427664e-02 3.7475428e-02 2.3041458e-01 1.2692301e-01 1.0191362e-01 -1.2544669e-01 -6.0746349e-02 -1.7696116e-01 -6.2747809e-02 -1.6735255e-01 -6.1052301e-02 -1.5441150e-01 -3.2659273e-02 -5.3093094e-02 9.8635949e-02 -3.6912508e-03 -2.8157754e-02 -1.9234721e-01 -8.0490145e-02 -2.6916829e-01 -3.7671987e-03 1.1365080e+00 6.1908142e-02 -1.0702258e-01 -7.9488726e-02 -1.1464649e-01 -5.3853648e-02 -6.1734991e-02 4.1433542e-03 7.1776039e-03 1.1532690e-01 1.5107296e-01 2.3954750e-01 9.9608854e-02 3.1161967e-03 -1.2284103e-01 -9.0260494e-02 -1.3632586e-01 -6.9859853e-02 -1.4799327e-01 -6.9080172e-02 -1.4039468e-01 -7.9871163e-02 -1.4183654e-01 2.7696128e-03 -2.6110823e-03 5.6400739e-02 -1.2080699e-01 -1.0746069e-01 -1.9890742e-01 -1.6087870e-01 -2.4019800e-01 1.1269113e+00 1.1999206e-01 -1.2536172e-01 -1.2758000e-01 -1.0217326e-01 -1.2685742e-01 -6.6035108e-02 -7.3620700e-02 7.1598411e-03 2.7472595e-02 1.3026764e-01 1.4213513e-01 1.2967496e-01 -8.2567466e-02 -1.0209890e-01 -1.9729041e-01 -1.1681028e-01 -2.0211354e-01 -1.1674781e-01 -2.0504762e-01 -1.1891203e-01 -2.0375565e-01 -5.8814187e-02 -9.7763656e-02 4.0520486e-02 -1.7407499e-01 -1.2913096e-01 -3.0034874e-01 -1.2466226e-01 -4.8024290e-01 9.0375322e-01 3.9807262e-01 -2.9975520e-01 -1.0284251e-01 -2.3478973e-01 -1.4038201e-01 -1.6810324e-01 -9.4092930e-02 -8.3969528e-02 -1.0144441e-02 6.1229591e-02 1.0926251e-01 1.1438193e-01 -1.0250872e-01 -1.8290228e-01 -2.3323009e-01 -2.1659199e-01 -2.5254849e-01 -1.9170737e-01 -2.5194141e-01 -1.6306807e-01 -1.4191503e-01 -1.3959188e-02 -1.7038237e-01 -1.5908441e-01 -3.6950843e-01 -1.7987885e-01 -5.4083424e-01 3.0954091e-01 8.3359036e-01 -4.0297825e-01 -1.4315805e-01 -3.2485781e-01 -2.0661410e-01 -2.5410229e-01 -1.7868212e-01 -1.8797970e-01 -1.1192268e-01 -5.3100929e-02 3.1350731e-02 3.4658457e-02 -1.0428058e-01 -2.4049365e-01 -2.8796966e-01 -2.8112527e-01 -3.0217053e-01 -2.9109417e-01 -2.9656384e-01 -1.9162723e-01 -1.6890210e-01 -9.2329381e-02 -2.5560382e-01 -2.7214017e-01 -3.8252849e-01 -2.9508477e-01 -5.4584740e-01 8.2382330e-01 2.0668615e-01 -4.2194767e-01 -2.1446523e-01 -3.7598588e-01 -2.1757146e-01 -2.9044265e-01 -1.9775372e-01 -2.0508004e-01 -9.4687877e-02 -4.3366386e-02 3.5511116e-02 -5.1654229e-02 -1.6900574e-01 -2.7663353e-01 -2.9833280e-01 -3.0772220e-01 -2.8812389e-01 -2.8231587e-01 -2.9105295e-01 -1.7721230e-01 -1.1116922e-01 -9.7802028e-02 -2.3612957e-01 -2.8842507e-01 -3.2224002e-01 -3.0072316e-01 -4.5688110e-01 9.4286945e-01 1.5053308e-01 -3.3081701e-01 -2.0665561e-01 -2.9528008e-01 -2.1056316e-01 -2.2946513e-01 -1.6494325e-01 -1.4863363e-01 -3.4869679e-02 -2.1332958e-04 7.4818178e-02 -1.3195780e-02 -1.2698778e-01 -2.3566220e-01 -2.3574269e-01 -2.3642849e-01 -2.2869896e-01 -2.2736683e-01 -2.2540580e-01 -1.9827071e-01 -1.1206967e-01 -6.4264291e-02 -7.7712323e-02 -1.9374990e-01 -2.5282640e-01 -2.5073270e-01 -3.3205399e-01 -2.1569082e-01 1.0883324e+00 -4.3320963e-02 -2.0364239e-01 -2.3292950e-01 -1.9813775e-01 -1.8193082e-01 -1.4837178e-01 -1.3536556e-01 -8.2765598e-02 -8.4441460e-03 6.6375424e-02 9.2213344e-02 1.6988639e-02 -1.4059343e-01 -1.8527254e-01 -2.0950972e-01 -2.1873360e-01 -2.1355898e-01 -1.9807064e-01 -1.9302087e-01 -2.0365463e-01 -1.9753711e-01 -2.3414503e-01 -1.2407931e-01 -6.7613522e-02 -3.4253225e-02 -1.5897961e-01 -2.0506328e-01 -2.8762564e-01 -1.7079368e-01 -4.8198158e-01 8.1807224e-01 4.1437932e-01 -3.2883003e-01 -8.7741029e-02 -2.8922449e-01 -1.3021246e-01 -2.1940577e-01 -9.0813658e-02 -1.4282262e-01 -6.2344962e-03 -1.6191132e-02 1.3368053e-01 2.5145755e-02 -4.4092718e-02 -2.2810548e-01 -1.7558211e-01 -2.6657190e-01 -1.8203573e-01 -2.4801957e-01 -1.7242505e-01 -2.7315368e-01 -1.6294136e-01 -2.7913845e-01 -1.3869269e-01 -1.6458679e-01 -1.5515879e-02 -1.8957977e-01 -1.4920055e-01 -3.7578515e-01 -1.2516059e-01 -5.4152545e-01 3.5912862e-01 7.5714495e-01 -3.6778536e-01 -1.0176193e-01 -3.0870045e-01 -1.5383409e-01 -2.4250512e-01 -1.1807500e-01 -1.4947426e-01 -4.7062777e-02 7.0183027e-03 8.3906845e-02 8.7835888e-02 -3.5238782e-02 -1.7021290e-01 -2.2314735e-01 -2.4286396e-01 -2.2681588e-01 -2.2788179e-01 -2.1050799e-01 -2.0099863e-01 -2.2566509e-01 -1.9053460e-01 -1.2655972e-01 -4.3702983e-02 -8.4226995e-02 -1.7508701e-01 -2.6552338e-01 -1.9498123e-01 -3.6042995e-01 -8.1182162e-02 1.0460330e+00 -1.7096957e-01 -1.4382266e-01 -2.2851004e-01 -1.5133167e-01 -1.7125791e-01 -1.3337982e-01 -9.5471908e-02 -4.0791964e-02 2.5599919e-02 1.2134181e-01 1.4139838e-01 6.9349750e-02 -1.1027898e-01 -1.4715295e-01 -1.8362519e-01 -1.7470053e-01 -1.7925661e-01 -1.4841295e-01 -1.6033733e-01 -1.4420957e-01 -1.6521505e-01 -4.2432666e-02 -3.3590251e-02 4.4716795e-02 -1.1114698e-01 -1.4449516e-01 -1.9541729e-01 -1.3559280e-01 -3.3551773e-01 1.0199484e+00 2.9358108e-01 -1.8633630e-01 -5.3795907e-02 -1.5306810e-01 -3.9163495e-02 -1.0114479e-01 5.1654588e-03 -1.7473150e-02 1.1969925e-01 1.5054136e-01 2.4383587e-01 1.6733575e-01 3.4451769e-02 -9.2738398e-02 -9.0175923e-02 -1.2490537e-01 -6.9027172e-02 -1.2665654e-01 -4.8150514e-02 -1.1830831e-01 -6.1082340e-02 -1.2560330e-01 -9.3599507e-03 -3.0715432e-03 1.2046698e-01 -4.9907897e-02 -3.7445153e-02 -2.0879300e-01 -8.0712086e-03 -3.9059680e-01 6.0859651e-01 8.4115493e-01 -2.2844006e-01 5.5609498e-02 -1.5896845e-01 6.3435194e-03 -1.1866150e-01 3.6854980e-02 -4.1806729e-03 1.2147886e-01 1.1842995e-01 2.5862074e-01 2.2257960e-01 1.2691416e-01 -6.1623885e-02 -6.6634011e-02 -8.9279307e-02 -4.9153083e-02 -8.7489319e-02 -6.6581312e-02 -6.9335645e-02 -5.6541701e-02 -8.0431932e-02 -4.5215368e-02 -9.3650908e-03 9.3885000e-02 6.5837748e-02 -1.0836742e-02 -1.0790277e-01 -8.0920360e-02 -1.6634952e-01 -1.4795340e-01 1.1224795e+00 2.3328334e-01 -1.0169853e-01 -2.6780219e-02 -9.0727138e-02 -7.4141966e-03 -3.9333187e-02 2.3760864e-02 3.9125710e-02 1.5556896e-01 1.8668314e-01 2.7948919e-01 1.7487120e-01 6.2515640e-02 -8.0527502e-02 -7.2570687e-02 -1.2240123e-01 -4.4470235e-02 -1.0338176e-01 -4.9078645e-02 -1.0003818e-01 -6.1624216e-02 -8.5373217e-02 2.1181020e-02 4.3058332e-02 8.9099426e-02 -5.8752480e-02 -7.1996102e-02 -1.3766424e-01 -1.2659848e-01 -1.9524103e-01 1.1582449e+00 1.3395053e-01 -8.3328096e-02 -7.4896783e-02 -6.6038646e-02 -4.0617611e-02 -1.6249403e-02 9.0647319e-03 5.0343193e-02 1.3055830e-01 2.3620530e-01 2.7037550e-01 2.0878343e-01 3.5404194e-03 -2.7413813e-02 -1.1069218e-01 -6.1427754e-02 -1.1875919e-01 -4.9794824e-02 -1.1232793e-01 -2.5540136e-02 -1.2674878e-01 3.7422857e-02 3.4334082e-03 1.3604871e-01 -6.1415352e-02 -3.2957904e-02 -1.8274167e-01 -2.5291011e-02 -3.6837455e-01 9.6428383e-01 5.1736985e-01 -1.9513162e-01 2.3819742e-02 -1.3901138e-01 -6.4573375e-03 -7.0694302e-02 3.8814523e-02 2.2615593e-02 1.1470629e-01 1.8398294e-01 2.7631654e-01 2.3607318e-01 7.6305349e-02 -4.1953118e-02 -7.7380430e-02 -7.9676526e-02 -7.7849614e-02 -5.2675985e-02 -8.0003708e-02 -4.3169965e-02 -8.3735449e-02 2.9079216e-02 3.6151103e-02 1.2848734e-01 4.1705646e-03 -4.2576287e-02 -1.4922306e-01 -9.3126029e-03 -3.5363758e-01 7.5399187e-01 8.0181467e-01 -2.1470208e-01 7.6276136e-02 -1.3204053e-01 5.0558367e-02 -7.0921801e-02 7.4887677e-02 1.6714414e-02 1.7922743e-01 1.6404841e-01 3.2516825e-01 2.4247487e-01 1.5100806e-01 -4.2640858e-02 -8.2016767e-03 -8.8950296e-02 -9.7297503e-03 -8.4413471e-02 -5.0074060e-03 -6.4451572e-02 6.6462091e-03 -8.6267353e-02 3.2192993e-02 2.2866675e-02 1.7514963e-01 5.9727544e-03 1.4940254e-02 -1.7037771e-01 2.6903065e-02 -3.5421129e-01 5.4813135e-01 9.6846538e-01 -1.7467387e-01 7.2486484e-02 -1.3482759e-01 1.9172058e-02 -5.6497317e-02 5.3948817e-02 1.1878590e-03 1.3790245e-01 1.5217824e-01 2.9325758e-01 2.3376416e-01 1.5701112e-01 -3.1265694e-02 -2.4806872e-02 -8.5860721e-02 -4.5698267e-02 -8.9861246e-02 -2.6356617e-02 -7.4927540e-02 -3.0890709e-02 -1.0350133e-01 -2.7819066e-02 -1.1531881e-01 3.6517968e-02 -4.7064379e-03 1.4428822e-01 -4.9618326e-02 9.7063649e-03 -1.8922600e-01 7.0464867e-03 -3.8133272e-01 6.9977115e-01 7.9841147e-01 -1.9668590e-01 4.9085556e-02 -1.4042955e-01 1.0253276e-02 -8.0329034e-02 4.9514152e-02 7.3935848e-03 1.1164541e-01 1.4699859e-01 2.7356543e-01 2.2475571e-01 1.2550206e-01 -3.4418647e-02 -7.3098151e-02 -8.8479468e-02 -6.2914719e-02 -9.5680368e-02 -5.8118576e-02 -8.8727324e-02 -6.4070805e-02 -8.5085823e-02 -5.8068634e-02 -1.2806323e-02 6.9310391e-02 5.2895977e-02 -4.5101069e-02 -1.1363924e-01 -1.1467425e-01 -1.7693026e-01 -1.3229667e-01 1.1252068e+00 1.2390314e-01 -1.2253454e-01 -6.3779678e-02 -9.2280905e-02 -5.6227747e-02 -5.3158883e-02 1.0557310e-02 3.7273620e-02 1.2924363e-01 1.9147013e-01 2.6747526e-01 1.8027645e-01 1.7371539e-02 -7.2458952e-02 -1.1657155e-01 -1.0836692e-01 -1.0400579e-01 -9.1222762e-02 -9.6212134e-02 -8.3086561e-02 -9.7119555e-02 -6.1671130e-02 1.4827450e-04 7.1019107e-02 2.7281253e-02 -4.0328878e-02 -1.5581047e-01 -7.6945117e-02 -2.6009211e-01 8.7437436e-02 1.1400810e+00 -8.7557300e-02 -2.0702773e-02 -1.2939024e-01 -3.7365077e-02 -7.8631004e-02 -2.0513584e-03 -1.8307405e-02 8.0716572e-02 1.1726213e-01 2.3211036e-01 2.4318151e-01 1.6673713e-01 -1.3464603e-02 -7.6113610e-02 -1.0259137e-01 -1.1250906e-01 -8.7894713e-02 -9.8272211e-02 -8.6916407e-02 -8.8498996e-02 -9.7648696e-02 -1.0281248e-01 -8.8978775e-03 2.8116539e-02 7.3822301e-02 -6.8415589e-02 -8.4046131e-02 -1.7976243e-01 -8.4069126e-02 -3.4012386e-01 9.7074117e-01 4.1968789e-01 -2.0805913e-01 -1.3815916e-02 -1.6490436e-01 -2.2271185e-02 -1.0136545e-01 2.5662201e-02 -3.8544842e-02 1.3004797e-01 1.1906751e-01 2.8136492e-01 1.4720254e-01 7.4260051e-02 -1.0789353e-01 -6.8365196e-02 -1.6432702e-01 -7.6179760e-02 -1.4017949e-01 -5.2778634e-02 -1.3422630e-01 -6.7409624e-02 -1.3561752e-01 -5.9710547e-02 -1.5572193e-01 -3.6000341e-02 -3.4783510e-02 1.1945086e-01 -3.3282556e-02 -3.2284591e-02 -2.1013957e-01 -1.8985035e-02 -3.5427310e-01 2.8089497e-01 1.0334622e+00 -1.3125286e-01 -9.5482338e-03 -1.1972993e-01 -4.7705900e-02 -5.0527772e-02 -2.8853880e-02 -8.6501866e-03 6.1774575e-02 1.5595126e-01 2.0155391e-01 2.3676298e-01 1.4478049e-01 6.0170204e-03 -9.5781901e-02 -8.9245912e-02 -9.8138301e-02 -6.3068944e-02 -9.8866576e-02 -7.1623153e-02 -8.3209189e-02 -5.0946350e-02 -1.1273342e-01 -6.9943477e-02 -9.6992091e-02 1.1186477e-02 1.5099088e-02 1.0848735e-01 -4.2714692e-02 -3.9558189e-02 -1.7713890e-01 -3.0171916e-02 -3.6275153e-01 9.2866698e-01 5.5771149e-01 -1.8533288e-01 2.9693515e-02 -1.3992511e-01 2.1808630e-02 -6.1634053e-02 3.9729315e-02 1.8790986e-02 1.2861733e-01 1.7751938e-01 2.8652798e-01 2.4267589e-01 9.4063855e-02 -5.1560199e-02 -5.2094403e-02 -9.3235606e-02 -7.8640128e-02 -8.3564631e-02 -7.3256912e-02 -6.2056364e-02 -7.0445109e-02 -8.9133273e-02 -7.2956823e-02 -8.4963384e-02 2.7325178e-02 4.8065991e-02 7.5012562e-02 -5.7914939e-02 -1.0119914e-01 -9.6808592e-02 -1.6024578e-01 -1.4079616e-01 1.1355140e+00 8.9955300e-02 -7.8462218e-02 -6.3126678e-02 -9.1948886e-02 -4.0644080e-02 -2.9043476e-02 2.1817688e-02 5.4484661e-02 1.3131854e-01 2.2352921e-01 2.7649333e-01 2.1899077e-01 3.1581240e-02 -7.8815715e-02 -7.8056901e-02 -1.1079251e-01 -8.4164175e-02 -1.1099510e-01 -6.5312254e-02 -9.1905255e-02 -4.0515446e-02 -1.0640764e-02 9.0139242e-02 3.7958904e-02 -5.0524606e-02 -1.5506076e-01 -6.3697010e-02 -2.8001381e-01 1.2073089e-01 1.1614880e+00 -1.1420618e-01 -2.3123899e-02 -1.3151300e-01 -6.1566207e-02 -9.8764000e-02 -6.0514361e-03 -2.9024241e-02 6.5943687e-02 1.0368539e-01 2.3915536e-01 2.2863937e-01 1.6139185e-01 -5.2832205e-02 -7.0578634e-02 -1.4177201e-01 -1.0429492e-01 -1.3058580e-01 -8.8300437e-02 -1.3676309e-01 -7.2905027e-02 -1.5173342e-01 -3.3191995e-03 -1.3441764e-02 9.2712559e-02 -7.5737518e-02 -5.8651982e-02 -2.0761772e-01 -4.5006212e-02 -4.0433288e-01 8.5312842e-01 5.9999572e-01 -2.3122889e-01 1.6860627e-02 -1.6813679e-01 -4.2131828e-03 -9.1319647e-02 7.6393256e-03 -1.9815473e-03 1.1506202e-01 1.4203873e-01 2.5965163e-01 2.1322310e-01 8.2657495e-02 -6.7357408e-02 -7.5303510e-02 -1.1410651e-01 -7.9676625e-02 -9.2251685e-02 -7.4525783e-02 -7.3260494e-02 -7.7423327e-02 -6.1536197e-02 1.7410035e-02 7.2512970e-02 4.4421305e-02 -5.3990487e-02 -1.2699755e-01 -9.2724264e-02 -2.3649327e-01 2.2557343e-02 1.1662684e+00 -1.4401931e-02 -2.8665460e-02 -1.2698037e-01 -5.1324840e-02 -9.1506481e-02 -1.4723986e-02 -2.2201911e-02 6.0585074e-02 1.0179118e-01 2.0901821e-01 2.3328806e-01 1.2715390e-01 -3.9440443e-02 -7.0875310e-02 -1.4552744e-01 -1.1933345e-01 -1.4736973e-01 -1.1415108e-01 -1.3754921e-01 -1.0177736e-01 -1.5730244e-01 -1.2382271e-01 -1.6810559e-01 -1.2282108e-01 -6.3006691e-02 -6.8906267e-03 2.4795587e-03 -1.1672347e-01 -1.8424189e-01 -1.6430413e-01 -2.2647982e-01 -2.8780267e-01 1.0233599e+00 1.9030218e-01 -2.2848212e-01 -9.6523512e-02 -2.0964030e-01 -1.0079370e-01 -1.5724092e-01 -5.0636955e-02 -8.8601475e-02 6.2051790e-02 7.4376190e-02 1.9591810e-01 8.4553969e-02 -2.5090450e-02 -1.8829065e-01 -1.4885247e-01 -2.2828188e-01 -1.6121561e-01 -2.2689928e-01 -1.3572945e-01 -2.2243503e-01 -1.3166214e-01 -2.3438925e-01 -1.1260285e-01 -1.3548720e-01 3.2421169e-02 -1.4760783e-01 -1.1443500e-01 -3.3915356e-01 -1.1328246e-01 -4.9860785e-01 3.8518815e-01 8.2455068e-01 -3.5341941e-01 -9.0669896e-02 -2.6774358e-01 -1.4461660e-01 -2.0206407e-01 -1.2812044e-01 -1.2794855e-01 -2.2461984e-02 2.5484487e-02 1.1152265e-01 1.2623759e-01 -1.4184643e-02 -1.5375080e-01 -2.1659808e-01 -2.2410303e-01 -2.5461078e-01 -2.1678343e-01 -2.4286748e-01 -2.0332830e-01 -2.4345681e-01 -2.2517836e-01 -2.6551636e-01 -1.5228043e-01 -1.5627424e-01 -2.3247686e-02 -1.9343346e-01 -1.7662543e-01 -3.5790218e-01 -1.4855312e-01 -5.4287401e-01 5.2281363e-01 6.5764861e-01 -3.8269417e-01 -1.2006587e-01 -3.0546764e-01 -1.2917992e-01 -2.4101949e-01 -1.1183533e-01 -1.6752708e-01 -1.1389413e-02 -6.6117540e-03 1.4192952e-01 8.4445426e-02 -1.6066271e-03 -2.0118684e-01 -2.1734347e-01 -2.4608292e-01 -2.1755155e-01 -2.5638773e-01 -2.1542727e-01 -2.3023670e-01 -2.1056225e-01 -2.3780928e-01 -2.2938634e-01 -2.5382344e-01 -2.0913607e-01 -1.4237563e-01 -7.0292794e-02 -1.2000496e-01 -1.7576747e-01 -2.7938427e-01 -2.3341421e-01 -3.6820928e-01 -2.1860204e-01 1.0020022e+00 -5.2369959e-02 -2.2181493e-01 -2.1758491e-01 -2.1938857e-01 -1.8495232e-01 -1.7199637e-01 -1.3815064e-01 -9.6147956e-02 -1.7048219e-02 6.8610279e-02 1.2009145e-01 4.7994021e-02 -1.0342489e-01 -2.1615334e-01 -2.1870659e-01 -2.2415523e-01 -2.3326163e-01 -2.1374000e-01 -2.1888220e-01 -2.1905557e-01 -2.1456146e-01 -2.1316016e-01 -2.4791043e-01 -2.2079830e-01 -2.3587870e-01 -2.2697791e-01 -2.4356055e-01 -2.0537605e-01 -1.3895388e-01 -6.8418638e-02 -9.4610151e-02 -1.8746450e-01 -2.2595021e-01 -2.1812446e-01 -3.2675995e-01 -1.7332552e-01 1.0139635e+00 -3.6251935e-02 -1.8489896e-01 -1.9502166e-01 -1.8312969e-01 -1.6485920e-01 -1.5024231e-01 -9.8426849e-02 -7.0210723e-02 5.2464376e-04 8.6642544e-02 1.2584522e-01 1.0507018e-01 -8.2242428e-02 -1.7449772e-01 -2.2283226e-01 -2.1367704e-01 -2.0200465e-01 -2.1540207e-01 -2.0280686e-01 -2.2134230e-01 -1.9604919e-01 -2.4037262e-01 -2.0395452e-01 -2.4766824e-01 -2.3138979e-01 -2.6543159e-01 -1.6809542e-01 -1.6191012e-01 -5.3136883e-02 -1.6024764e-01 -1.6734507e-01 -3.0873302e-01 -1.7382210e-01 -4.8079284e-01 1.9447453e-01 9.2295362e-01 -3.2205919e-01 -1.0931904e-01 -2.9700406e-01 -1.4434316e-01 -2.2400221e-01 -1.1202789e-01 -1.7032137e-01 -3.1004979e-02 -2.2882609e-02 1.5013962e-01 9.3218810e-02 4.8632923e-02 -1.5327363e-01 -1.8561154e-01 -2.6192048e-01 -2.2913784e-01 -2.7028532e-01 -1.9646601e-01 -2.5899884e-01 -2.0892424e-01 -2.6903556e-01 -1.6846401e-01 -1.6854369e-01 -3.5113210e-02 -1.7630606e-01 -1.6830570e-01 -3.1853224e-01 -1.9135773e-01 -4.7308020e-01 9.7729875e-02 9.6881394e-01 -2.9805231e-01 -1.5992265e-01 -2.9082730e-01 -1.8105182e-01 -2.2666851e-01 -1.3390036e-01 -1.6139798e-01 -4.6121145e-02 -7.4034461e-03 1.4010591e-01 1.3524823e-01 5.7276189e-02 -1.5448025e-01 -1.9474843e-01 -2.4656839e-01 -2.1731373e-01 -2.4412376e-01 -1.8671629e-01 -2.5426585e-01 -1.7571663e-01 -2.5661891e-01 -1.3643488e-01 -1.3892175e-01 -1.0769841e-02 -1.5148978e-01 -1.6544909e-01 -3.3216726e-01 -1.5507472e-01 -4.9714934e-01 2.9025096e-01 8.5865921e-01 -3.3545619e-01 -1.0012022e-01 -3.1028311e-01 -1.6988361e-01 -2.3162323e-01 -1.3936995e-01 -1.6058881e-01 -6.4063584e-02 -1.6970497e-02 1.2426561e-01 9.0857396e-02 1.7104443e-02 -2.2149153e-01 -2.0756514e-01 -2.7849801e-01 -2.3445126e-01 -2.7736120e-01 -2.1280671e-01 -2.7640067e-01 -2.2021473e-01 -2.6872100e-01 -1.8550694e-01 -1.5338243e-01 -4.9447461e-02 -1.5528659e-01 -1.7717765e-01 -3.1882959e-01 -1.9905197e-01 -4.4370479e-01 4.8522128e-02 9.8801445e-01 -2.4322454e-01 -1.3927405e-01 -2.6393453e-01 -1.8445517e-01 -2.2233424e-01 -1.3460945e-01 -1.3908965e-01 -4.9000180e-02 6.5625331e-05 9.9931387e-02 1.5806903e-01 3.5226893e-02 -1.2388600e-01 -2.0263451e-01 -2.1394902e-01 -2.0765534e-01 -2.1045509e-01 -2.0998587e-01 -1.8844439e-01 -2.0573731e-01 -1.9295840e-01 -2.3230727e-01 -1.5114846e-01 -1.0815806e-01 -2.0692114e-02 -9.2276107e-02 -1.7331160e-01 -2.5273965e-01 -1.6879025e-01 -3.9980494e-01 1.0713918e-01 1.0508375e+00 -2.2482707e-01 -7.4790175e-02 -2.5498813e-01 -1.1120882e-01 -1.8703087e-01 -7.0150406e-02 -1.2117810e-01 -2.4085253e-04 1.5046077e-02 1.8298222e-01 1.3905880e-01 1.1080159e-01 -1.3000226e-01 -1.3178329e-01 -2.1800518e-01 -1.3296705e-01 -2.0997317e-01 -1.2479262e-01 -2.0947111e-01 -1.3168467e-01 -2.0727794e-01 -5.7448689e-02 -1.0981301e-01 6.3452729e-02 -1.7863144e-01 -1.1035282e-01 -2.9984679e-01 -9.6945647e-02 -4.8942061e-01 8.0234272e-01 5.4561592e-01 -3.1874933e-01 -6.5630426e-02 -2.3446182e-01 -1.0601870e-01 -1.5112815e-01 -7.3241764e-02 -6.4191629e-02 3.5731588e-02 1.0365202e-01 1.7632989e-01 1.6969451e-01 2.1420432e-02 -1.2101903e-01 -1.6395858e-01 -1.8124852e-01 -1.6163928e-01 -1.3467139e-01 -1.5831424e-01 -1.3116997e-01 -1.6029004e-01 -8.2333377e-02 -4.8946746e-02 4.8963787e-02 -2.6576443e-02 -8.9768078e-02 -1.8960743e-01 -1.0911810e-01 -3.0565694e-01 1.4764788e-01 1.1166388e+00 -1.6295518e-01 -3.2052401e-02 -1.5395741e-01 -4.8915019e-02 -9.9568337e-02 -1.8056781e-02 -2.8852450e-02 7.1039929e-02 1.2287093e-01 2.2965705e-01 2.5545231e-01 1.7849693e-01 -2.2138927e-02 -4.9131606e-02 -9.4426518e-02 -5.5092974e-02 -8.8917693e-02 -4.3276749e-02 -7.1487148e-02 -3.7640170e-02 -5.2003073e-02 4.2496321e-02 8.6737374e-02 1.1363815e-01 -1.8460978e-02 -4.6833397e-02 -1.1039544e-01 -5.3850536e-02 -2.2151907e-01 1.1609959e+00 3.6000637e-01 -8.9381766e-02 2.5129207e-02 -4.7028381e-02 3.4853995e-02 -4.1999119e-03 7.5281960e-02 9.5062034e-02 2.1475288e-01 2.5171870e-01 3.4843091e-01 2.7298603e-01 1.2404476e-01 2.2199964e-02 2.4567625e-03 -3.0799538e-02 1.4862925e-02 -1.8961836e-02 3.2475781e-02 -1.0069704e-02 2.9881226e-02 -3.9515834e-02 9.1935584e-02 7.8560410e-02 2.2416984e-01 3.5971490e-02 5.5481278e-02 -1.3910568e-01 8.0141723e-02 -3.0765984e-01 6.2633525e-01 9.7022030e-01 -1.3592583e-01 9.8217053e-02 -8.9424541e-02 3.5955074e-02 -3.8184713e-02 8.5215234e-02 3.0128598e-02 1.6687807e-01 1.5270624e-01 3.0895597e-01 2.6278029e-01 1.7813551e-01 -1.7043569e-02 -1.4075041e-02 -7.9922431e-02 -2.1187953e-02 -7.1958214e-02 -1.4033876e-02 -5.7102144e-02 -3.5217234e-02 -5.8855297e-02 -2.3601238e-02 -8.5284079e-02 4.1217852e-02 3.7368521e-02 1.5773044e-01 -3.5052821e-02 -5.8774319e-05 -1.6283855e-01 1.3363514e-02 -3.5194653e-01 8.8275176e-01 6.7819942e-01 -1.7847791e-01 7.5420554e-02 -1.2252016e-01 4.3568571e-02 -5.7411151e-02 8.0016825e-02 3.2878025e-02 1.7403617e-01 1.6953181e-01 3.2565755e-01 2.4977113e-01 1.6644574e-01 -3.4726215e-02 -1.9533859e-03 -8.6740132e-02 6.9561187e-03 -6.9768120e-02 3.6286266e-03 -6.7986927e-02 2.3476569e-02 -9.1618131e-02 6.6434670e-02 3.7665557e-02 1.8303473e-01 -1.8409532e-02 2.7032054e-02 -1.5473710e-01 5.0335545e-02 -3.6152974e-01 6.8646403e-01 8.7163079e-01 -1.8055778e-01 6.3117910e-02 -1.1746547e-01 2.1364270e-02 -4.6800297e-02 4.2123606e-02 2.9464815e-02 1.4540455e-01 1.9230867e-01 2.8107281e-01 2.7056155e-01 1.4078312e-01 -1.7780289e-02 -6.9772427e-02 -8.3547484e-02 -8.4939192e-02 -7.3311410e-02 -8.0547997e-02 -6.5080480e-02 -1.0462879e-01 1.5851130e-02 -5.5686204e-03 1.3431834e-01 -3.2784993e-02 -3.0210623e-02 -1.8897896e-01 -1.0530395e-02 -3.7383963e-01 5.8985195e-01 9.2224783e-01 -2.4242477e-01 5.3448624e-02 -1.5983089e-01 1.1234424e-02 -1.1294079e-01 3.5414037e-02 -1.0602825e-02 1.2499799e-01 1.5072064e-01 2.6066170e-01 2.4935993e-01 1.3284983e-01 -3.4403803e-02 -5.7303064e-02 -9.3136667e-02 -9.2702040e-02 -6.8053381e-02 -7.6421409e-02 -5.7031623e-02 -7.7579149e-02 7.2546531e-03 2.6272192e-02 1.1848468e-01 8.8645812e-03 -3.8023908e-02 -1.6321229e-01 -1.3894264e-02 -3.5873915e-01 6.1610909e-01 9.2703856e-01 -2.4469908e-01 8.7490215e-02 -1.7509873e-01 2.3023258e-02 -8.8448275e-02 5.7564096e-02 -1.0547533e-02 1.4316430e-01 1.3200091e-01 3.1271641e-01 2.2344005e-01 1.6727189e-01 -6.0985953e-02 -1.1764945e-02 -9.7851777e-02 -3.7900086e-02 -8.8330941e-02 -1.5870508e-02 -7.2419064e-02 9.9314245e-03 3.0897752e-02 1.5503815e-01 7.0660707e-02 1.6157336e-02 -1.0814343e-01 -2.6481129e-02 -1.9422691e-01 6.8173429e-02 1.2469477e+00 1.0033052e-01 -2.2357406e-03 -2.7447628e-02 -2.2328352e-02 4.3151971e-03 3.5455662e-02 5.9273740e-02 1.1235527e-01 2.0360869e-01 2.7638498e-01 3.2034485e-01 2.2455839e-01 5.2151502e-02 1.3213430e-02 -2.3684645e-02 -2.4666650e-02 -2.5860304e-02 -1.0388832e-03 -8.8989017e-03 1.0834800e-02 -2.6676673e-02 7.9128542e-02 9.5143231e-02 1.8221803e-01 3.2029413e-02 1.5130912e-02 -1.1514339e-01 4.3506135e-02 -3.1341460e-01 9.1438061e-01 7.6850134e-01 -1.5903879e-01 1.1043728e-01 -9.1472516e-02 7.9853521e-02 -2.8648319e-02 9.9706099e-02 6.3433048e-02 1.8894007e-01 2.0594323e-01 3.3148227e-01 2.6721098e-01 1.4906055e-01 4.2500802e-03 -6.2758636e-03 -4.3082442e-02 2.4625490e-03 -2.4045004e-02 -1.3797006e-02 -9.1144037e-03 -9.0346120e-03 5.3860694e-03 -2.7381355e-02 4.5174624e-02 9.7400302e-02 1.5823827e-01 5.5196712e-02 1.8756760e-02 -9.8119994e-02 3.7937239e-02 -2.8232226e-01 6.3410133e-01 9.7801402e-01 -1.4963199e-01 1.2765153e-01 -1.1187531e-01 8.4664132e-02 -6.0310212e-02 1.3952535e-01 2.7420912e-02 2.0842151e-01 1.5894493e-01 3.5357520e-01 2.6564499e-01 2.0845665e-01 -1.2445699e-02 1.6872673e-02 -7.0003191e-02 2.7502956e-02 -6.6941466e-02 1.7605125e-02 -6.5097038e-02 4.1841074e-02 -8.9104734e-02 1.0054555e-01 3.3693930e-02 1.9263379e-01 -3.1802223e-02 3.9922759e-02 -1.7458020e-01 4.7400682e-02 -3.6843356e-01 9.4700542e-01 6.2964772e-01 -1.7094752e-01 4.2945642e-02 -1.1027717e-01 2.1256083e-02 -2.4610001e-02 5.2405082e-02 4.9974428e-02 1.5598860e-01 2.1588859e-01 3.2319624e-01 2.6422039e-01 1.1361219e-01 -2.6901266e-02 -2.5485635e-02 -7.2590469e-02 -4.2848437e-02 -6.5442412e-02 -3.3035905e-02 -5.1106909e-02 7.4566913e-03 3.4693316e-02 1.3827484e-01 5.8584453e-02 3.1100775e-03 -1.2635485e-01 -2.1991914e-02 -2.5898393e-01 2.5635757e-01 1.1825733e+00 -9.8996451e-02 4.6190632e-02 -1.2351284e-01 -3.7855493e-03 -4.0984675e-02 5.0505815e-02 -9.5186966e-03 1.3040269e-01 1.3344844e-01 3.1180443e-01 2.5876474e-01 1.8679685e-01 -5.8390435e-03 -3.1178415e-02 -7.4195076e-02 -4.6489985e-02 -8.7736045e-02 -3.1297527e-02 -7.2244421e-02 -1.1783741e-02 3.3053379e-02 1.1888165e-01 7.8471703e-02 -7.1785455e-03 -1.0882983e-01 -5.0242874e-02 -1.6332604e-01 -5.7125566e-02 1.2048459e+00 1.4734020e-01 -7.9761932e-02 -3.1640295e-02 -6.9972726e-02 -1.0876604e-02 -2.4779463e-02 4.9473775e-02 6.0859761e-02 1.6012794e-01 2.2945671e-01 2.9062250e-01 1.6706883e-01 6.6911961e-02 -6.6980344e-02 -4.1607325e-02 -1.0205133e-01 -4.5783538e-02 -6.8224266e-02 -1.8082084e-02 -5.9627058e-02 -4.5395618e-02 -4.6857588e-02 6.7492963e-02 8.8855885e-02 1.0948143e-01 -3.7567734e-02 -5.4734145e-02 -8.2193936e-02 -1.4359749e-01 -5.3193767e-02 1.2323904e+00 8.6722680e-02 -4.9066726e-03 -7.2993874e-02 3.2686110e-04 -3.6078314e-02 2.5107386e-02 2.7344577e-02 9.8053177e-02 1.4233480e-01 2.6925492e-01 2.5166294e-01 2.2074050e-01 9.7112295e-03 -1.9773694e-02 -9.0610017e-02 -3.7759548e-02 -9.3293271e-02 -1.0289996e-02 -9.7323920e-02 -1.6120071e-02 -8.5333990e-02 -3.4058534e-02 -1.1299628e-01 2.1443421e-02 -1.8259218e-02 1.5008118e-01 -2.3638768e-02 7.3802906e-03 -1.7380089e-01 3.5221665e-03 -3.6552482e-01 3.7299899e-01 1.0579492e+00 -1.2002604e-01 -4.7462646e-03 -1.1498388e-01 -2.9679900e-02 -5.0073299e-02 -5.0468935e-03 -4.0061789e-03 7.1628271e-02 1.4039490e-01 2.2641433e-01 2.3411785e-01 1.0938773e-01 -1.3955937e-02 -1.0577994e-01 -8.5901232e-02 -1.3563240e-01 -8.5112419e-02 -1.1634688e-01 -8.1281410e-02 -1.1110609e-01 -8.3320307e-02 -1.3562345e-01 -8.5400722e-02 -1.5169789e-01 -2.7441180e-02 -1.6901528e-02 8.3977173e-02 -8.0989509e-02 -6.8276310e-02 -2.2936643e-01 -1.8341550e-02 -4.3668873e-01 7.0262336e-01 7.0428472e-01 -2.7151762e-01 1.8965816e-02 -1.9696377e-01 -2.4424214e-02 -1.4376087e-01 1.1000763e-02 -5.8805242e-02 8.1033905e-02 9.5163122e-02 2.3347138e-01 1.7561875e-01 7.4563644e-02 -1.1908965e-01 -1.1959421e-01 -1.8247776e-01 -1.3305703e-01 -1.8438832e-01 -1.3171853e-01 -1.6429730e-01 -1.1863349e-01 -1.7051513e-01 -5.2103143e-02 -3.8281809e-02 3.2681581e-02 -1.3499253e-01 -1.5145789e-01 -2.2834472e-01 -1.6724421e-01 -3.1724726e-01 1.0518446e+00 1.9047662e-01 -2.0802559e-01 -9.4033852e-02 -1.7457180e-01 -9.8237181e-02 -1.0643484e-01 -3.0259560e-02 -3.3941544e-02 8.0746798e-02 1.4726784e-01 2.2604708e-01 1.6908868e-01 -2.2448890e-02 -1.0795805e-01 -1.3896206e-01 -1.3986051e-01 -1.4956883e-01 -1.2489959e-01 -1.4316681e-01 -1.1838510e-01 -1.3687068e-01 -3.5537035e-02 -2.3482985e-02 7.9145512e-02 -7.5765749e-02 -8.2546442e-02 -2.1637189e-01 -7.1800862e-02 -4.1150781e-01 7.6071210e-01 6.6876071e-01 -2.5884352e-01 2.4331084e-02 -2.1124023e-01 -2.0604412e-02 -1.1988904e-01 2.5093485e-02 -3.6813337e-02 1.1862621e-01 1.0040244e-01 3.0504928e-01 1.6937215e-01 1.0193982e-01 -1.0282251e-01 -7.0411391e-02 -1.5643083e-01 -9.1014181e-02 -1.2894022e-01 -7.2090168e-02 -1.3865599e-01 -6.8191633e-02 -1.7102342e-01 -1.7389028e-03 -9.7800920e-04 9.1384810e-02 -1.1019937e-01 -8.9072134e-02 -2.4349625e-01 -5.7092831e-02 -4.0742784e-01 9.5114202e-01 4.3583694e-01 -2.2525556e-01 -5.7714348e-02 -1.7974039e-01 -6.5866355e-02 -1.1549382e-01 -4.3768278e-02 -2.4179421e-02 6.4458701e-02 1.3416919e-01 1.9002612e-01 1.6505388e-01 5.0840199e-03 -1.1453755e-01 -1.3774858e-01 -1.7234489e-01 -1.4583411e-01 -1.4547424e-01 -1.2324489e-01 -1.5717501e-01 -1.2998367e-01 -1.6149930e-01 -1.3365196e-01 -3.9550854e-02 1.9099953e-02 -2.0243530e-02 -1.2199884e-01 -1.7799407e-01 -1.6343460e-01 -2.6767886e-01 -1.1133277e-01 1.1259915e+00 -4.5857682e-02 -1.1936552e-01 -1.6691660e-01 -1.4050416e-01 -1.3375740e-01 -8.9511864e-02 -9.2132296e-02 -1.1115713e-02 2.9921177e-02 1.4884001e-01 1.3966114e-01 9.7822295e-02 -1.1182070e-01 -1.5034260e-01 -2.2165552e-01 -1.7475770e-01 -2.2970016e-01 -1.7507862e-01 -2.2886192e-01 -1.5958908e-01 -2.4149688e-01 -1.3130079e-01 -1.3746590e-01 2.7392341e-02 -1.7381193e-01 -1.4951318e-01 -3.4352269e-01 -1.3556759e-01 -5.2183288e-01 4.6590423e-01 7.3990128e-01 -3.9149491e-01 -1.0989736e-01 -2.9578700e-01 -1.4809313e-01 -2.4280336e-01 -1.1704873e-01 -1.5658241e-01 -2.5065013e-02 -2.5959245e-03 1.3635668e-01 9.1731303e-02 -8.1012266e-03 -2.1230940e-01 -1.9751719e-01 -2.5597642e-01 -2.2500598e-01 -2.3918628e-01 -1.9916993e-01 -2.5546509e-01 -1.3057281e-01 -1.1877563e-01 -6.6296542e-03 -1.6445899e-01 -1.7760663e-01 -3.4437957e-01 -1.5504994e-01 -5.3442896e-01 5.7548742e-01 6.9105936e-01 -4.1258826e-01 -7.8983183e-02 -3.2117871e-01 -1.4409865e-01 -2.3971381e-01 -1.1435288e-01 -1.6263932e-01 -6.2586989e-03 -2.9999373e-02 1.5047348e-01 5.3123036e-02 -1.3087704e-02 -2.1787101e-01 -1.6138042e-01 -2.6139004e-01 -1.6527507e-01 -2.4734698e-01 -1.5174331e-01 -2.5774814e-01 -9.3679143e-02 -1.2552069e-01 2.1575953e-02 -1.5198475e-01 -1.3923398e-01 -3.3948517e-01 -1.1522382e-01 -5.3167807e-01 3.9817496e-01 8.1422300e-01 -3.1513585e-01 -1.1612254e-01 -2.6465750e-01 -1.4947296e-01 -2.1511729e-01 -1.0481571e-01 -1.3401781e-01 -3.0068881e-02 1.8705661e-02 9.8292495e-02 1.0969813e-01 -2.7700971e-02 -1.7070140e-01 -2.0465769e-01 -2.1689687e-01 -2.0787896e-01 -2.1932636e-01 -2.1074115e-01 -2.0994666e-01 -1.1627673e-01 -6.4202324e-02 -3.4033403e-02 -1.7489992e-01 -2.3809745e-01 -2.8541439e-01 -2.5906153e-01 -4.1071058e-01 9.9395301e-01 1.9627929e-01 -3.3275580e-01 -1.6225545e-01 -2.9653203e-01 -1.8270585e-01 -2.5578607e-01 -1.4972577e-01 -1.7451675e-01 -2.5571503e-02 -3.3769244e-02 8.4226969e-02 -4.8025049e-02 -1.3469724e-01 -2.9574344e-01 -2.4833478e-01 -3.0540931e-01 -2.4018400e-01 -2.9395377e-01 -1.6417432e-01 -1.5679553e-01 -2.2899420e-02 -2.4133371e-01 -2.1388355e-01 -3.9883075e-01 -1.9183601e-01 -6.2312522e-01 7.6531624e-01 4.5438453e-01 -3.7805419e-01 -1.4789358e-01 -3.2546384e-01 -1.8375146e-01 -2.4154836e-01 -1.4955194e-01 -1.5318457e-01 -7.1683982e-02 4.2810000e-03 7.5687328e-02 1.7499660e-02 -1.2234529e-01 -2.1491924e-01 -2.3627597e-01 -2.1453708e-01 -2.4505214e-01 -1.4982492e-01 -1.3109544e-01 -7.3874443e-03 -1.4945451e-01 -1.7351794e-01 -3.3437921e-01 -1.7310461e-01 -5.7010334e-01 3.2718553e-01 8.2167116e-01 -3.5908323e-01 -1.2644961e-01 -3.3158222e-01 -1.6112453e-01 -2.5851909e-01 -1.3804493e-01 -1.7373817e-01 -7.1444382e-02 -4.6439868e-02 6.9583275e-02 -1.4309641e-02 -7.5278116e-02 -2.3665799e-01 -1.9751324e-01 -2.7007422e-01 -2.2761554e-01 -2.2175456e-01 -1.1769958e-01 -6.8265338e-02 -5.2410760e-02 -2.1239553e-01 -2.4938382e-01 -2.8455265e-01 -2.9592804e-01 -3.9036815e-01 1.0582485e+00 6.3431862e-02 -2.4846375e-01 -2.0118900e-01 -2.4560023e-01 -1.8087556e-01 -1.8855590e-01 -1.4012172e-01 -9.6389817e-02 -2.8948851e-02 4.1487685e-02 6.5174081e-02 -5.1830614e-03 -1.4485276e-01 -1.6850069e-01 -2.0620624e-01 -1.8895825e-01 -1.9628460e-01 -1.3268068e-01 -8.1936234e-02 2.0229251e-02 -5.7293355e-02 -1.1721791e-01 -2.3277428e-01 -1.5750044e-01 -3.3722950e-01 -3.3918150e-02 1.0980692e+00 -1.7948376e-01 -8.8281225e-02 -1.9050745e-01 -1.1930390e-01 -1.6498069e-01 -5.9112887e-02 -1.0123374e-01 2.6169455e-02 2.7016051e-02 1.4786269e-01 1.0904545e-01 8.1451389e-02 -9.4241407e-02 -1.1130557e-01 -1.5880541e-01 -9.4568170e-02 -1.5205422e-01 -2.8631707e-02 -4.8415898e-02 1.3713562e-01 -3.4722870e-02 -4.0266863e-02 -2.1294712e-01 -3.4124771e-02 -3.9863556e-01 3.5743575e-01 1.0141585e+00 -2.1756223e-01 1.7524425e-02 -1.5831556e-01 -2.7593994e-02 -8.2918931e-02 8.3494698e-03 -4.2232994e-03 7.8671027e-02 1.2886642e-01 1.9565687e-01 2.0395780e-01 7.2091452e-02 -1.3843606e-02 -5.9889703e-02 -5.6154498e-02 -5.9475984e-02 -2.1571259e-02 -5.5112443e-02 5.2265026e-02 8.7219068e-02 1.7813636e-01 1.1258528e-02 -3.0307322e-03 -1.1663794e-01 2.3541193e-02 -3.0984054e-01 1.0161187e+00 6.5483743e-01 -1.5154739e-01 9.7735710e-02 -1.0402137e-01 7.2809011e-02 -3.2747897e-02 1.0801689e-01 2.8541635e-02 1.6965993e-01 1.8699632e-01 3.0403512e-01 1.9077019e-01 1.0228008e-01 -4.2385391e-02 2.2149061e-02 -4.0849654e-02 9.1040981e-03 -4.1072984e-02 2.0668030e-02 -4.2350008e-02 4.3886124e-02 3.4651068e-02 1.7408871e-01 9.7800994e-02 3.4354350e-02 -7.8342291e-02 -2.7817852e-02 -1.6325371e-01 4.8265566e-02 1.2408782e+00 1.4398146e-01 -4.8144427e-03 7.9991415e-03 1.7209961e-03 3.3977964e-02 4.0955390e-02 1.0498093e-01 1.2333229e-01 2.1106761e-01 2.5195421e-01 2.9734724e-01 2.2194870e-01 8.7917320e-02 1.0250005e-02 3.9097490e-02 4.4898681e-03 4.6717429e-02 9.1602361e-03 5.3271618e-02 1.3547306e-02 4.9042497e-02 3.6423202e-03 7.6845563e-02 1.1780866e-01 2.4065339e-01 1.0067307e-01 9.3954152e-02 -6.8125600e-02 9.6937774e-02 -2.1551449e-01 4.6327231e-01 1.1661430e+00 -4.5557708e-02 1.4676250e-01 -2.5319016e-02 1.0806964e-01 8.8282299e-03 1.3456377e-01 7.3594749e-02 1.8990349e-01 1.9218103e-01 3.2046518e-01 2.6617451e-01 2.1102644e-01 3.5346483e-02 4.8416632e-02 -1.8093578e-02 4.1121926e-02 -2.9371016e-02 4.8269048e-02 -1.7360333e-02 4.5669805e-02 -3.8884047e-02 2.5533786e-02 -4.9461261e-02 7.3425334e-02 5.8695724e-02 1.9742643e-01 4.2017610e-02 6.5289921e-02 -1.1634915e-01 8.2918781e-02 -3.2307092e-01 5.8726266e-01 9.4992449e-01 -1.5700991e-01 1.0306226e-01 -9.5695870e-02 4.9515435e-02 -3.5992163e-02 9.4034760e-02 2.9566285e-02 1.6406435e-01 1.7128432e-01 2.7000835e-01 2.5342307e-01 1.5816900e-01 -6.3474989e-03 -3.3177606e-02 -6.5309264e-02 -3.0749061e-02 -6.3138599e-02 -2.1227079e-02 -5.2058280e-02 -2.9639259e-02 -4.9384466e-02 4.8239134e-02 8.4646784e-02 1.2308654e-01 -9.2373979e-03 -4.2363053e-02 -1.0717806e-01 -6.7802937e-02 -1.8274160e-01 1.1570322e+00 2.7968974e-01 -9.2407099e-02 1.0617679e-02 -6.8838135e-02 1.1430923e-02 -3.7989399e-03 9.2017465e-02 6.7744884e-02 1.8924362e-01 2.3077266e-01 3.3409435e-01 2.2793726e-01 9.3772891e-02 -2.2329643e-02 5.3269691e-03 -3.7657211e-02 1.0194745e-02 -3.2554299e-02 1.8624514e-02 -2.2567676e-02 2.1884566e-02 -3.7696062e-02 4.9415806e-02 5.7575145e-02 2.1936202e-01 6.8603055e-02 7.2756604e-02 -1.1587045e-01 7.4786897e-02 -2.5764787e-01 4.6986551e-01 1.0845565e+00 -8.7934562e-02 1.1915520e-01 -5.8319107e-02 8.7336326e-02 5.6738987e-03 1.1854100e-01 1.0425988e-01 1.9676443e-01 2.3619062e-01 3.4134779e-01 3.2264171e-01 2.5275192e-01 6.4865557e-02 4.0880269e-02 7.2087558e-03 3.8606715e-02 2.1139448e-02 3.9523615e-02 3.6063235e-02 3.2954721e-02 3.2058416e-02 1.3150725e-02 5.6468430e-02 1.3856640e-01 2.0508524e-01 1.4431595e-01 6.5954804e-02 -5.0897009e-02 7.5610136e-02 -1.9450267e-01 3.3691145e-01 1.1952514e+00 -3.1723481e-02 1.1197922e-01 -4.3646700e-02 8.9303199e-02 -2.7196115e-03 1.1982950e-01 6.4145082e-02 1.9816703e-01 2.1171766e-01 3.3582332e-01 3.0102805e-01 2.3844457e-01 4.1221482e-02 4.3312599e-02 -4.1564793e-02 3.2851933e-02 -3.7312540e-02 3.8276245e-02 -2.8296710e-02 3.4310759e-02 -2.6278784e-02 3.4829765e-02 -6.5778371e-02 8.5819303e-02 5.8551393e-02 2.1755586e-01 2.1652086e-02 5.9572075e-02 -1.1919564e-01 6.1754343e-02 -3.2408203e-01 7.3159545e-01 8.8666929e-01 -1.4350035e-01 1.1109291e-01 -9.1932511e-02 5.5305997e-02 -2.9174001e-02 1.0230864e-01 6.2404729e-02 1.7339436e-01 2.0151750e-01 3.2709805e-01 2.7451179e-01 1.8236514e-01 -8.3316236e-03 1.3720811e-03 -6.7112410e-02 -1.1889256e-02 -5.8256295e-02 4.9595513e-03 -6.4946330e-02 8.4879588e-03 -7.5804248e-02 4.4362491e-02 2.7990931e-02 1.6895006e-01 4.9667944e-03 1.6794795e-02 -1.6260782e-01 1.7855724e-02 -3.4444093e-01 6.6753640e-01 8.5930585e-01 -2.2646989e-01 8.0770079e-02 -1.3931086e-01 4.4506485e-02 -6.9081369e-02 7.5864137e-02 9.8772321e-03 1.7018958e-01 1.6065063e-01 3.2441052e-01 2.4184978e-01 1.6443216e-01 -5.9329753e-02 -1.0028512e-02 -1.1309020e-01 -1.2326312e-02 -8.9957390e-02 -1.8905772e-02 -9.7923729e-02 -1.1122785e-02 -1.0256200e-01 5.9521444e-02 -5.0437356e-03 1.6099921e-01 -3.7488022e-02 1.5687416e-03 -1.8097480e-01 1.3169398e-02 -3.6870856e-01 8.1307119e-01 6.8375222e-01 -2.0661473e-01 3.6993309e-02 -1.2697273e-01 4.7499577e-03 -7.4668310e-02 3.5075690e-02 2.1294760e-02 1.0834342e-01 1.8491414e-01 2.4325961e-01 2.4338101e-01 8.4988600e-02 -4.9261949e-02 -7.6848245e-02 -9.3495676e-02 -9.1807434e-02 -7.7180632e-02 -8.4643440e-02 -7.3688563e-02 -9.8105094e-02 -7.7599574e-02 -1.2908936e-01 -3.2975239e-02 -1.4127170e-02 8.3078527e-02 -2.3252103e-02 -5.7300764e-02 -2.0309386e-01 -4.7100932e-02 -3.7828737e-01 4.1582004e-01 9.3828772e-01 -2.2416336e-01 3.4632685e-02 -1.8420973e-01 -2.2647482e-02 -1.0922073e-01 1.5261529e-02 -3.4593719e-02 9.6710076e-02 1.0643190e-01 2.4642920e-01 1.9780395e-01 1.3154128e-01 -7.9759286e-02 -5.5248926e-02 -1.2741252e-01 -8.4482979e-02 -1.0879916e-01 -7.4919981e-02 -1.0710265e-01 -4.9703247e-02 -1.1673726e-01 -4.7906697e-02 -1.3463501e-01 -3.7322269e-02 -1.8004369e-03 1.2694004e-01 1.6245577e-02 -1.3335972e-02 -1.4997634e-01 -1.3914141e-02 -2.5299422e-01 1.6162580e-01 1.1381951e+00 -1.4732118e-02 2.5846042e-02 -7.7684725e-02 -2.9193882e-03 -1.4236425e-02 3.6294782e-02 4.9656447e-02 1.1843957e-01 1.8451451e-01 2.8473406e-01 2.8532199e-01 2.0541326e-01 5.8439393e-02 -1.6668727e-02 -3.7644408e-02 -2.2052460e-02 -4.8623755e-02 -1.0764812e-02 -3.1201731e-02 -5.7797224e-04 -4.1633742e-02 -1.1974349e-02 -5.1710880e-02 2.9118409e-02 6.5246230e-02 1.5385713e-01 4.3828118e-02 3.2682204e-02 -1.0258999e-01 3.7231039e-02 -2.7100104e-01 4.5536679e-01 1.0520621e+00 -1.4471702e-01 1.1137385e-01 -1.0383259e-01 8.5325230e-02 -4.1290477e-02 1.0737250e-01 5.4045868e-02 1.9623378e-01 1.9276808e-01 3.6356033e-01 2.8998856e-01 2.4445137e-01 -1.3481579e-02 2.6422350e-02 -6.6256491e-02 1.8653548e-03 -5.3972313e-02 1.4239869e-02 -4.6975454e-02 3.0083871e-02 -5.5721855e-02 9.9997467e-02 9.7092526e-02 1.8570568e-01 -1.3097052e-04 2.5660140e-02 -1.1580232e-01 2.1555515e-02 -2.4814961e-01 1.1850440e+00 4.1866942e-01 -8.5886726e-02 3.5163539e-02 -2.8253170e-02 3.6009151e-02 3.5955295e-02 1.0149040e-01 1.1753753e-01 2.0202656e-01 3.1117006e-01 3.6285560e-01 2.9019510e-01 1.0817913e-01 2.8528186e-02 -3.6313771e-03 -4.3930024e-03 -2.3140439e-02 2.0741606e-02 -4.4700481e-02 4.6377695e-02 -3.4170426e-02 6.7459919e-02 7.5993153e-02 1.9170328e-01 6.1933067e-02 7.2907522e-02 -1.1072499e-01 6.0518042e-02 -2.7548450e-01 4.3841946e-01 1.1261610e+00 -8.8552865e-02 7.8031499e-02 -6.5768462e-02 5.2483292e-02 8.5252960e-03 6.9465170e-02 7.8205813e-02 1.5737358e-01 2.2959491e-01 3.3000198e-01 3.1866242e-01 2.0394028e-01 2.8997230e-02 -1.1387377e-02 -3.2463755e-02 -2.6922483e-02 -1.3740792e-02 -2.5541013e-02 -1.5138262e-02 -2.9023934e-02 -4.4571792e-03 -4.6082666e-02 4.7916752e-02 6.6793829e-02 1.6772611e-01 3.5849058e-02 1.5811584e-02 -1.2975605e-01 3.7129656e-02 -3.2932871e-01 6.6282355e-01 9.2413390e-01 -1.6005301e-01 9.3580278e-02 -1.1902277e-01 5.7738296e-02 -3.5578597e-02 8.9574316e-02 2.3794267e-02 1.7653640e-01 1.7587401e-01 3.1760252e-01 2.7233899e-01 1.7012822e-01 -2.2203819e-02 -1.5618548e-02 -7.7604760e-02 9.6365426e-04 -6.0222086e-02 -4.4539415e-03 -4.3619603e-02 -3.6732212e-02 -3.0650293e-02 -1.4573049e-03 -5.2694963e-02 -4.8177327e-03 2.9000440e-02 1.3899907e-01 1.0978986e-01 1.3611561e-02 -7.4603689e-02 -3.7857799e-02 -1.1930999e-01 -7.5353925e-02 1.1743191e+00 2.4449989e-01 -5.4155692e-02 1.0429069e-02 -4.3158309e-02 4.4739262e-02 -1.4155752e-03 8.0277342e-02 9.4194103e-02 1.9760563e-01 2.4711835e-01 3.3645234e-01 2.1508253e-01 9.3504306e-02 -2.7433940e-02 -2.4477105e-02 -7.3438827e-02 -2.8819373e-02 -4.7576275e-02 -3.6939440e-02 -6.7620882e-02 -1.6964818e-02 -6.9466056e-02 -4.3027862e-02 -1.0669838e-01 2.5059677e-02 1.4087677e-03 1.5714643e-01 -1.4667313e-02 1.3077005e-02 -1.8097684e-01 1.5517345e-02 -3.3864635e-01 4.2850634e-01 9.8806623e-01 -2.0445617e-01 4.8090830e-02 -1.6160426e-01 -1.8079089e-02 -1.0272594e-01 1.6641578e-02 -3.8289359e-02 9.1068328e-02 1.1155190e-01 2.4837785e-01 2.0532255e-01 1.0592149e-01 -8.5978172e-02 -1.0937831e-01 -1.7246050e-01 -1.3246283e-01 -2.0205568e-01 -1.0746291e-01 -1.9588450e-01 -1.1189245e-01 -2.0975430e-01 -7.6935389e-02 -9.0296561e-02 4.4197612e-02 -1.2521007e-01 -1.1849096e-01 -2.7529948e-01 -1.0854990e-01 -4.7133579e-01 4.2779100e-01 8.5681287e-01 -3.2722104e-01 -5.2698231e-02 -2.7953639e-01 -8.6591409e-02 -1.9356287e-01 -7.4624599e-02 -1.2309158e-01 3.8075943e-02 6.0304139e-02 1.8628017e-01 1.3792045e-01 4.0899183e-02 -1.4285237e-01 -1.4029470e-01 -2.1201998e-01 -1.7551715e-01 -2.0071187e-01 -1.4727096e-01 -1.8619413e-01 -1.4970237e-01 -1.9874015e-01 -1.2364462e-01 -9.2341533e-02 1.0259520e-02 -5.4597508e-02 -1.1898280e-01 -2.2383964e-01 -1.6380927e-01 -3.0797110e-01 -6.9486437e-02 1.0451278e+00 -6.9364124e-02 -1.2962927e-01 -1.9123977e-01 -1.3851093e-01 -1.3249659e-01 -1.1434313e-01 -7.3599541e-02 -6.4177744e-03 5.8975018e-02 1.5357665e-01 1.9584827e-01 1.0425847e-01 -9.4952027e-02 -1.3246847e-01 -1.8673162e-01 -1.5635626e-01 -1.8921768e-01 -1.5485212e-01 -1.5986219e-01 -1.4960962e-01 -1.8407904e-01 -1.4457065e-01 -1.7678086e-01 -7.3906502e-02 -5.3585375e-02 2.3634216e-02 -1.3254770e-01 -1.1936947e-01 -2.7863665e-01 -1.3168063e-01 -4.2477810e-01 8.5742357e-01 4.6890458e-01 -2.9627349e-01 -5.2211212e-02 -2.3043361e-01 -7.0055561e-02 -1.7984824e-01 -3.2851776e-02 -8.2790675e-02 6.6160658e-02 7.3851596e-02 2.2584610e-01 1.3252848e-01 2.0880224e-02 -1.6985798e-01 -1.2165931e-01 -1.7841451e-01 -1.2520196e-01 -1.8745245e-01 -1.0297723e-01 -1.8223634e-01 -1.0451865e-01 -1.7132699e-01 -1.2305191e-01 -1.6913945e-01 -1.1344987e-01 -1.9962553e-01 -6.6958899e-02 -8.9118680e-02 8.4602644e-02 -8.8150253e-02 -5.7160168e-02 -2.4897089e-01 -4.0724790e-02 -3.9527346e-01 3.9786791e-01 9.6760578e-01 -1.9374282e-01 -3.0888723e-02 -1.4474028e-01 -4.7402035e-02 -1.1346663e-01 -1.5186986e-02 -3.3293959e-02 5.4402653e-02 1.2191998e-01 2.1490660e-01 2.3679040e-01 1.0881127e-01 -3.2724249e-02 -1.0955419e-01 -1.1096888e-01 -1.2828384e-01 -1.1065524e-01 -9.9218723e-02 -1.0158748e-01 -1.1624350e-01 -1.0933500e-01 -1.1018043e-01 -9.4901795e-02 -1.4366542e-01 -4.6978561e-02 -3.2890019e-02 8.0740147e-02 -8.4715223e-02 -7.8044830e-02 -2.1912067e-01 -6.2168709e-02 -4.2919115e-01 7.0848261e-01 6.7143535e-01 -2.9062220e-01 1.3439982e-02 -2.2244061e-01 -2.8616909e-02 -1.5901509e-01 2.3638163e-02 -7.2237927e-02 1.0834524e-01 1.0654813e-01 2.7058245e-01 1.9486611e-01 7.9430909e-02 -1.1331601e-01 -8.8891787e-02 -1.9033033e-01 -1.0422494e-01 -1.7885386e-01 -9.9532171e-02 -1.5428310e-01 -9.8943238e-02 -1.7594683e-01 -6.0104410e-02 -5.8466196e-02 7.0346041e-02 -5.4813930e-02 -7.2979635e-02 -2.2728217e-01 -6.6941237e-02 -3.4640493e-01 2.1413335e-01 1.0444181e+00 -1.7906984e-01 -5.4483733e-02 -1.5028985e-01 -8.5654937e-02 -1.1475774e-01 -3.1020921e-02 -2.1493969e-02 4.6042407e-02 1.1778097e-01 2.2344646e-01 2.5116787e-01 1.3860934e-01 -6.2338764e-02 -9.6428313e-02 -1.2134401e-01 -1.4098285e-01 -1.1027174e-01 -1.2885169e-01 -1.0572558e-01 -1.2395366e-01 -1.0835539e-01 -1.3387454e-01 -7.8477796e-02 -2.2493227e-02 6.6768393e-02 -2.5971078e-02 -8.3693929e-02 -1.8382978e-01 -8.4332935e-02 -3.2436298e-01 1.5362430e-01 1.0755193e+00 -1.5399708e-01 -2.0698695e-02 -1.8555378e-01 -6.3142524e-02 -1.3564011e-01 -1.2901595e-02 -6.6336020e-02 6.2963095e-02 6.7972494e-02 2.2569397e-01 1.9746289e-01 1.3687718e-01 -8.2396756e-02 -9.2542022e-02 -1.7385272e-01 -1.1955502e-01 -1.6144799e-01 -1.1242790e-01 -1.6713844e-01 -1.0585571e-01 -1.6974074e-01 -1.1876059e-01 -1.8731792e-01 -5.9367259e-02 -6.4606591e-02 6.4961459e-02 -1.3745122e-01 -9.2888847e-02 -2.7794455e-01 -8.4197558e-02 -4.6483468e-01 6.8123219e-01 6.6833301e-01 -2.8509339e-01 -6.3284826e-02 -2.4238917e-01 -9.2380588e-02 -1.6272007e-01 -5.7236447e-02 -1.0127179e-01 3.2690502e-02 5.4385121e-02 1.9952035e-01 1.3831329e-01 1.0908068e-02 -1.6244025e-01 -1.4220244e-01 -2.0971866e-01 -1.5495414e-01 -2.1170592e-01 -1.4204733e-01 -1.8797363e-01 -1.5435641e-01 -1.9771805e-01 -1.6176183e-01 -2.1578452e-01 -1.3950279e-01 -1.0910380e-01 5.3300055e-04 -7.6062200e-02 -1.1414469e-01 -2.6426986e-01 -1.6571554e-01 -3.2669513e-01 -8.7754862e-02 1.0784916e+00 -7.2620309e-02 -1.6151014e-01 -1.9531209e-01 -1.5420755e-01 -1.5406350e-01 -1.2525442e-01 -1.0439734e-01 -3.2191545e-02 2.7404501e-02 1.2066524e-01 1.6940452e-01 9.3366482e-02 -1.0243199e-01 -1.6099700e-01 -1.9602694e-01 -1.8873720e-01 -1.8525927e-01 -1.7989311e-01 -1.8883995e-01 -1.6145568e-01 -1.8984039e-01 -1.4242878e-01 -8.9204742e-02 -1.5647341e-03 -5.8428438e-02 -1.1563215e-01 -2.4287812e-01 -1.5128334e-01 -3.3172471e-01 -1.9690288e-02 1.0879564e+00 -1.3798005e-01 -1.1348408e-01 -1.9314701e-01 -1.3098236e-01 -1.5249197e-01 -8.6341614e-02 -6.3816524e-02 4.0420925e-03 6.7559406e-02 1.7752443e-01 2.1112746e-01 1.1479388e-01 -7.1993337e-02 -1.1961781e-01 -1.7579219e-01 -1.5909346e-01 -1.7814347e-01 -1.1193115e-01 -1.8155627e-01 -9.1464422e-02 -7.4779076e-02 4.5654441e-02 -3.1969771e-02
