-1.2235465e-01 6.5571000e-02 -1.1938323e-02 1.0204832e-01 1.4027767e-02 1.1356044e-01 -3.9816453e-03 1.3543878e-01 4.1804779e-02 4.0699436e-01 7.5910934e-02 2.5682247e-01 -3.0178642e-01 1.5309606e+00 1.0913667e+00 -2.1310321e-01 2.6741380e-01 4.8333501e-02 4.0493175e-01 4.1451160e-01 8.2220595e-01 3.2901010e-01 -1.6737111e-02 -1.3767650e-01 -3.8984505e-02 -6.2783147e-02 4.0846155e-03 -3.0830827e-02 1.6343577e-02 1.7588374e-02 3.6999054e-02 2.3190992e-01 2.2539201e-01 1.5038301e-01 -1.0023761e-01 4.5255855e-01 1.9278187e+00 -1.1417430e-01 2.3728778e-01 -9.2652740e-03 3.6286818e-01 2.6555517e-01 7.4402390e-01 5.0744835e-01 1.6558297e-01 -2.1082565e-01 -2.8005303e-03 -1.6157606e-01 5.1227629e-02 -1.3973218e-01 6.6400447e-02 -1.1849808e-01 9.1113803e-02 -1.1185551e-01 1.2576897e-01 -4.3901589e-02 4.1812191e-01 -2.0652560e-02 2.6793797e-01 -3.6478699e-01 1.5976731e+00 9.0013668e-01 -1.3343976e-01 1.7845677e-01 1.1147555e-01 3.1388283e-01 4.4839301e-01 6.9610514e-01 4.1474999e-01 -7.6405717e-02 -5.9422775e-02 -9.4277971e-02 4.4647054e-03 -7.9962652e-02 1.9111796e-02 -7.0463578e-02 5.5567429e-02 -8.6580395e-02 8.3258556e-02 -5.4477160e-02 3.3148001e-01 -1.2123539e-02 2.2423424e-01 -3.6037901e-01 1.5311632e+00 9.4577488e-01 -2.1498399e-01 1.6288530e-01 2.9479985e-02 2.8652728e-01 3.6404297e-01 6.6380261e-01 3.2900897e-01 -1.0304656e-01 -1.3102494e-01 -1.2699734e-01 -4.7930619e-02 -9.8930830e-02 -6.8896074e-03 -8.7725195e-02 3.5224226e-02 -8.7724131e-02 2.5304004e-01 2.0563519e-02 1.9787017e-01 -3.2841381e-01 9.1871348e-01 1.5240788e+00 -2.7204637e-01 1.9927787e-01 -4.6903484e-02 2.9858916e-01 2.8460751e-01 7.0981066e-01 4.1898285e-01 -2.3559339e-02 -1.8702804e-01 -1.0158352e-01 -1.1227141e-01 -5.3773653e-02 -7.5500899e-02 -3.8050182e-02 -3.6471513e-02 7.8792206e-02 2.5680948e-01 4.5906913e-02 3.2621422e-02 -1.5637297e-01 1.8202554e+00 4.4564531e-01 -1.1260476e-01 1.3325060e-01 1.0058337e-01 3.3660369e-01 4.8399978e-01 6.9746622e-01 1.6049926e-01 -1.2186324e-01 -1.3381010e-01 -9.7338418e-02 -5.9741674e-02 -7.8588535e-02 -4.2427995e-02 -6.9407168e-02 -1.4552995e-02 6.5277356e-04 2.6819715e-01 -5.1353662e-03 9.7223434e-02 -3.5580545e-01 1.5142741e+00 8.7314186e-01 -3.1491972e-01 1.7568053e-01 -6.6551460e-02 3.2003083e-01 2.5974400e-01 6.8954904e-01 1.5189975e-01 -8.1732020e-02 -2.5841193e-01 -8.2691681e-02 -2.0741837e-01 -3.4580499e-02 -2.0504063e-01 -1.6310921e-02 -1.8326818e-01 1.1340436e-02 -1.1707728e-01 2.8405392e-01 -1.0680139e-01 1.4110328e-01 -4.5433464e-01 1.4324330e+00 8.7368379e-01 -2.8797326e-01 1.0484629e-01 -5.3867542e-02 2.3789657e-01 2.7581613e-01 6.1583234e-01 2.4942297e-01 -1.3420961e-01 -1.9155269e-01 -1.4886157e-01 -1.3277061e-01 -1.0650921e-01 -1.0721824e-01 -9.2719650e-02 -7.2328465e-02 -7.7610681e-02 -2.6472418e-02 2.7032105e-02 2.4288286e-01 1.5379748e-02 5.7397693e-02 -2.3755112e-01 1.6677370e+00 5.7613414e-01 -1.7686782e-01 1.4623801e-01 3.0644644e-02 3.2203430e-01 3.6488401e-01 6.8183157e-01 1.9893148e-01 -8.4594176e-02 -1.7276761e-01 -6.3995829e-02 -1.2160620e-01 -4.1689326e-02 -1.1489993e-01 -2.1602654e-02 -1.0417397e-01 3.0574004e-03 -7.6148864e-03 2.4701015e-01 -4.3321834e-02 6.5747172e-02 -2.6132936e-01 1.7658521e+00 4.7166384e-01 -1.8144348e-01 8.5470368e-02 1.8865471e-02 2.6635994e-01 3.8323874e-01 6.2884884e-01 1.3478424e-01 -1.5921345e-01 -2.1573903e-01 -1.3454826e-01 -1.6184145e-01 -8.8024896e-02 -1.5298562e-01 -5.4503275e-02 -1.3220709e-01 1.9682532e-01 -1.9558265e-02 9.9599297e-02 -3.8865108e-01 8.2053595e-01 1.4853718e+00 -3.7386369e-01 1.8148363e-01 -1.2988175e-01 3.0144667e-01 1.9679682e-01 7.2683184e-01 2.9996088e-01 -8.3815121e-04 -3.0125876e-01 -7.3450501e-02 -2.3042524e-01 -1.2143987e-02 -2.1013204e-01 1.6258902e-02 -1.6218198e-01 3.0996596e-01 -1.3258436e-01 1.6154209e-01 -5.0571249e-01 1.4251237e+00 9.2522284e-01 -3.0879416e-01 8.9207845e-02 -4.9593859e-02 2.4046140e-01 3.3237772e-01 6.3965210e-01 2.4208987e-01 -1.7898667e-01 -2.0253421e-01 -1.7811861e-01 -1.2422920e-01 -1.3036643e-01 -8.4893838e-02 -1.0881130e-01 -5.8560455e-02 2.2793395e-02 2.2465813e-01 -3.4104109e-02 -6.8896710e-03 -1.8164785e-01 1.8497436e+00 2.8157646e-01 -1.1484654e-01 2.9482999e-02 7.2739305e-02 2.2324307e-01 4.5700645e-01 5.6413956e-01 1.2478939e-01 -2.0884626e-01 -1.4013800e-01 -1.7864945e-01 -7.3314765e-02 -1.4771122e-01 -5.3387937e-02 -1.4281121e-01 -6.1248824e-03 -1.2377065e-01 4.0174387e-02 -8.4620064e-02 2.9944248e-01 -1.3130868e-02 1.9654090e-01 -3.9721246e-01 1.1242049e+00 1.3456070e+00 -2.9349486e-01 1.8488998e-01 -4.2685608e-02 2.9033575e-01 2.7137563e-01 6.4457333e-01 3.7183799e-01 -3.3768703e-02 -1.8638214e-01 -1.0355174e-01 -1.1823657e-01 -7.9398654e-02 -9.1788160e-02 -8.4086220e-02 -7.4639657e-02 -7.8124544e-02 -3.9409057e-02 -7.9611547e-02 -2.4186169e-03 -5.4871781e-02 2.3235851e-01 -1.9019153e-03 1.3778316e-01 -3.6483206e-01 9.3644648e-01 1.3854493e+00 -3.5808062e-01 1.6557953e-01 -1.4278308e-01 2.5492775e-01 1.5565160e-01 6.1580652e-01 2.9702833e-01 -2.8745746e-02 -3.0777203e-01 -1.3250454e-01 -2.5148012e-01 -8.3456781e-02 -2.1741324e-01 -8.0313334e-02 -1.9696874e-01 -4.7028904e-02 -1.8469084e-01 -2.5357302e-02 -1.8156746e-01 7.9095889e-02 -5.6084715e-03 5.8188530e-02 -2.2668454e-01 1.7925700e-01 1.7410712e+00 -1.2012310e-02 -6.7404682e-02 -2.8729956e-02 4.7053980e-02 2.1343622e-01 4.1993428e-01 5.4776512e-01 -1.8727212e-02 -2.2892841e-01 -2.7317098e-01 -1.6787163e-01 -2.0402597e-01 -1.2274838e-01 -2.1097900e-01 -8.4995869e-02 -1.8764811e-01 -4.2926261e-02 -1.6011839e-01 1.9092656e-01 -1.0537444e-01 1.4423845e-01 -4.1820935e-01 1.4300387e+00 9.3786008e-01 -3.0430117e-01 1.3173400e-01 -6.8968904e-02 2.5784774e-01 2.7937399e-01 6.6493260e-01 2.4239085e-01 -1.6408121e-01 -2.7813002e-01 -2.0220595e-01 -2.0054871e-01 -1.5216522e-01 -1.7784579e-01 -1.5107266e-01 -1.4384205e-01 -1.3213385e-01 -8.9577747e-02 -9.8648941e-02 1.5029445e-01 -5.5400072e-02 6.5227165e-02 -3.7128664e-01 1.4658377e+00 8.6118137e-01 -3.7731307e-01 1.4374117e-01 -1.3775707e-01 2.6917252e-01 2.1443078e-01 6.7442334e-01 1.4771327e-01 -1.2527860e-01 -3.4390723e-01 -1.4046278e-01 -2.7029851e-01 -7.8974114e-02 -2.5328643e-01 -5.5515791e-02 -2.3691045e-01 -2.3393823e-02 -2.2236313e-01 2.1852326e-02 -2.2066844e-01 2.1296371e-01 -1.0222817e-01 1.7058596e-01 -4.4353310e-01 8.7471730e-01 1.4096387e+00 -2.9602187e-01 7.3797953e-02 -8.0867233e-02 1.6011101e-01 2.0411800e-01 5.3961401e-01 4.1499903e-01 -1.0169400e-01 -2.6471846e-01 -2.4116319e-01 -2.0769962e-01 -2.0011951e-01 -1.7266811e-01 -2.0482471e-01 -1.4254228e-01 -1.8585656e-01 -1.0787088e-01 -1.6994997e-01 -6.7817128e-02 -1.6028378e-01 8.8021190e-02 3.5901605e-04 6.0829521e-02 -2.6584084e-01 3.1942931e-01 1.6982952e+00 -1.5830336e-01 1.0648136e-03 -9.2418279e-02 9.5293781e-02 1.6143218e-01 4.5186582e-01 4.8662126e-01 -1.5894184e-02 -2.6649568e-01 -2.5220414e-01 -2.1949047e-01 -2.1233944e-01 -1.8005726e-01 -2.0697304e-01 -1.4703768e-01 -2.0019755e-01 -1.0908966e-01 -1.6280322e-01 1.1399523e-01 -1.2912880e-01 4.4175548e-02 -3.9696569e-01 1.5553366e+00 6.2481711e-01 -2.9943261e-01 6.1699264e-02 -7.6610388e-02 2.2735610e-01 2.9850763e-01 6.5071310e-01 2.0442490e-01 -1.8478073e-01 -2.5784503e-01 -1.8788861e-01 -1.8019838e-01 -1.5519866e-01 -1.4675178e-01 -1.3216248e-01 -1.0943790e-01 -1.2867392e-01 1.7916780e-02 5.7158367e-02 3.1032503e-02 -1.6781540e-01 2.2019380e-01 1.8508886e+00 -1.1128190e-01 4.1081340e-02 -9.1220476e-02 1.4969875e-01 1.6506220e-01 5.3527618e-01 4.8224334e-01 4.4313225e-02 -2.9310039e-01 -1.8726994e-01 -2.4442708e-01 -1.3010437e-01 -2.1475202e-01 -1.1868973e-01 -1.8772526e-01 -8.5809337e-02 -1.6469701e-01 9.1312428e-02 2.1190983e-02 1.4028448e-02 -2.6914610e-01 1.7537532e-01 1.7443946e+00 -1.3317372e-01 -4.5673000e-02 -1.0231840e-01 8.4016254e-02 1.4760724e-01 4.6346019e-01 4.6900880e-01 6.4601626e-03 -2.9327335e-01 -2.2501218e-01 -2.5239056e-01 -1.6401947e-01 -2.0692657e-01 -1.4522801e-01 -1.9130273e-01 -1.0192019e-01 -7.5607364e-02 1.6924891e-01 -1.0904151e-01 -2.6570409e-02 -3.3147984e-01 1.6350639e+00 4.3131317e-01 -2.4907582e-01 3.0896899e-02 -3.4032640e-02 2.0151750e-01 3.3490530e-01 6.1724732e-01 1.2369250e-01 -2.0034510e-01 -2.4824497e-01 -1.9642147e-01 -1.9144834e-01 -1.4480351e-01 -1.7230712e-01 -1.2318162e-01 -1.5134229e-01 -9.2863829e-02 -1.2166231e-01 5.6136525e-02 1.0653996e-01 -1.0243682e-02 -1.3948747e-01 6.5102392e-04 1.8153625e+00 4.1215259e-02 -6.1960395e-02 -4.6792618e-02 8.7491082e-02 1.9266902e-01 4.6056609e-01 5.6359035e-01 9.8548493e-02 -2.3724632e-01 -1.8133389e-01 -2.0740110e-01 -1.2005111e-01 -1.9296343e-01 -1.0828337e-01 -1.8835381e-01 -8.8942213e-02 -1.5983182e-01 1.5249547e-01 -1.6511718e-02 5.5651638e-02 -3.5716445e-01 5.2325045e-01 1.6339008e+00 -3.2657881e-01 8.2816619e-02 -1.6061533e-01 1.8528009e-01 1.4072852e-01 5.8604387e-01 3.9511485e-01 -8.4948455e-03 -3.1124620e-01 -1.5022658e-01 -2.5046721e-01 -9.4783833e-02 -2.1976143e-01 -8.4159456e-02 -2.1216884e-01 -5.3141361e-02 -1.9483177e-01 -1.4676379e-02 -1.5312754e-01 2.4500261e-01 -9.3379104e-02 1.2089709e-01 -4.7907322e-01 1.0396374e+00 1.2348602e+00 -4.0626200e-01 8.8318489e-02 -1.6294194e-01 1.7607833e-01 1.3279868e-01 5.7584394e-01 2.8933593e-01 -9.7412173e-02 -3.3005364e-01 -1.8270914e-01 -2.6386204e-01 -1.4575123e-01 -2.4590470e-01 -1.3993020e-01 -2.3281291e-01 -1.0767605e-01 -2.0548744e-01 -6.5373551e-02 -1.4877727e-01 1.7969238e-01 -1.5403060e-01 5.3438818e-02 -4.5554406e-01 1.4189844e+00 7.1852286e-01 -3.4912740e-01 4.6167503e-02 -1.2369329e-01 1.7866981e-01 2.2574035e-01 6.1408672e-01 2.2181637e-01 -1.4414966e-01 -2.8861089e-01 -1.8687207e-01 -2.3331545e-01 -1.4991734e-01 -2.1102815e-01 -1.3688635e-01 -1.9152133e-01 -1.0230906e-01 -1.7755593e-01 -5.5949289e-02 -1.6047030e-01 9.7722182e-02 9.7916161e-03 4.8613474e-02 -2.3407378e-01 2.8053932e-01 1.7575434e+00 -1.3749850e-01 1.9854903e-02 -9.3414457e-02 1.1254364e-01 1.4992788e-01 4.9461882e-01 4.9120523e-01 5.0589776e-02 -3.0857823e-01 -2.0940593e-01 -2.6022068e-01 -1.6215081e-01 -2.3964810e-01 -1.6078228e-01 -2.5111159e-01 -1.4447466e-01 -2.4062389e-01 -1.2441274e-02 -9.3191172e-02 -4.1369607e-02 -3.3633635e-01 1.8858576e-01 1.6689251e+00 -2.4123587e-01 -5.8172472e-02 -1.7510932e-01 6.2053436e-02 9.1207793e-02 4.7385193e-01 4.4288961e-01 -8.9274147e-03 -3.4994201e-01 -2.4203651e-01 -2.9648885e-01 -1.7593408e-01 -2.6709299e-01 -1.5364929e-01 -2.5289576e-01 -1.1505295e-01 -2.3572532e-01 9.8579822e-02 -1.0110191e-01 3.5502987e-02 -4.2500501e-01 6.0086779e-01 1.5354330e+00 -3.9380885e-01 4.1544151e-02 -2.1423914e-01 1.4860193e-01 9.0501966e-02 5.6402711e-01 3.4898238e-01 -4.1623275e-02 -3.5559118e-01 -1.9107453e-01 -2.9021661e-01 -1.1456524e-01 -2.6363824e-01 -9.9902837e-02 -2.3613386e-01 -6.7335296e-02 -2.1614011e-01 1.6452178e-01 -7.5973916e-02 5.9747416e-02 -4.0856850e-01 4.9440147e-01 1.5700256e+00 -2.9745901e-01 6.2896841e-03 -1.5474736e-01 1.0290524e-01 1.2823010e-01 4.9293594e-01 4.3796728e-01 -4.8591058e-02 -2.7676635e-01 -2.1382056e-01 -2.2325842e-01 -1.4534643e-01 -1.8283872e-01 -1.3843405e-01 -1.6614906e-01 -1.0715236e-01 -1.4008045e-01 5.7908113e-02 5.3656290e-02 -1.8996850e-02 -1.9790207e-01 9.9519700e-02 1.8139111e+00 -1.1617655e-01 -4.6768678e-02 -1.4979128e-01 6.7695945e-02 9.1916919e-02 4.5368005e-01 4.4516263e-01 3.1240241e-02 -3.6336101e-01 -2.3583696e-01 -3.3139703e-01 -1.7623925e-01 -3.1328945e-01 -1.6019331e-01 -3.0376095e-01 -1.1552337e-01 -2.7257816e-01 1.3850143e-01 -2.1395228e-01 7.5391270e-02 -5.3975468e-01 1.2846860e+00 9.9028198e-01 -4.5339563e-01 1.0803112e-02 -2.0505988e-01 1.2908322e-01 1.6016321e-01 5.5452611e-01 2.3327093e-01 -2.2175091e-01 -3.2546570e-01 -2.6263980e-01 -2.3476737e-01 -2.2784700e-01 -2.0289758e-01 -2.2789430e-01 -1.5599942e-01 -2.1254592e-01 4.0775437e-02 -4.4465014e-02 -5.4057377e-03 -3.4340998e-01 3.7653492e-01 1.6896306e+00 -2.7926137e-01 3.4180512e-02 -1.5185316e-01 1.5072849e-01 1.3881315e-01 5.6115304e-01 4.6303053e-01 -4.9127832e-03 -2.8070381e-01 -1.7703549e-01 -1.9571151e-01 -1.0880734e-01 -1.2881561e-01 -9.2524679e-02 -8.1640182e-02 -5.8727860e-02 -2.2987747e-02 -1.7928207e-02 2.4404448e-01 2.6886185e-02 1.5979202e-01 -3.1610776e-01 1.3758660e+00 1.1253221e+00 -3.4590258e-01 2.3865143e-01 -1.1384301e-01 3.3202807e-01 2.2120297e-01 7.4373907e-01 2.6528036e-01 -1.9931256e-02 -3.0695938e-01 -7.6989321e-02 -2.6058229e-01 -3.8145485e-02 -2.4436688e-01 -3.9733013e-02 -2.4747277e-01 -1.6635110e-02 -2.4516935e-01 5.2651426e-03 -2.2609841e-01 2.3020435e-01 -1.7367678e-01 1.4282597e-01 -5.3526562e-01 9.8280583e-01 1.1892721e+00 -3.8209173e-01 -2.3283594e-03 -1.6371374e-01 7.6712475e-02 1.3265766e-01 4.7510681e-01 3.5016713e-01 -1.6734372e-01 -2.9898472e-01 -2.8956887e-01 -2.2595521e-01 -2.5205665e-01 -1.9607793e-01 -2.4871025e-01 -1.7498515e-01 -2.4672295e-01 -1.3568560e-01 -2.4314617e-01 -1.0074797e-01 -2.0847246e-01 1.4646343e-01 -1.8747588e-01 7.0347580e-02 -5.3618251e-01 1.1731122e+00 1.0396443e+00 -4.4539608e-01 2.7911537e-02 -2.0617316e-01 1.1484976e-01 1.1690877e-01 5.4058762e-01 2.7783989e-01 -1.8466298e-01 -3.5298391e-01 -2.7959449e-01 -2.7859865e-01 -2.3822110e-01 -2.3513856e-01 -2.3683816e-01 -1.9542443e-01 -2.2727821e-01 -1.4699688e-01 -2.0184878e-01 6.3487314e-02 -1.2004387e-01 5.4706945e-02 -4.3706369e-01 8.9840566e-01 1.3335550e+00 -4.5005561e-01 1.2135676e-01 -2.2805001e-01 2.1557518e-01 1.0513640e-01 6.3747273e-01 3.2602039e-01 -4.6496528e-02 -3.8217663e-01 -1.6447296e-01 -3.1858774e-01 -1.1821513e-01 -2.8825336e-01 -8.9197448e-02 -2.6200900e-01 -5.7313193e-02 -2.3716866e-01 -9.8481283e-03 -2.2499494e-01 1.9075208e-01 -1.0568320e-01 1.4925553e-01 -4.3503587e-01 8.0680359e-01 1.4747591e+00 -3.3037862e-01 5.9531830e-02 -1.4005186e-01 1.4244604e-01 1.5437482e-01 5.4245862e-01 4.2604936e-01 -5.3262691e-02 -3.2774556e-01 -2.4755570e-01 -2.6754083e-01 -1.9315379e-01 -2.4189532e-01 -1.8319658e-01 -2.1085717e-01 -1.6048758e-01 -1.7903291e-01 -1.0800901e-01 -1.6026836e-01 3.4207670e-02 3.7800986e-02 3.4764468e-03 -1.5848939e-01 8.3301037e-02 1.7958942e+00 -2.1766630e-02 -5.8402233e-02 -7.0393125e-02 6.7199100e-02 1.4587121e-01 4.4014420e-01 5.5791934e-01 1.1340958e-01 -2.7516536e-01 -2.3555664e-01 -2.5466915e-01 -1.7907853e-01 -2.1024161e-01 -1.6637133e-01 -1.8610571e-01 -1.4680264e-01 -1.5650881e-01 -1.0681430e-01 -1.3079271e-01 -2.1213455e-02 8.7199895e-02 -3.9108510e-02 -7.3118968e-02 -1.5401537e-01 1.7649436e+00 2.8969993e-01 -1.9931469e-01 8.8832620e-03 -5.1454152e-02 2.0181559e-01 3.0997545e-01 6.3769128e-01 1.3008950e-01 -2.1296489e-01 -3.2359365e-01 -1.9674776e-01 -2.5923448e-01 -1.5361518e-01 -2.5402327e-01 -1.2827939e-01 -2.4107422e-01 -8.2668697e-02 -2.0136734e-01 1.5762977e-01 -1.5756593e-01 1.0858696e-01 -4.3745551e-01 1.4569026e+00 8.8967841e-01 -3.1086475e-01 1.3276841e-01 -6.0028527e-02 2.7342012e-01 2.8167720e-01 6.8728060e-01 3.7889244e-01 -9.7017165e-03 -1.2545931e-01 -3.1857478e-02 -2.2700092e-02 7.2500046e-02 4.1775716e-02 1.0806059e-01 6.1913545e-02 1.2739912e-01 9.9782346e-02 2.4603872e-01 3.4908179e-01 2.3290907e-01 1.0819500e-01 9.5411054e-02 1.9069024e+00 3.4751609e-01 -3.1300842e-02 1.1039892e-01 9.5783395e-02 2.6636159e-01 4.1286215e-01 6.7067565e-01 1.4749322e-01 -1.9105316e-01 -2.5723848e-01 -1.8204341e-01 -2.0393159e-01 -1.2771415e-01 -2.0708779e-01 -1.1266650e-01 -1.2324334e-01 1.4159492e-01 -1.6305546e-01 -3.8613072e-02 -4.2742039e-01 1.4764741e+00 4.5138000e-01 -3.2249513e-01 -2.4369422e-02 -1.1815154e-01 1.3054578e-01 2.4850544e-01 5.6815391e-01 1.3046813e-01 -2.9114310e-01 -3.4280739e-01 -3.1190257e-01 -2.7645326e-01 -2.7735900e-01 -2.4245084e-01 -2.0626636e-01 3.5337831e-02 -2.2566937e-01 -1.4170582e-01 -5.4661554e-01 1.3371932e+00 5.9447454e-01 -5.0397350e-01 -2.9767913e-02 -2.7500689e-01 1.2553161e-01 9.1683687e-02 5.6234115e-01 3.1885899e-03 -2.7217844e-01 -4.7466392e-01 -2.5306330e-01 -4.0691299e-01 -2.0649391e-01 -3.4585956e-01 1.0547443e-01 -2.8971963e-01 -7.7129006e-02 -6.4989409e-01 1.3492178e+00 6.5405574e-01 -4.8506381e-01 -6.4698519e-02 -2.0799866e-01 1.0397432e-01 1.5436764e-01 5.3116529e-01 6.9706626e-02 -2.7458742e-01 -3.6715925e-01 -2.6255262e-01 -3.1714417e-01 -2.0583918e-01 -3.0048356e-01 3.9272693e-03 -3.5481882e-02 -9.9086023e-02 -4.4699179e-01 1.5333346e-01 1.5918081e+00 -3.6272531e-01 -1.2763792e-01 -2.5180695e-01 3.7068458e-03 4.1628456e-02 4.2105566e-01 3.4167295e-01 -1.0605863e-01 -3.6217650e-01 -2.6593867e-01 -2.8180876e-01 -2.1648421e-01 -2.4277027e-01 -2.0645247e-01 -2.2811726e-01 -1.3183590e-01 6.4622597e-02 -1.4899760e-01 -1.7504335e-01 -4.0782112e-01 1.4392591e+00 4.0129700e-01 -4.0829244e-01 -3.0989549e-02 -2.0287001e-01 1.3560419e-01 1.3311808e-01 5.3621362e-01 4.5443407e-03 -2.1023288e-01 -3.6192906e-01 -1.8661301e-01 -3.1413059e-01 -1.5814515e-01 -3.0125463e-01 -1.3833008e-01 -2.8946060e-01 -1.2757366e-01 -2.7429702e-01 -9.9992020e-02 -2.5288985e-01 -6.1767339e-02 -2.3613286e-01 -3.7260057e-02 -2.1432989e-01 1.7490188e-01 -2.0626853e-01 7.8316384e-02 -4.8364777e-01 1.5253243e+00 5.4467245e-01 -3.1499000e-01 -7.0141270e-02 -1.1276638e-01 2.8082454e-02 1.7876333e-01 4.1343740e-01 2.3305195e-01 -2.8697529e-01 -2.8119715e-01 -3.2229744e-01 -2.1316290e-01 -3.1556796e-01 -1.9652766e-01 -3.2684951e-01 -1.8512477e-01 -3.2650249e-01 -1.3987994e-01 -3.1057672e-01 8.2384626e-02 -2.4918284e-01 5.1828247e-02 -5.6870398e-01 1.1970759e+00 9.2033389e-01 -4.2724040e-01 -3.4064515e-03 -1.8044053e-01 1.0783580e-01 1.5413674e-01 5.2666305e-01 2.5486779e-01 -2.4017437e-01 -3.5092335e-01 -3.2285047e-01 -2.6684533e-01 -2.7588472e-01 -2.2970309e-01 -2.5886812e-01 -1.9758321e-01 -2.4453764e-01 -1.4093197e-01 -2.2302177e-01 -9.4627331e-02 -1.7430423e-01 1.5966331e-01 -1.7893711e-01 7.9570765e-02 -4.8824142e-01 1.2845648e+00 8.8618805e-01 -3.9527356e-01 4.0282135e-02 -1.5492029e-01 1.3826254e-01 1.6416015e-01 5.6708597e-01 2.8307245e-01 -1.8183921e-01 -3.3829407e-01 -2.7806265e-01 -2.7838955e-01 -2.3565712e-01 -2.3963304e-01 -2.3137893e-01 -2.1747787e-01 -2.2078951e-01 -1.9110815e-01 -2.0877525e-01 -1.5564216e-01 -1.9268001e-01 -1.1094423e-01 -1.4497640e-01 1.2090926e-01 -1.4831619e-01 2.1145625e-02 -4.3844444e-01 1.4433232e+00 6.2232666e-01 -3.6465546e-01 4.6097285e-03 -1.2979306e-01 1.3718177e-01 1.7874226e-01 5.5875724e-01 2.5247395e-01 -1.9320710e-01 -3.2404520e-01 -2.6998563e-01 -2.7649237e-01 -2.3238386e-01 -2.2810950e-01 -2.1809500e-01 -1.9668473e-01 -1.9691519e-01 -1.6411940e-01 -1.7356826e-01 -1.1996791e-01 -1.4357470e-01 -6.3544709e-02 -1.3700668e-01 8.0942768e-02 1.1771567e-02 3.9792515e-02 -2.4350420e-01 2.9511810e-01 1.7240174e+00 -1.7342988e-01 -7.3719659e-03 -1.2579165e-01 8.5595772e-02 1.1449950e-01 4.4693600e-01 5.2768260e-01 7.9947462e-02 -3.2173080e-01 -2.7059332e-01 -2.7402530e-01 -2.2288057e-01 -2.2342412e-01 -2.0713388e-01 -1.8260064e-01 -1.9014649e-01 -1.4093402e-01 -1.6613284e-01 -8.4374905e-02 -1.0798669e-01 1.6458573e-01 -8.7680623e-02 7.7526422e-02 -3.8449397e-01 1.4988646e+00 7.6381974e-01 -3.2108112e-01 1.1965664e-01 -8.2242549e-02 2.6221095e-01 2.8125387e-01 7.3715414e-01 3.4405864e-01 -8.7739965e-02 -2.7419909e-01 -1.6044933e-01 -2.0181116e-01 -1.1051144e-01 -1.7524834e-01 -9.7413441e-02 -1.4300105e-01 -7.0343580e-02 -9.7044684e-02 -4.9106231e-02 2.4186047e-02 1.8201223e-01 5.8420242e-04 -2.7161925e-02 -5.3498136e-02 1.8535544e+00 1.5423490e-01 -5.7919245e-02 -2.7158133e-03 1.0708802e-01 2.1950441e-01 4.8463036e-01 6.9230078e-01 2.6935412e-01 -1.9552399e-01 -1.7316558e-01 -1.6049712e-01 -1.0334947e-01 -1.1379789e-01 -8.3536122e-02 -8.3042576e-02 -6.1145676e-02 -5.6296065e-02 -3.7271898e-02 -2.7152027e-02 4.1813202e-02 2.1583221e-01 2.9603783e-02 5.6651377e-02 -1.8505705e-01 1.7520278e+00 4.9715582e-01 -1.9106952e-01 1.0078802e-01 -1.0333605e-02 2.5662130e-01 3.2249703e-01 6.9718088e-01 2.6194944e-01 -1.3446672e-01 -2.7219113e-01 -1.5647500e-01 -2.1868077e-01 -1.1664158e-01 -2.0502123e-01 -8.4941692e-02 -1.8546412e-01 -6.3035193e-02 -1.6407277e-01 -1.6479297e-02 -1.5603291e-01 2.0922234e-01 -4.5489482e-02 1.3173946e-01 -3.9844614e-01 8.6151135e-01 1.4075515e+00 -3.5190468e-01 1.2790988e-01 -1.3687007e-01 2.1698343e-01 1.5207894e-01 6.1914514e-01 4.4717166e-01 6.6459520e-02 -3.0632399e-01 -1.3756944e-01 -2.5842818e-01 -9.4731709e-02 -2.3962500e-01 -8.1519467e-02 -2.2969028e-01 -5.0623131e-02 -2.1232036e-01 -1.4409890e-02 -1.9000423e-01 2.3548204e-01 -1.1023442e-01 1.5320315e-01 -4.6836506e-01 1.1199792e+00 1.1567770e+00 -3.4802329e-01 9.2524128e-02 -1.0773776e-01 1.9095889e-01 1.9232709e-01 5.9027913e-01 4.2096298e-01 -6.8479927e-02 -2.7739316e-01 -2.2104566e-01 -2.2147742e-01 -2.0091665e-01 -2.0600925e-01 -1.8751497e-01 -1.7028528e-01 -1.7795138e-01 -1.2689165e-01 -1.6319015e-01 3.4623858e-02 2.0302862e-02 1.1685303e-02 -2.3133126e-01 1.7633377e-01 1.7694460e+00 -1.4225745e-01 -2.9088552e-02 -1.0687107e-01 7.3960914e-02 1.3249458e-01 4.4704507e-01 5.4427421e-01 1.1392925e-01 -2.7432378e-01 -2.2645037e-01 -2.2045095e-01 -1.6705045e-01 -1.8826984e-01 -1.6384945e-01 -1.5541473e-01 -1.4378239e-01 -1.1875674e-01 -4.7966655e-02 1.4017437e-01 -5.6819298e-02 -2.2927406e-02 -2.3137050e-01 1.7597783e+00 3.3987088e-01 -2.0970317e-01 7.3391476e-03 -1.9993530e-02 1.7699824e-01 3.3332701e-01 6.1172495e-01 2.2048176e-01 -2.1176299e-01 -2.4805279e-01 -2.1667761e-01 -1.7010754e-01 -1.9342425e-01 -1.6108465e-01 -1.8522452e-01 -1.3706436e-01 -1.8341281e-01 -1.0330576e-01 -1.3972305e-01 1.5066455e-01 -1.2903555e-01 3.7515736e-02 -4.3044484e-01 1.5115028e+00 6.6500838e-01 -3.4903363e-01 4.1134732e-02 -1.2452758e-01 1.6810506e-01 2.0989507e-01 5.8410068e-01 2.6509801e-01 -1.7183297e-01 -3.0531766e-01 -2.3536586e-01 -2.3434583e-01 -2.1564966e-01 -2.1998516e-01 -2.2526623e-01 -2.0038843e-01 -2.2752385e-01 -1.5780063e-01 -1.8239444e-01 8.0478387e-02 -1.8328387e-01 -2.3435551e-02 -5.1824572e-01 1.2842342e+00 7.5423003e-01 -4.7268357e-01 -1.5981366e-04 -2.3839627e-01 9.9139842e-02 7.3522293e-02 5.1808472e-01 1.7156550e-01 -2.2276018e-01 -4.1281668e-01 -2.8987012e-01 -3.3827217e-01 -2.4720261e-01 -3.1260734e-01 -2.3197960e-01 -2.5700450e-01 -2.1710575e-01 -1.9747161e-01 -1.3826832e-01 5.7773966e-02 -1.1748315e-01 -5.1366677e-02 -4.0145287e-01 1.4558362e+00 6.4102866e-01 -3.8121373e-01 7.4315567e-02 -1.6556408e-01 2.0833628e-01 1.7954984e-01 6.3223420e-01 2.0694972e-01 -1.3959078e-01 -3.3923497e-01 -1.8802526e-01 -2.7812135e-01 -1.5587952e-01 -2.6260774e-01 -1.4435016e-01 -2.3855773e-01 -1.3334278e-01 -1.9568029e-01 -4.4365195e-02 3.4140870e-02 -6.0059325e-02 -1.0649566e-01 -2.5555485e-01 1.6272955e+00 4.2325072e-01 -3.4454372e-01 3.8964638e-02 -1.5689383e-01 2.1109923e-01 1.8810548e-01 6.6317381e-01 1.0112239e-01 -1.7138834e-01 -3.9323610e-01 -1.7130355e-01 -3.2521582e-01 -1.2681301e-01 -3.1671155e-01 -9.5078363e-02 -3.0462593e-01 -4.9694483e-02 -2.7355951e-01 1.9439914e-01 -1.9670230e-01 1.2988931e-01 -5.2882573e-01 9.3631909e-01 1.2874884e+00 -3.7782868e-01 2.0791392e-02 -1.3227090e-01 1.1659266e-01 1.8395259e-01 5.3247693e-01 4.5058567e-01 -9.7689058e-02 -2.7147167e-01 -2.6763280e-01 -2.1696391e-01 -2.2258742e-01 -1.8420788e-01 -2.2613290e-01 -1.6777515e-01 -2.1480825e-01 -1.2685136e-01 -1.9412632e-01 -9.2705626e-02 -1.1051167e-01 1.6355581e-01 -1.3926243e-01 3.2810653e-02 -3.9405018e-01 1.5989634e+00 5.2646622e-01 -2.8000660e-01 2.1756165e-02 -5.9680138e-02 1.6950348e-01 2.7633468e-01 6.1219565e-01 3.1276632e-01 -1.6292561e-01 -2.3728960e-01 -2.0800558e-01 -1.7167787e-01 -1.7959109e-01 -1.4988107e-01 -1.8481176e-01 -1.2689696e-01 -1.7845676e-01 -9.1372161e-02 -1.6048543e-01 -5.2555986e-02 -1.3368178e-01 1.8525827e-01 -9.1790129e-02 9.7112052e-02 -4.3602047e-01 1.0002140e+00 1.2924860e+00 -3.6991846e-01 1.3350305e-01 -1.4468427e-01 2.1937729e-01 1.4007539e-01 6.2129111e-01 4.3072859e-01 2.7253682e-02 -3.1851794e-01 -1.5256241e-01 -2.6787255e-01 -1.0927383e-01 -2.3384184e-01 -1.0066465e-01 -2.1452730e-01 -8.4212879e-02 -2.1210229e-01 -4.7356481e-02 -1.8718868e-01 -1.1750448e-02 -1.6525810e-01 1.9637447e-01 -1.0788780e-01 1.3080520e-01 -4.1370247e-01 8.0047794e-01 1.3903086e+00 -3.5232700e-01 5.8588924e-02 -1.6654479e-01 1.2851484e-01 1.0529546e-01 5.2332496e-01 4.4788126e-01 7.6911336e-03 -3.3616956e-01 -2.3899291e-01 -2.9121927e-01 -1.9054306e-01 -2.6781993e-01 -1.8522253e-01 -2.5203321e-01 -1.8345076e-01 -2.4006232e-01 -1.5465753e-01 -2.2894200e-01 -1.4008407e-01 -1.3322449e-01 6.8157108e-02 -1.7608358e-01 -5.1513429e-02 -3.7997675e-01 1.5522657e+00 3.6536052e-01 -3.2475568e-01 -5.4483529e-02 -1.4589676e-01 8.1829721e-02 1.8560879e-01 5.5682338e-01 1.9419856e-01 -2.6128036e-01 -3.8341322e-01 -2.9912727e-01 -3.2597409e-01 -2.4452528e-01 -3.1278886e-01 -2.2647966e-01 -2.9788280e-01 -1.9125641e-01 -2.6233067e-01 -1.4943107e-01 -2.1600579e-01 8.1006949e-02 -1.9670342e-01 -7.1883799e-03 -4.5254292e-01 1.5196946e+00 5.2194542e-01 -3.6581274e-01 -3.8112660e-02 -1.6179857e-01 9.8408391e-02 1.7540016e-01 5.6627700e-01 2.5375025e-01 -2.5461180e-01 -3.7262478e-01 -3.0443627e-01 -2.6777902e-01 -2.4759302e-01 -2.1715001e-01 -2.3061877e-01 -1.7222835e-01 -1.9849689e-01 -9.2197760e-02 -1.8007007e-01 1.2391565e-01 -5.7943834e-02 9.0826469e-02 -3.5309032e-01 8.5105301e-01 1.4752500e+00 -3.5626291e-01 1.7173641e-01 -1.4520039e-01 2.2766537e-01 1.4195419e-01 6.6043592e-01 4.6955994e-01 6.4817177e-02 -3.3691235e-01 -1.6368486e-01 -2.9041514e-01 -1.2734019e-01 -2.6184515e-01 -1.2077452e-01 -2.4570553e-01 -1.0946313e-01 -2.1444656e-01 -7.5339038e-02 -1.9046139e-01 -9.4006350e-04 2.0195125e-02 -4.1427903e-03 -1.5442631e-01 -7.9345058e-02 1.6889559e+00 1.9314570e-01 -2.4791007e-01 -1.5947671e-02 -1.0528389e-01 1.5688975e-01 2.3191473e-01 6.1762682e-01 1.1718586e-01 -2.1778259e-01 -3.7860849e-01 -2.3640134e-01 -3.4093041e-01 -1.9590102e-01 -3.3811271e-01 -1.7552376e-01 -3.2724465e-01 -1.4990539e-01 -3.0719149e-01 -1.0341627e-01 -2.7686415e-01 1.3347097e-01 -2.4059551e-01 5.8198857e-02 -5.7643536e-01 1.2150398e+00 9.0159687e-01 -4.2959016e-01 -1.7837534e-02 -1.9203564e-01 7.8324972e-02 1.2815037e-01 5.1111749e-01 3.4963548e-01 -1.5555283e-01 -3.4984035e-01 -2.8229729e-01 -2.8672878e-01 -2.4066162e-01 -2.5560471e-01 -2.3790575e-01 -2.4535009e-01 -2.0957153e-01 -2.1402026e-01 -1.7941030e-01 -1.4403450e-01 4.3126503e-02 -1.2458053e-01 -7.6993943e-02 -3.3170575e-01 1.6131527e+00 4.0918838e-01 -3.5290990e-01 -7.4428981e-03 -1.6286238e-01 1.5694718e-01 1.7786773e-01 6.1326061e-01 1.5472471e-01 -1.9744338e-01 -3.8896809e-01 -2.1335874e-01 -3.2751015e-01 -1.6456049e-01 -3.1773254e-01 -1.4229649e-01 -3.2375589e-01 -9.8978983e-02 -3.1385291e-01 6.8413694e-02 -1.5652925e-01 6.9049145e-02 -4.3937022e-01 5.6298031e-01 1.5322731e+00 -2.9006743e-01 -1.0544658e-02 -1.2669450e-01 6.8997931e-02 1.5129154e-01 4.5837683e-01 5.3555489e-01 -8.2527168e-03 -2.7093216e-01 -2.8342610e-01 -2.0530825e-01 -2.3694962e-01 -1.6213603e-01 -2.3855243e-01 -1.3493879e-01 -2.4611574e-01 -8.5432107e-02 -2.2906672e-01 1.4342454e-01 -1.3045883e-01 9.1720230e-02 -4.5015066e-01 6.8248774e-01 1.4645051e+00 -3.9676371e-01 -8.2774602e-03 -2.1026505e-01 6.4141178e-02 7.2545887e-02 4.5863653e-01 4.4624995e-01 -4.4812804e-02 -3.3586264e-01 -2.7857947e-01 -2.6704812e-01 -2.4817529e-01 -2.4381676e-01 -2.5324009e-01 -1.8576998e-01 -2.5637361e-01 -1.7224750e-01 -2.1398956e-01 7.0364405e-02 -1.9810188e-01 -9.7523934e-04 -4.7234618e-01 1.4483984e+00 6.8133612e-01 -3.9057822e-01 -8.9170678e-03 -1.7174718e-01 9.2800348e-02 1.4936655e-01 5.3141283e-01 2.4624990e-01 -2.3081380e-01 -3.4287723e-01 -2.9811021e-01 -2.6862519e-01 -2.5403323e-01 -2.3548629e-01 -2.5690439e-01 -2.0889096e-01 -2.5603382e-01 -1.5749154e-01 -2.3406968e-01 6.5532387e-02 -1.9463759e-01 1.1271823e-02 -5.2938918e-01 1.0664782e+00 1.0430228e+00 -4.9207123e-01 1.2203754e-02 -2.6081920e-01 9.7929917e-02 4.4176842e-02 5.1379166e-01 2.8511328e-01 -1.2737270e-01 -3.8719690e-01 -2.5934548e-01 -3.0141328e-01 -2.1496095e-01 -2.6380670e-01 -2.1586658e-01 -2.3140616e-01 -2.1468592e-01 -1.8322740e-01 -2.0900134e-01 2.0155510e-02 -9.9813147e-02 -7.7012833e-03 -3.8512076e-01 7.2493123e-01 1.4930027e+00 -4.5873633e-01 4.9116763e-02 -2.7952811e-01 1.5196728e-01 4.9751512e-02 5.8291237e-01 3.7045472e-01 2.5007928e-02 -4.3290560e-01 -1.8745222e-01 -3.6607438e-01 -1.3776197e-01 -3.2931511e-01 -1.1285895e-01 -3.2583287e-01 -7.1005776e-02 -2.7113926e-01 1.5367667e-01 -2.2685384e-01 9.8882211e-02 -4.9852398e-01 1.5491382e+00 6.8645598e-01 -3.0049791e-01 3.1793011e-02 -6.3857242e-02 1.7149665e-01 2.8723756e-01 6.2436956e-01 3.6130795e-01 -1.6835341e-01 -2.2946630e-01 -2.2902829e-01 -1.6285885e-01 -1.6986244e-01 -1.4635587e-01 -1.4631065e-01 -1.1541812e-01 -1.4099713e-01 -6.7157499e-02 -4.2979795e-02 1.5197662e-01 -7.2520282e-02 7.5788437e-03 -2.3817089e-01 1.7571252e+00 3.3521102e-01 -2.0120893e-01 -1.4160572e-02 -3.4536376e-02 1.2866631e-01 2.9503330e-01 5.7860443e-01 2.2650097e-01 -2.4295325e-01 -2.7179748e-01 -2.6468133e-01 -2.1818373e-01 -2.1851267e-01 -1.9987788e-01 -2.0932871e-01 -1.7038046e-01 -2.0919254e-01 -1.3019388e-01 -1.8925136e-01 3.6296246e-02 -2.6678804e-02 -1.7647376e-02 -2.8927773e-01 2.3027541e-01 1.6669564e+00 -2.3259221e-01 -3.1973876e-02 -1.7217785e-01 7.1920090e-02 5.2711501e-02 4.2545576e-01 4.7663303e-01 1.0635692e-01 -3.3356457e-01 -2.1331595e-01 -3.0959111e-01 -1.6201543e-01 -2.6285935e-01 -1.4337629e-01 -2.4703476e-01 -1.2387491e-01 -2.3732413e-01 -8.8238490e-02 -2.3287157e-01 7.0351036e-02 -7.3388405e-02 4.3618525e-02 -3.3049966e-01 3.2592549e-01 1.6801364e+00 -1.9412475e-01 -4.4838643e-02 -1.1801466e-01 4.0825777e-02 1.3852567e-01 4.2629153e-01 5.5615479e-01 5.7058508e-02 -2.8708389e-01 -2.8148403e-01 -2.4279739e-01 -2.1598312e-01 -1.9049598e-01 -2.1462672e-01 -1.5354840e-01 -2.2243251e-01 -1.0207544e-01 -1.6220948e-01 1.3267407e-01 -1.3031994e-01 6.7461401e-02 -3.9434447e-01 1.5555145e+00 6.9473843e-01 -3.0669699e-01 8.3854611e-02 -7.9296204e-02 2.1236738e-01 2.7376923e-01 6.8194668e-01 3.5477988e-01 -1.0456932e-01 -2.2300981e-01 -1.5446202e-01 -1.3177706e-01 -1.0238949e-01 -9.1591169e-02 -9.5113107e-02 -6.6944365e-02 -9.0668539e-02 -2.5778490e-02 -8.5584626e-02 1.7856459e-01 3.7857876e-02 1.1408621e-01 -2.8703070e-01 5.5520644e-01 1.6501321e+00 -2.8475190e-01 9.2482414e-02 -1.2640792e-01 1.8305209e-01 1.3094925e-01 5.7465891e-01 5.2259630e-01 1.2325560e-01 -2.7779288e-01 -1.7638922e-01 -2.3848976e-01 -1.2449070e-01 -1.9593716e-01 -1.1366524e-01 -1.7279725e-01 -1.1095153e-01 -1.4810014e-01 -9.8466818e-02 -1.1442163e-01 -1.2445376e-02 1.4049062e-01 -3.9114986e-02 -3.9217902e-03 -2.8435030e-01 1.5886636e+00 5.1535814e-01 -2.8673928e-01 7.3366341e-02 -1.0900597e-01 1.9689560e-01 2.2008271e-01 6.3694875e-01 2.5512560e-01 -1.5468039e-01 -3.2982772e-01 -2.1628664e-01 -2.7124548e-01 -1.9597994e-01 -2.4439824e-01 -1.8682086e-01 -2.3744165e-01 -1.8344308e-01 -1.9376374e-01 -1.5802788e-01 -1.6466175e-02 4.3581246e-03 -4.7632010e-02 -2.4955413e-01 2.4340528e-01 1.7214612e+00 -2.8558056e-01 6.3219752e-02 -1.8302295e-01 1.7004479e-01 7.5264760e-02 5.5602615e-01 5.0599470e-01 2.0380430e-01 -3.4861218e-01 -1.2855886e-01 -2.9804890e-01 -5.9240545e-02 -2.5705983e-01 -1.6910578e-02 -2.4605087e-01 9.8115072e-03 -2.2825786e-01 2.1541891e-01 -1.0502647e-01 1.6456870e-01 -4.1482184e-01 7.4267337e-01 1.5419042e+00 -2.6850461e-01 5.6103593e-02 -7.9293082e-02 1.4069684e-01 2.2033930e-01 5.5600890e-01 5.8222235e-01 1.9989351e-02 -2.3775148e-01 -2.1921473e-01 -1.7461400e-01 -1.6181647e-01 -1.3156881e-01 -1.4662249e-01 -9.5733146e-02 -1.2582697e-01 -6.6902165e-02 -1.9647943e-02 1.7440582e-01 -5.7898476e-02 1.0189485e-02 -2.0538251e-01 1.7951224e+00 2.7550760e-01 -1.5847011e-01 -1.2355304e-02 5.1031367e-03 1.4985675e-01 3.4720235e-01 5.9673703e-01 2.5722580e-01 -2.4546723e-01 -2.4969261e-01 -2.6527588e-01 -1.9888899e-01 -2.3766100e-01 -1.8907787e-01 -2.4038238e-01 -1.7971555e-01 -2.2791624e-01 -1.6813576e-01 -2.0821165e-01 -1.3791777e-01 -9.8668373e-02 8.6577870e-02 -1.3972747e-01 -1.1213317e-01 -2.3132468e-01 1.6962534e+00 1.0236718e-01 -1.8308473e-01 -1.2449514e-01 -2.2860777e-02 5.2472449e-02 3.0279909e-01 5.0445767e-01 2.5208796e-01 -2.8241397e-01 -2.3602714e-01 -2.8750224e-01 -1.7310994e-01 -2.4262062e-01 -1.4578626e-01 -2.4236799e-01 -1.2459340e-01 -2.2629158e-01 -8.7559523e-02 -2.3673366e-01 -4.4605067e-02 -2.1158410e-01 1.7403846e-01 -1.2302768e-01 9.8782120e-02 -4.6538739e-01 7.5618675e-01 1.4109128e+00 -3.9186300e-01 -1.8067143e-03 -1.9681636e-01 6.9029210e-02 6.6805318e-02 4.4082020e-01 4.2596301e-01 -1.9031250e-02 -3.3629985e-01 -2.7263544e-01 -2.6431996e-01 -2.2389174e-01 -2.2647533e-01 -2.2095958e-01 -1.9698488e-01 -2.2097096e-01 -1.5250197e-01 -2.0813656e-01 1.8642001e-02 -5.9213554e-02 -2.1775110e-02 -3.4853167e-01 3.1728019e-01 1.6410832e+00 -3.1061334e-01 -5.3177199e-03 -1.9969685e-01 9.1560224e-02 5.9923973e-02 4.6409104e-01 4.6584623e-01 9.2299812e-02 -3.6827584e-01 -2.3176853e-01 -3.2497369e-01 -1.6910290e-01 -2.8741397e-01 -1.5887261e-01 -2.7469004e-01 -1.3874112e-01 -2.5894357e-01 -8.4167362e-02 -2.3932896e-01 1.5548196e-01 -1.4896050e-01 8.0690765e-02 -4.9986062e-01 9.2830795e-01 1.2781745e+00 -4.6094079e-01 3.3365971e-02 -2.4093328e-01 1.0491187e-01 3.5435863e-02 5.0302939e-01 3.2828795e-01 -6.4896625e-02 -4.4608727e-01 -2.7270160e-01 -3.8774304e-01 -2.2844088e-01 -3.6431059e-01 -2.2264291e-01 -3.5905046e-01 -1.9608342e-01 -3.5234984e-01 -1.5920396e-01 -3.3244913e-01 6.2355095e-02 -3.0505471e-01 -7.1100911e-02 -7.1674825e-01 9.4693682e-01 8.1773766e-01 -6.8892382e-01 -2.2760369e-01 -4.8510490e-01 -1.8551202e-01 -2.2814314e-01 1.8095311e-01 -2.2892891e-03 -4.5885989e-01 -7.7189687e-01 -6.5174762e-01 -7.4728570e-01 -6.5588764e-01 -7.6268204e-01 -7.1279745e-01 -8.5402368e-01 -8.0781147e-01 -9.4930300e-01 -8.5454207e-01 -1.0005464e+00 -6.9117584e-01 -9.0058725e-01 -7.3923713e-01 -1.2083824e+00 -7.3128381e-02 7.3548073e-01 -1.1417169e+00 -6.6164432e-01 -9.3677179e-01 -5.4869559e-01 -6.2492507e-01 -1.3914065e-01 -2.5225826e-01 -6.3880401e-01 -1.1039575e+00 -9.2629276e-01 -1.0837078e+00 -8.7886013e-01 -1.0561878e+00 -8.4619402e-01 -1.0141943e+00 -7.7059576e-01 -9.3948300e-01 -4.5811276e-01 -7.6001778e-01 -4.6876817e-01 -1.0644454e+00 4.0458871e-01 8.3914224e-01 -8.9120896e-01 -4.2380301e-01 -6.2238009e-01 -2.7646144e-01 -2.5194716e-01 1.7318822e-01 9.4327040e-02 -3.7359605e-01 -6.5623457e-01 -5.6962004e-01 -6.2332534e-01 -5.7289791e-01 -6.3309365e-01 -6.0130185e-01 -6.5894072e-01 -6.3561947e-01 -6.2131301e-01 -4.2825423e-01 -6.7657100e-01 -6.4142020e-01 -9.0800520e-01 1.0285850e+00 -2.9296684e-01 -9.5951520e-01 -6.9332266e-01 -7.9442907e-01 -5.4018787e-01 -4.6066517e-01 -8.1410995e-02 -4.9961035e-01 -8.5920814e-01 -9.6569391e-01 -8.4202829e-01 -8.8380893e-01 -7.3641101e-01 -8.3428682e-01 -6.7588745e-01 -7.7469238e-01 -5.9589728e-01 -7.2487654e-01 -3.4588332e-01 -5.3240226e-01 -3.5441848e-01 -7.8968863e-01 1.0087881e-01 1.1937792e+00 -6.1862490e-01 -3.3704897e-01 -4.4780180e-01 -2.1843242e-01 -1.6036991e-01 1.6965368e-01 2.5107632e-01 -2.2207768e-01 -5.1925477e-01 -4.8850018e-01 -4.4228529e-01 -4.4683109e-01 -3.9155988e-01 -4.3070277e-01 -3.5438663e-01 -4.0705546e-01 -2.8131722e-01 -3.5883561e-01 -2.0520860e-02 -2.6329792e-01 -4.9991288e-02 -5.8237487e-01 8.8813440e-01 1.1647806e+00 -5.0550094e-01 3.3825040e-02 -2.4046193e-01 1.4266391e-01 7.5812813e-02 5.4701272e-01 3.6663290e-01 -5.5488432e-02 -3.5907697e-01 -2.2918932e-01 -2.9781017e-01 -2.0966214e-01 -3.0170535e-01 -2.7190685e-01 -3.9286919e-01 -3.9850252e-01 -3.6932609e-01 -3.3334536e-01 -5.1997453e-01 -6.4608446e-01 -4.6418174e-01 1.3203547e+00 -6.3144788e-01 -5.5112474e-01 -6.3950680e-01 -3.9855206e-01 -3.9593317e-01 -1.8700290e-02 5.0427773e-02 -2.5399853e-01 -7.2278395e-01 -5.6549944e-01 -6.4009523e-01 -4.6414554e-01 -5.7649407e-01 -3.9344106e-01 -5.1670938e-01 -3.1345536e-01 -4.3803152e-01 -2.1942965e-01 -3.7964193e-01 4.5209177e-02 -2.1307936e-01 2.5067861e-02 -4.9902418e-01 6.7508983e-01 1.4689959e+00 -3.1865321e-01 7.3737795e-02 -9.6598410e-02 1.7544924e-01 2.1025954e-01 5.7113072e-01 5.7897099e-01 1.5182338e-01 -1.5077128e-01 -9.3588814e-02 -9.2500924e-02 -4.6422092e-02 -5.3107518e-02 -3.7311471e-02 -1.1554642e-02 -1.0469806e-02 2.0215677e-02 2.4755834e-03 4.2225925e-02 4.0991785e-02 2.9917277e-01 2.8974546e-02 1.6719696e-01 -2.3777702e-01 1.6595261e+00 8.6614905e-01 -1.5284285e-01 2.6207842e-01 7.2882966e-02 4.0139038e-01 4.0619720e-01 8.3462977e-01 5.3523455e-01 1.4510448e-01 -5.5056931e-02 7.6440019e-02 3.0926667e-03 1.3139019e-01 5.7144777e-02 1.6358643e-01 9.1766358e-02 1.9869078e-01 1.1645099e-01 1.9748278e-01 1.0688443e-01 1.5938260e-01 1.6364943e-01 3.6719354e-01 7.3217769e-02 1.1449478e-01 -1.1259858e-01 1.8604697e+00 2.5607731e-01 -1.7034905e-01 -1.0316460e-01 -7.3510228e-02 3.9027691e-02 2.4592332e-01 4.8412779e-01 2.6827467e-01 -2.2450617e-01 -1.9064708e-01 -1.9926771e-01 -1.1451137e-01 -1.8241121e-01 -9.7415975e-02 -1.6869246e-01 -9.6282275e-02 -1.7183164e-01 -6.4166736e-02 -1.0712298e-01 1.5946419e-01 -1.2022307e-01 4.1315575e-03 -3.6818885e-01 1.6552468e+00 4.6513914e-01 -2.3843840e-01 1.4743498e-02 -6.4601332e-02 1.6810550e-01 2.9865793e-01 6.5587475e-01 3.5314305e-01 -8.1640683e-02 -1.7658410e-01 -1.2702291e-01 -1.0439676e-01 -8.5205600e-02 -1.1020809e-01 -8.3347183e-02 -9.1299466e-02 -7.0135465e-02 -1.6949503e-03 1.7764073e-01 -9.6556090e-03 3.7538052e-02 -1.1391258e-01 1.9281410e+00 5.8157615e-01 2.0098754e-01 5.5282501e-01 5.9649037e-01 8.9713282e-01 1.0631337e+00 1.4280731e+00 1.0186106e+00 6.0587137e-01 4.8560230e-01 5.4692187e-01 5.1036881e-01 5.5106188e-01 4.8070822e-01 5.5563049e-01 4.8388742e-01 5.7471738e-01 5.1759805e-01 7.3390046e-01 4.6857068e-01 1.5545610e-01 -2.1396702e-01 -8.2919686e-02 1.5126603e+00 -3.5781421e-01 -5.4054975e-01 -5.1067905e-01 -4.3409089e-01 -2.8634373e-01 -6.4204691e-02 1.9385775e-01 -2.0854675e-01 -5.3406248e-01 -4.4648912e-01 -3.0772834e-01 -2.4012613e-01 -1.2998300e-01 -1.7060368e-01 -1.2916210e-01 -1.3430170e-01 -1.6983064e-02 -4.5850531e-02 8.4551060e-02 3.5081630e-02 2.2005024e-01 -1.3623572e-01 -5.6932164e-02 -4.8331160e-01 1.4671033e+00 3.7299450e-01 -4.2660018e-01 -1.0098854e-01 -1.8590458e-01 1.1566104e-01 1.4699006e-01 5.0483632e-01 2.0632261e-01 -2.5087481e-01 -3.8116642e-01 -2.9058187e-01 -3.1430884e-01 -2.2683093e-01 -2.7065168e-01 -2.0529388e-01 -2.3753577e-01 -1.6266934e-01 -2.0829294e-01 -1.1225007e-01 -1.5617958e-01 8.1484118e-02 2.6822818e-02 5.5443788e-02 -2.2008769e-01 3.3678068e-01 1.7829021e+00 -1.7068244e-01 6.9985278e-02 -8.6232611e-02 1.7926800e-01 1.6028841e-01 5.3906667e-01 5.7920248e-01 2.4289305e-01 -2.4498984e-01 -1.1789264e-01 -2.2852708e-01 -8.5733717e-02 -2.0336803e-01 -4.8835380e-02 -1.6256538e-01 -1.6863955e-02 -1.7134364e-01 1.1345656e-01 -2.9148403e-03 6.3898275e-02 -2.4796950e-01 2.3376156e-01 1.7484835e+00 -5.0161552e-02 1.5635349e-01 2.6523761e-01 2.6409587e-01 3.6172848e-01 5.8459165e-01 7.7299765e-01 1.6488891e-01 -9.5516521e-02 7.4791844e-02 3.6211980e-01 4.6629465e-01 6.7672259e-01 6.6731588e-01 8.6159045e-01 7.8524432e-01 9.8128262e-01 8.7142843e-01 1.2800205e+00 9.3885043e-01 1.2098524e+00 5.7973157e-01 2.3529233e+00 2.0762128e+00 6.5730872e-01 1.0855139e+00 8.6495970e-01 1.1354718e+00 1.1447519e+00 1.5193232e+00 1.3182252e+00 7.7709094e-01 5.6345928e-01 5.7473797e-01 5.6886456e-01 5.5916613e-01 5.5474574e-01 4.9726625e-01 5.3935875e-01 4.4831703e-01 5.2970580e-01 4.1689746e-01 7.2393788e-01 4.3549595e-01 6.0550860e-01 5.7280591e-02 1.4198260e+00 1.7553114e+00 4.2806417e-02 5.0704992e-01 2.2084822e-01 5.5101667e-01 4.8707125e-01 9.1014098e-01 7.7471772e-01 3.1488273e-01 -5.6649091e-03 8.4459134e-02 4.1724742e-02 1.0309751e-01 5.7425468e-02 7.3783640e-02 7.7171132e-02 6.8667275e-02 9.6656746e-02 7.2933638e-02 3.1459576e-01 1.6256050e-01 2.6329451e-01 -1.6709745e-01 9.3916481e-01 1.7139471e+00 -2.1888010e-01 3.2620476e-01 -2.5145052e-02 4.0070582e-01 2.6234369e-01 7.9322592e-01 6.0542692e-01 2.5862238e-01 -2.0126769e-01 2.5157957e-02 -1.4502572e-01 6.0560021e-02 -1.3631115e-01 6.6658538e-02 -1.3906646e-01 9.2346431e-02 -8.4255950e-02 3.3832239e-01 -5.2912267e-02 2.4163133e-01 -3.7388080e-01 1.6634466e+00 8.4878703e-01 -1.9547057e-01 1.6114915e-01 3.6946408e-02 2.9997238e-01 3.8718215e-01 7.5654184e-01 5.1111509e-01 -1.9738960e-02 -1.2904317e-01 -8.8349943e-02 -6.8096858e-02 -4.1286000e-02 -5.0070532e-02 -4.3604077e-02 -4.8829487e-02 -3.1776400e-02 -3.8607988e-02 7.8605230e-02 1.6703099e-01 2.5613431e-02 -4.1174382e-02 -1.6515435e-02 1.8558512e+00 1.2549271e-01 -7.6264921e-02 -4.2767123e-02 5.3306545e-02 1.4324198e-01 3.8451803e-01 5.8326567e-01 2.4179498e-01 -2.5162461e-01 -2.2117541e-01 -2.5493394e-01 -1.5450193e-01 -2.1419741e-01 -1.4245300e-01 -2.2009303e-01 -1.1740215e-01 -2.1675274e-01 -8.9401327e-02 -2.1464329e-01 1.0334795e-01 -9.0637606e-02 5.0863823e-02 -4.1313898e-01 5.9514179e-01 1.4920135e+00 -3.7067521e-01 4.5313646e-02 -1.8958865e-01 1.3413620e-01 8.1226040e-02 5.1216716e-01 4.5303967e-01 8.2518655e-02 -3.4942648e-01 -1.7589947e-01 -2.9365583e-01 -1.2375042e-01 -2.6415819e-01 -1.1011342e-01 -2.5909230e-01 -9.0065114e-02 -2.4359964e-01 -4.4062413e-02 -2.1478204e-01 1.9633916e-01 -1.1893002e-01 1.4851369e-01 -4.4849644e-01 9.3379512e-01 1.3627178e+00 -3.3510154e-01 1.1338417e-01 -1.0564950e-01 1.9885728e-01 1.9854301e-01 5.9573731e-01 5.3914547e-01 6.2610185e-02 -2.3344377e-01 -1.5603745e-01 -1.6802134e-01 -1.2319381e-01 -1.2922818e-01 -1.2810679e-01 -1.0826085e-01 -1.3685922e-01 -6.6998464e-02 -1.2473518e-01 1.5016402e-01 -3.0767162e-02 1.1056890e-01 -3.6185416e-01 8.4558826e-01 1.5144299e+00 -3.6052598e-01 1.9909436e-01 -1.1764316e-01 3.1507476e-01 2.0078134e-01 7.4924286e-01 5.8435058e-01 2.5836490e-01 -1.7348261e-01 7.1737475e-02 -8.2401015e-02 1.5534242e-01 -2.4572819e-02 1.8894702e-01 2.7678805e-02 2.4135731e-01 6.7606862e-02 3.1809125e-01 1.3080280e-01 6.0039126e-01 1.9346772e-01 5.0844810e-01 -1.4021416e-01 1.7344895e+00 1.3097019e+00 4.1809976e-02 4.3186143e-01 2.8387472e-01 5.3344097e-01 5.8831926e-01 9.5340503e-01 8.2866129e-01 3.0632464e-01 1.3412219e-01 1.7620770e-01 1.9781960e-01 2.0617338e-01 2.2281491e-01 1.9595491e-01 2.2981566e-01 2.0216427e-01 2.4812851e-01 2.0452980e-01 2.6828352e-01 2.6354214e-01 5.1070819e-01 2.4206533e-01 3.4900892e-01 -1.6945273e-02 1.9505459e+00 7.9104489e-01 2.9137796e-02 3.1480482e-01 2.0598697e-01 4.1842677e-01 4.9221030e-01 8.3371994e-01 5.6635586e-01 8.2548537e-02 -5.3370429e-02 2.3093249e-03 -1.0679259e-02 1.6608109e-02 -1.5358644e-02 -6.6153981e-03 -1.8136375e-02 3.5835596e-03 -8.0105183e-03 5.8832488e-03 3.2336254e-03 8.8808489e-02 2.3181389e-01 5.6520017e-02 5.4106377e-02 -1.1773168e-01 1.8150700e+00 4.1892723e-01 -1.3304647e-01 8.9053844e-02 2.5724014e-02 2.3991533e-01 3.4362709e-01 6.8428678e-01 3.3934331e-01 -9.7661635e-02 -2.2299624e-01 -1.3436497e-01 -1.7103441e-01 -9.4939616e-02 -1.7037797e-01 -6.7240760e-02 -1.5566068e-01 -3.3156555e-02 -1.3373179e-01 1.8500595e-01 -1.7855141e-02 1.2760623e-01 -3.5016165e-01 7.4079897e-01 1.5282393e+00 -3.5757306e-01 1.2908085e-01 -1.6673805e-01 2.0819175e-01 1.0980650e-01 5.9146453e-01 4.6060830e-01 9.1415840e-02 -3.7219119e-01 -1.6282672e-01 -3.1834998e-01 -1.1449005e-01 -2.9219224e-01 -9.4429262e-02 -2.8828899e-01 -5.1919453e-02 -2.5974884e-01 2.0621500e-01 -1.5378294e-01 1.3241611e-01 -5.1570641e-01 1.0453218e+00 1.2349860e+00 -3.8846692e-01 3.4931426e-02 -1.5626100e-01 1.0868076e-01 1.2886822e-01 5.0236661e-01 4.0429910e-01 -1.2246507e-01 -3.6459875e-01 -3.2497794e-01 -2.9203432e-01 -2.7736603e-01 -2.5036226e-01 -2.7607871e-01 -2.1525088e-01 -2.6572653e-01 -1.7045972e-01 -2.2034792e-01 9.2092088e-02 -1.8833032e-01 3.4238969e-03 -5.2634324e-01 1.3491052e+00 7.9227744e-01 -4.4476314e-01 1.8648389e-02 -1.9967805e-01 1.1393401e-01 1.1559940e-01 5.2916343e-01 2.8792961e-01 -1.6528333e-01 -3.5991708e-01 -2.7618600e-01 -2.9139156e-01 -2.3874562e-01 -2.7273591e-01 -2.4023251e-01 -2.3033690e-01 -2.4980606e-01 -1.8330807e-01 -2.0514507e-01 6.0687577e-02 -1.5935515e-01 9.7772253e-03 -4.8617280e-01 1.1117851e+00 1.0694162e+00 -4.7800489e-01 9.1703599e-02 -2.3409066e-01 1.7574694e-01 6.9352716e-02 5.7999584e-01 3.2083898e-01 -3.2717522e-02 -3.7399784e-01 -1.6954796e-01 -3.1688081e-01 -1.3839640e-01 -2.8221850e-01 -1.4193250e-01 -2.6535581e-01 -1.2237460e-01 -2.5108160e-01 -1.1280308e-01 -1.6488595e-01 9.2765445e-02 -1.6579660e-01 -9.1277556e-02 -2.5446097e-01 1.7413872e+00 3.4320151e-02 -1.6115275e-01 -1.6287391e-01 -1.0614200e-02 8.4346889e-03 3.0928406e-01 4.4627013e-01 2.2904544e-01 -3.5563256e-01 -2.6983599e-01 -3.7014339e-01 -2.2122535e-01 -3.5242169e-01 -2.0737243e-01 -3.5028024e-01 -1.9279528e-01 -3.3317847e-01 -1.5654171e-01 -2.8444211e-01 5.5852553e-02 -2.6518003e-01 -4.2348848e-02 -4.9164569e-01 1.5997403e+00 3.2743739e-01 -3.2448983e-01 -1.2427347e-01 -1.2626360e-01 1.3702026e-02 1.8875419e-01 4.5328153e-01 2.4639007e-01 -3.4515446e-01 -3.3858814e-01 -3.8516959e-01 -2.6516521e-01 -3.5400214e-01 -2.2518529e-01 -3.6021561e-01 -1.8893561e-01 -3.6114208e-01 -2.4266754e-02 -2.2888538e-01 -2.9193846e-02 -5.3919605e-01 5.3406174e-01 1.4199350e+00 -4.6219138e-01 -6.6966903e-02 -2.5717662e-01 4.9129440e-02 6.0563889e-02 4.5614687e-01 4.6927871e-01 -1.2322335e-02 -3.4157858e-01 -2.5371349e-01 -2.5424657e-01 -1.8083891e-01 -1.9331595e-01 -1.4794380e-01 -1.5534749e-01 -1.1495269e-01 -1.1238344e-01 -1.5034304e-02 1.1314076e-01 -1.5432232e-02 -4.3829030e-02 -7.7826115e-02 1.8481371e+00 2.1656398e-01 -8.4556730e-02 2.5713842e-02 8.2496881e-02 2.1302211e-01 4.2113364e-01 6.6741953e-01 3.2238653e-01 -1.7653103e-01 -1.7249859e-01 -1.9592024e-01 -1.1316485e-01 -1.7552781e-01 -1.1450283e-01 -1.9185020e-01 -1.1115956e-01 -2.1158714e-01 -8.6843073e-02 -2.2462254e-01 9.9973322e-02 -1.5157933e-01 3.1831376e-02 -5.1282863e-01 8.9073375e-01 1.1697076e+00 -5.1668227e-01 -1.3438760e-02 -3.1486725e-01 4.1462037e-02 -4.7937060e-02 4.3265665e-01 2.6096825e-01 -1.2074710e-01 -4.9072546e-01 -3.0803783e-01 -4.3925661e-01 -2.6646075e-01 -4.0198517e-01 -2.5381893e-01 -4.0112871e-01 -2.2031281e-01 -3.7245342e-01 -1.6613782e-01 -3.5966426e-01 2.5214354e-02 -2.7837137e-01 -2.8183660e-02 -6.3633410e-01 8.6950120e-01 1.0598947e+00 -5.7150640e-01 -9.9405468e-02 -3.6312468e-01 -4.8958960e-02 -8.6081495e-02 3.2826487e-01 2.1340458e-01 -2.4923873e-01 -5.6706620e-01 -4.4627020e-01 -5.0805082e-01 -4.1131557e-01 -4.6769328e-01 -3.9479946e-01 -4.4188491e-01 -3.8849845e-01 -4.1461540e-01 -3.0204381e-01 -1.9708751e-01 -2.9559026e-01 -3.2817864e-01 -4.2013338e-01 1.4505879e+00 2.7010537e-02 -4.6028837e-01 -2.2144493e-01 -2.9624222e-01 -4.6487936e-02 5.3527510e-02 4.2956544e-01 3.1425328e-03 -4.0434870e-01 -5.3354608e-01 -4.1538476e-01 -4.5901545e-01 -3.6845478e-01 -4.4502072e-01 -3.5060689e-01 -4.2569348e-01 -3.0924804e-01 -4.0173421e-01 -1.8512151e-01 -1.9900097e-01 -2.0180792e-01 -4.0156375e-01 -1.2403839e-01 1.5567999e+00 -1.9055335e-01 -3.0296801e-01 -2.4900863e-01 -1.8969303e-01 -5.4027648e-02 1.5324543e-01 4.0906217e-01 -3.3417395e-02 -4.3082399e-01 -4.7615909e-01 -4.1393027e-01 -4.1066509e-01 -3.1389718e-01 -3.4740319e-01 -3.6951889e-01 -3.4579456e-01 -3.3933777e-01 -3.1634918e-01 -3.0515293e-01 -1.7276820e-01 -1.1648608e-01 -1.7978944e-01 -2.9464054e-01 -8.2766683e-02 1.6762682e+00 -2.0176009e-01 -1.6122627e-01 -2.4137070e-01 -4.5444411e-02 -4.4674634e-02 2.9872776e-01 3.9990345e-01 1.3896261e-01 -4.2370355e-01 -3.1489365e-01 -4.1649298e-01 -2.4028489e-01 -3.8542874e-01 -2.1612984e-01 -3.6778486e-01 -1.8643947e-01 -3.5281224e-01 -1.3924313e-01 -3.1138471e-01 9.5455248e-02 -2.6679670e-01 4.3801853e-02 -5.8611671e-01 1.1683945e+00 8.7955846e-01 -4.3523107e-01 -3.5181168e-02 -1.9701720e-01 4.2428412e-02 9.5150599e-02 4.6624356e-01 3.5555461e-01 -1.8499211e-01 -3.6504675e-01 -3.4829953e-01 -2.9537851e-01 -3.0774553e-01 -2.6183858e-01 -3.0610008e-01 -2.2161305e-01 -3.0184155e-01 -1.7420602e-01 -2.7856054e-01 4.7113815e-02 -2.2286066e-01 1.9091449e-02 -5.4606867e-01 1.0846312e+00 1.0829247e+00 -4.8728435e-01 3.1429927e-02 -2.4210043e-01 1.1227728e-01 6.1432853e-02 5.1810613e-01 3.3991344e-01 -1.1109458e-01 -4.1706861e-01 -2.8024048e-01 -3.5404925e-01 -2.4216718e-01 -3.0789712e-01 -2.1426776e-01 -2.6253124e-01 -1.7270145e-01 -1.2228848e-01 3.1390246e-02 -1.3321181e-01 -1.4922930e-01 -1.6966121e-01 1.7582033e+00 -2.1495088e-02 -1.8299925e-01 -1.5806317e-01 -2.5986956e-02 6.2350589e-02 3.4170406e-01 5.3000399e-01 1.9205919e-01 -3.3699762e-01 -2.7796275e-01 -3.2768346e-01 -1.9317250e-01 -2.7630451e-01 -1.4932371e-01 -2.5731818e-01 -1.0810557e-01 -2.2463658e-01 1.1138341e-01 -1.6654633e-01 6.7168959e-02 -5.0560374e-01 1.0312110e+00 1.1495527e+00 -4.9227142e-01 2.4869139e-02 -2.5579394e-01 1.0066122e-01 -2.1423941e-02 4.3934723e-01 1.9657194e-01 -2.2398510e-01 -5.7246640e-01 -4.3624394e-01 -5.7641327e-01 -4.3278611e-01 -5.9796517e-01 -4.5186626e-01 -5.8544425e-01 -4.3688191e-01 -5.5907579e-01 -3.0058182e-01 -3.5367219e-01 -3.0019578e-01 -5.3353897e-01 -2.3983880e-01 1.3856264e+00 -2.4845182e-01 -4.2258888e-01 -2.9322093e-01 -2.8631670e-01 -8.1466569e-02 6.5665698e-02 3.8577946e-01 -8.2586862e-02 -4.0187044e-01 -5.1577087e-01 -4.0630552e-01 -4.8431496e-01 -3.8106571e-01 -4.9472857e-01 -3.8044813e-01 -5.1874377e-01 -3.8042980e-01 -4.8120732e-01 -1.5651269e-01 -4.8645100e-01 -2.7090794e-01 -7.3251452e-01 1.3477617e+00 1.7556543e-01 -5.5138975e-01 -3.0870657e-01 -3.3663724e-01 -1.5426234e-01 1.5397700e-02 2.8777821e-01 1.0289895e-01 -4.6069023e-01 -4.5273354e-01 -4.9123834e-01 -3.5652240e-01 -4.4257715e-01 -3.0765877e-01 -4.3210642e-01 -2.5663298e-01 -4.2496799e-01 -3.9652415e-02 -3.0443802e-01 -5.8902890e-02 -6.0562469e-01 5.5268294e-01 1.3009380e+00 -5.1739222e-01 -2.1191932e-01 -3.5564803e-01 7.1050900e-02 5.7395728e-03 4.0262623e-01 3.9129759e-01 -1.1918902e-01 -3.9324413e-01 -3.6500468e-01 -2.9987248e-01 -3.1113639e-01 -2.4389595e-01 -3.0167679e-01 -2.0782500e-01 -2.9004040e-01 6.9487321e-02 -2.5335675e-01 -1.0427570e-03 -5.9286623e-01 1.2023891e+00 9.2023675e-01 -4.7982487e-01 1.4905380e-02 -2.1743912e-01 1.1661651e-01 1.2443681e-01 5.4792087e-01 3.1932945e-01 -1.7926128e-01 -3.4625124e-01 -2.9996806e-01 -2.6809967e-01 -2.6621916e-01 -2.3308210e-01 -2.6780414e-01 -2.0310281e-01 -2.3840520e-01 8.3706853e-02 -1.9265391e-01 -3.0554352e-02 -5.7860915e-01 9.8639685e-01 1.0953550e+00 -5.1623787e-01 2.1304601e-02 -2.6022932e-01 1.1913621e-01 5.8609910e-02 5.2722058e-01 3.1588425e-01 -1.0907907e-01 -3.6531349e-01 -2.4777795e-01 -2.8163154e-01 -1.9585369e-01 -2.3242836e-01 -1.8337286e-01 -1.8937358e-01 -1.8588525e-01 -1.4742746e-01 -1.7064700e-01 8.4464028e-02 -9.5133209e-02 1.1802456e-02 -4.4584515e-01 8.2856097e-01 1.2858970e+00 -4.9179444e-01 6.4099875e-02 -2.4603736e-01 2.7239959e-01 2.4479569e-01 8.6233976e-01 7.1800247e-01 4.4334349e-01 6.0877405e-02 2.2925391e-01 -2.0493902e-02 1.1445423e-01 -1.3301002e-01 3.7852278e-02 -1.9852703e-01 1.3812252e-02 -1.4505796e-01 2.5780696e-01 -1.1963188e-01 1.6338730e-01 -4.2068150e-01 1.4620264e+00 8.5793448e-01 -2.7750633e-01 1.3096821e-01 -4.2183164e-02 2.4670536e-01 2.7963234e-01 7.0773647e-01 4.1989951e-01 1.2139151e-02 -1.7428876e-01 -6.5957983e-03 -6.3672656e-02 5.7444665e-02 -4.1844602e-02 1.2205683e-01 -4.9096622e-03 3.7093407e-01 1.1856274e-01 2.5214040e-01 -2.6245341e-01 8.1592014e-01 1.7307923e+00 -2.0196715e-01 2.4070547e-01 -3.9996311e-02 2.4501349e-01 1.5317901e-01 5.4936141e-01 4.2690441e-01 -6.4232265e-02 -4.1808439e-01 -3.3805141e-01 -3.9236860e-01 -3.0667152e-01 -3.6020379e-01 -3.1320946e-01 -3.4189155e-01 -3.0378426e-01 -3.2601513e-01 -2.0829883e-01 -5.5889241e-02 -2.4616447e-01 -2.1711323e-01 -4.5602567e-01 1.4780276e+00 2.9308074e-01 -4.5911579e-01 -1.1176085e-01 -2.1464494e-01 1.2501929e-01 3.0768030e-01 7.8995607e-01 4.9507051e-01 1.5382239e-01 6.8578360e-02 1.9833974e-01 2.0087059e-01 2.8792222e-01 2.5482043e-01 3.2142988e-01 2.8568008e-01 3.4327134e-01 3.1102907e-01 3.3748793e-01 3.3560238e-01 3.4899316e-01 3.7341710e-01 3.2835672e-01 5.2351378e-01 4.1211593e-01 4.2693973e-01 5.8481601e-02 8.0625618e-01 1.9448785e+00 -2.9363550e-02 3.6889686e-01 8.6850287e-02 4.0325612e-01 2.7525445e-01 7.1155812e-01 6.5266698e-01 4.0062895e-01 -1.4601761e-01 3.0109734e-02 -1.2050379e-01 6.4938876e-02 -1.1558741e-01 4.9632509e-02 -1.2424998e-01 4.0806362e-02 -1.2355256e-01 5.5075712e-02 -1.1831051e-01 7.0861360e-02 -5.0446694e-02 2.9534733e-01 -7.4150863e-02 1.4491803e-01 -3.0177322e-01 1.7654870e+00 4.6166583e-01 -1.4596338e-01 2.8710278e-02 4.9301702e-02 1.7818693e-01 3.5906375e-01 6.1785523e-01 4.3933231e-01 -1.6270810e-01 -1.9557221e-01 -2.4777321e-01 -1.1836134e-01 -2.1125003e-01 -9.8250211e-02 -2.0311383e-01 -4.3202455e-02 -1.5743309e-01 2.5188194e-02 -1.2634193e-01 2.7946059e-01 -4.3856562e-02 2.1286287e-01 -3.9873915e-01 1.1394405e+00 1.3071558e+00 -3.2165410e-01 1.5547489e-01 -1.0050678e-01 2.3605680e-01 2.0425448e-01 6.2699306e-01 4.9939275e-01 2.9886958e-02 -2.9940211e-01 -1.7506730e-01 -2.3549993e-01 -9.7440075e-02 -1.8975393e-01 -8.2958287e-02 -1.4800085e-01 -3.8010357e-02 -1.2441908e-01 1.3692602e-02 -1.0999383e-01 2.4695982e-01 -3.1393854e-02 1.5905341e-01 -3.9633238e-01 1.0504335e+00 1.2908572e+00 -3.9213504e-01 1.3792004e-01 -1.7375472e-01 2.0852756e-01 1.1016332e-01 6.1637941e-01 4.3344669e-01 7.7036625e-02 -3.3571711e-01 -1.3477393e-01 -2.6562108e-01 -7.1893836e-02 -2.4098435e-01 -5.7233276e-02 -2.1821179e-01 -3.2438359e-02 -2.0049305e-01 9.2699207e-03 -1.7352420e-01 2.5028303e-01 -1.1372685e-01 1.6540246e-01 -4.7289489e-01 1.1411805e+00 1.1124777e+00 -3.4322997e-01 6.2232792e-02 -1.2385084e-01 1.3696055e-01 1.5815083e-01 5.3252464e-01 4.4815563e-01 -3.0275104e-02 -3.1035853e-01 -2.4041953e-01 -2.2571391e-01 -2.0344693e-01 -1.9783774e-01 -1.8035425e-01 -1.7136013e-01 -1.5678219e-01 -1.3169691e-01 -1.4772324e-01 2.8548812e-02 3.0041178e-02 6.5979624e-03 -2.2988579e-01 2.0951717e-01 1.7738980e+00 -1.5467047e-01 -1.0783375e-02 -1.3328822e-01 1.0689188e-01 1.0026611e-01 4.5300200e-01 5.4940991e-01 2.0149337e-01 -3.0606696e-01 -1.9823625e-01 -2.9432528e-01 -1.3522140e-01 -2.6979412e-01 -1.1773111e-01 -2.6440266e-01 -9.2423855e-02 -2.5647900e-01 1.1305740e-01 -1.5775048e-01 5.4513400e-02 -5.0703823e-01 8.2267418e-01 1.2928502e+00 -4.7032003e-01 3.3096379e-02 -2.3207005e-01 1.1581344e-01 6.8030028e-02 5.3027327e-01 3.8897941e-01 -1.6305725e-02 -4.0418710e-01 -2.3283221e-01 -3.3521003e-01 -1.8400211e-01 -3.1316112e-01 -1.5111954e-01 -3.0557379e-01 2.8454435e-02 -1.0192778e-01 -3.4363288e-02 -3.9753075e-01 2.4393628e-01 1.6311606e+00 -2.8103715e-01 -7.7920148e-02 -1.7469237e-01 4.4820008e-02 8.8061164e-02 4.3063136e-01 5.0696685e-01 5.7886761e-02 -3.5565669e-01 -2.6435210e-01 -3.0953823e-01 -2.0347988e-01 -2.9163557e-01 -1.8070293e-01 -2.7467068e-01 7.2305173e-02 -1.5556101e-01 -4.3398269e-02 -5.3532497e-01 6.1814672e-01 1.3865081e+00 -5.0927401e-01 -2.3567163e-03 -2.8920780e-01 9.4438922e-02 5.1175874e-03 5.1158172e-01 3.4163730e-01 -2.7887254e-02 -4.1753926e-01 -2.1344665e-01 -3.4971885e-01 -1.4319675e-01 -3.0489896e-01 -1.0974247e-01 -2.7986680e-01 -7.4237926e-02 -1.9213739e-01 1.9888403e-01 -1.8302778e-01 6.0721088e-02 -4.9059700e-01 1.4964885e+00 6.3838059e-01 -2.8925669e-01 3.0430000e-02 -5.9651284e-02 1.5167014e-01 2.6691833e-01 5.7174030e-01 3.7649599e-01 -1.3855268e-01 -1.9074006e-01 -1.9328971e-01 -1.2570679e-01 -1.4462945e-01 -1.0318071e-01 -1.4175122e-01 -8.6417550e-02 -1.3380150e-01 -4.8030246e-02 -1.1801054e-01 1.2665147e-01 7.3188102e-02 7.8860262e-02 -2.2073826e-01 2.5560252e-01 1.7424197e+00 -9.8175353e-02 -2.7782248e-02 -5.4572212e-02 6.7960981e-02 1.6712225e-01 4.0007220e-01 5.7496259e-01 1.4019065e-01 -2.3315713e-01 -2.5395559e-01 -2.0382031e-01 -2.2523426e-01 -1.7475084e-01 -2.3817932e-01 -1.7341246e-01 -2.4310222e-01 -1.3371569e-01 -1.9204957e-01 1.3374394e-01 -1.7366644e-01 5.4118689e-03 -5.3457470e-01 1.3161764e+00 8.0324885e-01 -4.4032331e-01 3.0849620e-02 -1.9124577e-01 1.3738609e-01 1.2374217e-01 5.5216760e-01 2.8779005e-01 -1.6903807e-01 -3.7909139e-01 -2.8119143e-01 -3.1969152e-01 -2.5796136e-01 -3.1582054e-01 -2.6491365e-01 -3.0658891e-01 -2.6201763e-01 -2.8990133e-01 -2.5167857e-01 -2.6970571e-01 -2.3228417e-01 -1.2834860e-01 -1.8751666e-02 -1.6948041e-01 -2.2946350e-01 -2.1386146e-01 1.6112594e+00 -4.4386276e-02 -2.5824684e-01 -1.8532873e-01 -1.3154485e-01 -2.5010922e-02 1.8719955e-01 4.1094950e-01 1.0894655e-01 -3.5924614e-01 -3.9301765e-01 -3.6542323e-01 -3.3234422e-01 -3.0337434e-01 -3.2084318e-01 -2.9501975e-01 -3.0752162e-01 -2.6523584e-01 -2.9664803e-01 -2.2530167e-01 -2.7830993e-01 -1.8779405e-01 -2.5510482e-01 5.5758763e-02 -2.2708143e-01 -3.7117961e-02 -5.7145897e-01 9.9277988e-01 9.5490434e-01 -5.3116257e-01 -1.7290643e-02 -3.0508278e-01 7.3580464e-02 -1.1657046e-02 4.6332010e-01 2.9579545e-01 -8.7963957e-02 -4.5039112e-01 -2.8250601e-01 -3.7416174e-01 -2.3511050e-01 -3.4872470e-01 -2.3150593e-01 -3.4073109e-01 -2.1830787e-01 -3.0764879e-01 -1.8463344e-01 -2.9258377e-01 -1.6550053e-01 -2.6558884e-01 -4.9852261e-02 -5.9853467e-02 -9.2529621e-02 -2.6304623e-01 -1.5391808e-01 1.5892343e+00 3.4735305e-02 -3.0780514e-01 -1.1965168e-01 -1.5583793e-01 6.6744475e-02 1.7756788e-01 5.5594023e-01 1.2208892e-01 -2.7172254e-01 -4.2321926e-01 -2.8621653e-01 -3.4949335e-01 -2.3148440e-01 -3.3400857e-01 -2.0900724e-01 -3.4265199e-01 -1.6326305e-01 -3.1852868e-01 -1.2007205e-01 -2.8035454e-01 1.3191572e-01 -2.2220764e-01 7.1009823e-02 -5.6048342e-01 1.0965877e+00 1.0417780e+00 -4.2507096e-01 2.6902160e-02 -1.6937903e-01 1.1179230e-01 1.4508784e-01 5.4007074e-01 4.5404262e-01 -6.1204455e-02 -3.4841010e-01 -2.7866630e-01 -2.7243554e-01 -2.4609609e-01 -2.2824087e-01 -2.3449245e-01 -2.0778906e-01 -2.2498116e-01 -1.8041707e-01 -2.1424075e-01 -1.3543295e-01 -2.1857803e-01 6.8692991e-02 -7.0242906e-02 1.6349980e-03 -3.6886496e-01 3.9421432e-01 1.5851582e+00 -3.3359983e-01 -1.6300734e-02 -2.1283769e-01 6.4978039e-02 3.5182155e-02 4.1578077e-01 4.7550972e-01 1.0478928e-01 -3.8318475e-01 -2.8167628e-01 -3.4318953e-01 -2.2560923e-01 -2.9765652e-01 -2.2434196e-01 -2.7690923e-01 -2.1469678e-01 -2.5747241e-01 -1.8180628e-01 -2.3887493e-01 -1.6504961e-01 -2.0421674e-01 -5.6101170e-02 2.8771026e-02 -9.5571510e-02 -1.5498388e-01 -2.2461720e-01 1.6099128e+00 1.8412600e-01 -2.6225329e-01 -5.6827041e-02 -1.1274944e-01 1.1061969e-01 2.0872383e-01 5.6574127e-01 2.4847658e-01 -2.1514351e-01 -3.4468547e-01 -2.4896589e-01 -2.6986374e-01 -2.0099750e-01 -2.3794372e-01 -1.8270599e-01 -2.2282188e-01 -1.5862811e-01 -1.8225162e-01 -1.3001546e-01 -1.5507254e-01 -1.0152705e-01 -4.3280950e-02 1.2552700e-01 -8.0004203e-02 -8.2930531e-02 -1.3528759e-01 1.7881016e+00 6.5819582e-02 -1.2165697e-01 -1.0707527e-01 2.8208138e-02 7.1072396e-02 3.3159394e-01 5.3356518e-01 2.9465867e-01 -3.0494268e-01 -2.6513204e-01 -3.3441670e-01 -1.9970609e-01 -3.1230855e-01 -1.8129240e-01 -2.9613716e-01 -1.4606058e-01 -2.7292225e-01 -8.5963588e-02 -2.5990642e-01 1.4583553e-01 -1.6638148e-01 8.7729927e-02 -5.1385146e-01 1.0417627e+00 1.1378640e+00 -4.2293914e-01 5.0554115e-02 -1.7556587e-01 1.6414114e-01 1.4026936e-01 5.9106438e-01 4.9188334e-01 2.0455747e-03 -3.2614103e-01 -2.0092901e-01 -2.5085848e-01 -1.6244456e-01 -2.1206648e-01 -1.4938486e-01 -1.9313415e-01 -1.1644694e-01 -1.5710764e-01 -6.5362573e-03 6.0031537e-02 -3.0128114e-02 -1.4452350e-01 -6.0266326e-02 1.7842919e+00 8.0774145e-02 -1.4641808e-01 -6.6413749e-02 -2.5030920e-03 1.3267996e-01 3.5163969e-01 6.0538519e-01 2.4574499e-01 -2.6865095e-01 -2.7411708e-01 -2.7991387e-01 -2.2012999e-01 -2.4362698e-01 -1.9155930e-01 -2.2976014e-01 -1.7499917e-01 -1.8589549e-01 -1.2175470e-01 -1.2129051e-01 1.3039037e-01 -1.4150726e-01 1.6452885e-02 -3.7648878e-01 1.6323885e+00 4.6643280e-01 -3.0041939e-01 -7.7079612e-03 -1.0052791e-01 1.1293611e-01 2.1983148e-01 5.9542929e-01 3.1257601e-01 -1.8328786e-01 -2.6492738e-01 -2.0423680e-01 -1.2977161e-01 -1.5812623e-01 -1.5395855e-01 -1.2147904e-01 -7.3084713e-02 -7.0248963e-02 -1.5176117e-02 9.3276164e-03 2.6147160e-01 4.3348205e-02 1.7985153e-01 -2.5155397e-01 1.5931541e+00 8.9130023e-01 -2.2586432e-01 2.3887575e-01 -1.5709599e-02 3.4451804e-01 2.9114052e-01 7.5614954e-01 4.6128606e-01 4.3079146e-02 -2.0938266e-01 -6.1429634e-02 -1.6333894e-01 -1.6817834e-02 -1.5331999e-01 -1.4771883e-02 -1.5378333e-01 8.9314915e-03 -1.4893740e-01 1.4279493e-01 3.9667054e-02 9.5185924e-02 -2.1221416e-01 2.3038973e-01 1.7961263e+00 -1.8836887e-02 -2.8011298e-02 -1.0365259e-02 9.2829346e-02 2.1910723e-01 4.4100104e-01 6.6923641e-01 2.1081471e-01 -1.9571630e-01 -2.2435773e-01 -1.8349107e-01 -1.8098181e-01 -1.4863879e-01 -1.9199715e-01 -1.2914318e-01 -1.5500231e-01 -1.2431358e-02 8.0720575e-02 3.1544543e-02 -1.3448066e-01 -3.6610291e-02 1.8289515e+00 1.6243514e-01 -1.1358916e-01 2.5468687e-02 4.6796973e-02 2.2313295e-01 3.6511851e-01 7.0477198e-01 2.2160300e-01 -1.6296348e-01 -2.7241684e-01 -1.5599381e-01 -2.0218606e-01 -1.0869218e-01 -2.0366227e-01 -7.9644697e-02 -1.8852487e-01 -4.1118147e-02 -1.5881642e-01 2.0107501e-01 -1.0834780e-01 1.1776129e-01 -4.5599100e-01 1.2942024e+00 1.0345576e+00 -4.0506156e-01 1.0611060e-01 -1.5315230e-01 1.8028838e-01 1.5612085e-01 5.8933779e-01 3.8721145e-01 -6.3592157e-02 -3.2560759e-01 -2.0304046e-01 -2.7048277e-01 -1.5831300e-01 -2.5393163e-01 -1.5665475e-01 -2.4285219e-01 -1.4729053e-01 -2.3540691e-01 -1.2435081e-01 -1.8192386e-01 1.2946595e-01 -1.8791584e-01 -1.2979326e-02 -4.4744342e-01 1.4824439e+00 5.3609493e-01 -3.8240919e-01 -2.3252012e-02 -1.7797289e-01 8.7218454e-02 1.2040871e-01 5.1167000e-01 2.5739703e-01 -1.9120621e-01 -3.6519994e-01 -2.6168156e-01 -3.1028853e-01 -2.1498273e-01 -2.8875633e-01 -1.9948648e-01 -2.8896256e-01 -1.7582423e-01 -2.6391575e-01 -1.4785315e-01 -2.4743240e-01 -1.0418032e-01 -2.2631674e-01 1.2643048e-01 -1.6129358e-01 4.8202229e-02 -5.1500871e-01 9.9028055e-01 1.1699900e+00 -4.8191119e-01 3.5626529e-02 -2.6382216e-01 1.0476288e-01 1.0517036e-02 4.8385165e-01 3.4503328e-01 -2.4185948e-02 -4.2215636e-01 -2.4582305e-01 -3.6012442e-01 -1.9277440e-01 -3.4871833e-01 -1.6598111e-01 -3.4182618e-01 -1.3601744e-01 -3.1584064e-01 9.1038680e-02 -2.3705389e-01 3.0685523e-02 -5.7408478e-01 8.8965659e-01 1.1709731e+00 -4.7462499e-01 -1.2778645e-02 -2.5437947e-01 7.1703463e-02 3.5025602e-02 4.8744588e-01 3.6968537e-01 -1.1085264e-01 -4.3299151e-01 -3.1850693e-01 -3.5522417e-01 -2.5398083e-01 -2.7560215e-01 -2.3596438e-01 -2.1818195e-01 -1.8305618e-01 -8.1774322e-02 5.1792457e-02 -9.9489756e-02 -1.5244905e-01 -8.3785234e-02 1.8321657e+00 -3.2472852e-03 -8.2897633e-02 -8.4842232e-02 6.5853543e-02 1.4073208e-01 4.1436610e-01 5.9949477e-01 2.4382162e-01 -2.7516611e-01 -2.3578473e-01 -2.9384261e-01 -1.7580493e-01 -2.4785506e-01 -1.6353832e-01 -2.3364174e-01 -1.4215290e-01 -2.3320676e-01 1.4853973e-02 -4.4634221e-02 -3.5025603e-02 -3.2129507e-01 1.2644078e-01 1.6695960e+00 -1.7843199e-01 -9.7028547e-02 -1.3915203e-01 3.3731900e-02 1.1242255e-01 4.1682112e-01 6.2095424e-01 2.2493356e-01 -1.7626955e-01 -8.8154907e-02 -7.7376618e-02 1.0852977e-02 1.2676071e-02 5.5060742e-02 6.4943760e-02 1.2325710e-01 1.3589808e-01 3.3637186e-01 4.2813115e-01 3.0077232e-01 1.9865006e-01 2.5517057e-01 2.0532117e+00 3.5707323e-01 1.4448930e-01 2.1370976e-01 2.5163401e-01 3.6738385e-01 5.6113083e-01 7.5627129e-01 3.9845026e-01 -5.0869270e-02 -8.9264277e-02 -1.0637146e-01 -4.8675366e-02 -1.0086271e-01 -7.8356498e-02 -2.3208684e-02 1.6075022e-01 -7.5948942e-02 -2.8460166e-02 -2.2751030e-01 1.6772542e+00 3.5112857e-01 -1.3637378e-01 8.4713669e-02 3.8984328e-02 3.1478063e-01 4.0874923e-01 7.4605700e-01 3.0843985e-01 -1.0161839e-01 -1.9200234e-01 -3.6667505e-02 -1.2224582e-01 8.9811522e-03 -3.4491628e-02 3.3096788e-01 2.9293837e-02 1.7887511e-01 -2.7068853e-01 1.6704367e+00 8.5801269e-01 -1.0821584e-01 2.8229852e-01 1.1417685e-01 3.9156523e-01 4.5547342e-01 7.6544137e-01 3.9789611e-01 -6.6495584e-02 -1.7487760e-01 -1.2414705e-01 -9.5521945e-02 -1.5409377e-01 3.5221406e-02 9.8893242e-02 -8.5786933e-02 -3.0366077e-01 -2.5076208e-02 1.6277492e+00 -2.7608119e-01 -1.5534113e-01 -2.8110653e-01 -1.7126313e-02 -5.2333312e-02 3.0408963e-01 2.9193837e-01 -7.8780051e-02 -5.0007960e-01 -3.5562612e-01 -4.5985848e-01 -3.2403343e-01 -4.8765836e-01 -1.6671586e-01 -2.5444479e-01 -2.6423819e-01 -6.5969080e-01 -7.7944340e-02 1.3845529e+00 -5.4641068e-01 -3.7510513e-01 -4.3160463e-01 -2.4070549e-01 -1.5919074e-01 1.1856513e-01 2.1007310e-01 -2.4858220e-01 -5.2547919e-01 -4.7369481e-01 -4.3504000e-01 -4.1689881e-01 -2.6760119e-01 -1.1688859e-01 -2.9503442e-01 -4.8836751e-01 -2.2871518e-01 1.5580277e+00 -3.9535469e-01 -3.2028454e-01 -3.9255276e-01 -1.7587241e-01 -1.7908934e-01 1.5058432e-01 1.9272667e-01 -2.1095433e-01 -5.5417649e-01 -4.3187605e-01 -4.7981418e-01 -3.6355951e-01 -3.5038716e-01 -2.9440217e-02 -3.3815808e-01 -2.8734946e-01 -5.4301037e-01 1.5969319e+00 9.0274312e-02 -3.3253078e-01 -1.4428402e-01 -7.5872252e-02 5.1963168e-02 2.0989366e-01 4.2734157e-01 8.0515596e-02 -3.5905565e-01 -2.9262779e-01 -2.7897582e-01 -1.1600340e-01 -1.3459567e-01 2.6705515e-01 -1.7507489e-03 1.0624137e-01 -4.2478178e-01 1.6200408e+00 1.0213835e+00 -3.2663318e-01 1.8304614e-01 -1.5934355e-01 3.1169436e-01 1.4695124e-01 5.8082730e-01 2.2039363e-01 -1.3263358e-01 -1.3904488e-01 -1.2945403e-01 -1.6825705e-01 9.3968890e-02 2.9462733e-01 6.3731500e-02 7.4959855e-04 -1.8611587e-01 2.0947228e+00 7.1761663e-01 -1.6893150e-01 2.4490005e-01 4.7279075e-02 4.0106676e-01 3.1653074e-01 6.8043048e-01 1.2015102e-02 -6.1650423e-02 -3.2511957e-01 -4.5422629e-02 -2.5135991e-01 2.8943853e-01 1.4370497e-01 2.0141042e-01 -3.5256477e-01 4.9545449e-01 1.7068286e+00 -2.1328732e-01 -9.6885536e-02 -1.3212671e-01 -3.3504815e-02 1.0055431e-01 2.4504698e-01 3.4295106e-01 -2.3738859e-01 -2.4975302e-01 -3.2300780e-01 -1.3568528e-01 -3.0911713e-01 2.1103764e-01 -1.1123778e-01 1.3001070e-01 -3.8725725e-01 1.3555470e+00 1.3525023e+00 -6.5028685e-02 5.5157637e-01 3.5944630e-01 8.4386388e-01 8.7393428e-01 1.2574552e+00 1.1290732e+00 9.1595978e-01 7.9379342e-01 1.0273543e+00 9.3110212e-01 1.2009207e+00 1.2421673e+00 1.2992196e+00 1.0377859e+00 1.6056950e+00 3.4517983e+00 1.3344125e+00 1.3142746e+00 1.1305608e+00 1.1717468e+00 1.0565073e+00 1.2557072e+00 1.1608028e+00 7.3568746e-01 4.0969863e-01 4.8713080e-01 3.4464960e-01 5.2523344e-01 5.5950045e-01 4.7886584e-01 1.6108801e-01 5.3575880e-01 2.4334313e+00 2.2527729e-01 2.7969591e-01 1.9241413e-01 3.8421971e-01 4.3496789e-01 5.8239899e-01 6.8388932e-01 2.5207477e-01 4.1173241e-02 1.6648765e-01 1.2310259e-01 2.8293792e-01 4.2325735e-01 2.6053226e-01 4.4296855e-02 2.1866535e-01 2.2543712e+00 2.1274202e-01 6.9334472e-02 1.1088773e-01 1.9160497e-01 2.7679303e-01 4.2453349e-01 5.6760580e-01 1.5653902e-01 -6.3780701e-02 -1.1058945e-01 -2.1506530e-02 -4.2022596e-02 2.9804413e-01 6.3512540e-02 -1.2704627e-02 -2.8070694e-01 1.4634660e+00 7.0022728e-01 -3.6212087e-01 2.5374360e-01 4.9839217e-02 4.2819895e-01 4.1118661e-01 9.8131464e-01 4.3053749e-01 4.3454396e-01 2.6353019e-01 5.8619692e-01 2.5201839e-01 7.4136986e-01 3.6220599e-01 5.3601913e-01 -2.0460237e-01 1.3889383e+00 1.6498713e+00 3.7111765e-02 5.7775346e-01 4.1261842e-01 7.3432376e-01 6.2859374e-01 1.1153206e+00 9.9873519e-01 8.6267073e-01 7.2924782e-01 9.4154949e-01 7.6036509e-01 9.0452129e-01 7.6133285e-01 6.6340995e-01 6.0490520e-02 8.2166952e-01 2.0434383e+00 -4.2295224e-02 4.0176928e-01 2.8583893e-01 6.3410562e-01 9.9206597e-01 2.0765138e+00 2.0306780e+00 1.7045573e+00 1.2601941e+00 2.2213759e+00 2.1153763e+00 2.1171866e+00 1.4442434e+00 1.1773805e+00 2.1141344e-01 1.2566488e+00 1.7911423e+00 -3.4483158e-01 3.1181074e-02 -3.0544915e-01 -5.2445254e-03 -1.0364471e-01 2.2737898e-01 -1.8358010e-02 -2.6761686e-01 -4.8189661e-01 -2.0225810e-01 -3.4694287e-01 1.2913885e-01 -3.6019171e-02 6.9666562e-02 -5.9644906e-01 1.1844129e+00 1.0965662e+00 -5.7494056e-01 -2.4462193e-02 -2.9613303e-01 8.4614382e-02 3.5916083e-02 4.7132598e-01 1.7403069e-01 -1.0793404e-02 -5.9633962e-02 7.7264407e-02 -8.1602346e-03 4.2207195e-01 1.1242436e-01 2.9633318e-01 -2.4203730e-02 2.7532244e+00 2.1793875e+00 1.9636681e+00 2.1937366e+00 2.1878872e+00 2.2701336e+00 2.5056291e+00 2.6084975e+00 1.9962644e+00 1.5747197e+00 1.3947795e+00 1.4592286e+00 1.3143714e+00 1.6413027e+00 1.3633033e+00 1.4274734e+00 7.9963697e-01 2.2315090e+00 1.9464087e+00 4.6774165e-01 9.1865784e-01 3.9982787e-01 7.1837580e-01 4.3297948e-01 7.5612506e-01 2.3129241e-01 -5.2154288e-02 -3.3524977e-01 -1.1667569e-01 -4.8126125e-01 -1.6807258e-01 -1.8357292e-01 -3.8799708e-01 -7.4064440e-01 -7.4575052e-01 9.2302116e-01 -4.1171231e-01 -1.0273864e+00 -7.3824414e-01 -1.1634546e+00 -5.5262401e-01 -7.9560230e-01 -2.9488212e-01 -9.5331848e-01 -8.2913764e-01 -9.5454953e-01 -4.9630229e-01 -5.8794556e-01 1.6049942e-01 -1.0657200e-01 3.1993835e-01 -4.4768340e-01 1.7278949e+00 1.3489563e+00 2.5248119e-02 4.7876788e-01 3.8255604e-01 6.0305355e-01 6.1684198e-01 8.0225233e-01 4.9988844e-01 2.2984798e-02 8.9162579e-03 -1.0020769e-02 3.0976884e-02 -3.2023826e-01 8.6947279e-02 -4.0879488e-01 -1.0177120e-01 -9.3916155e-01 6.6504968e-01 9.9213554e-01 -5.3478154e-01 1.9316723e-02 -3.6644285e-02 3.5953434e-01 5.6398581e-01 8.1633177e-01 7.1664715e-01 2.9798381e-01 3.6751811e-01 3.4379059e-01 5.2067727e-01 3.6746718e-01 6.7205779e-01 2.8936443e-01 2.1330090e-01 -5.0730441e-01 9.3142948e-01 5.2264996e-01 -9.8436665e-01 -5.6412913e-01 -8.4072993e-01 -6.5016121e-01 -6.4400272e-01 -4.8347351e-01 -7.9019122e-01 -1.1818947e+00 -1.2197938e+00 -1.2107636e+00 -1.1047334e+00 -1.2830291e+00 -1.0088693e+00 -1.1189788e+00 -1.0452963e+00 -1.5429800e+00 -1.1474273e-01 5.7645472e-01 -1.2894896e+00 -4.7081369e-01 -6.7336396e-01 -1.0000449e-01 -4.3856788e-02 5.7884911e-01 4.1750335e-01 1.6711739e-01 6.3408701e-02 2.2204094e-01 1.0392274e-01 1.9863509e-01 3.9658762e-01 3.4955100e-01 3.5729655e-01 -7.3757724e-02 1.9969095e+00 1.1098159e+00 -5.3674119e-02 5.1693113e-01 2.3789223e-01 6.2923653e-01 6.5284654e-01 9.4301490e-01 2.0408652e-01 1.1764090e-01 -7.7046802e-02 2.9706739e-01 5.6687888e-02 4.9870725e-01 7.1087060e-02 3.2757033e-01 -3.0758653e-01 1.8565749e+00 6.0307055e-01 -2.7918199e-01 6.2017167e-02 -6.2811740e-02 1.4526857e-01 1.6163613e-01 4.6392603e-01 2.8419638e-01 -1.5126500e-02 9.9722309e-03 -3.0306431e-02 3.2991057e-02 1.6404409e-01 7.0412182e-02 -3.1621148e-01 1.3845339e-02 1.6317223e+00 -3.1772006e-01 3.6010652e-02 -1.1393172e-01 2.7405575e-01 3.0967226e-01 5.1275628e-01 4.5877791e-01 6.8296539e-02 -1.7205232e-01 -2.4071491e-02 -2.0172908e-01 2.6262934e-01 -8.1398862e-02 1.2191847e-01 -5.5570010e-01 1.5270485e+00 -1.5125018e-01 -9.1383124e-01 -6.6208139e-01 -5.4126340e-01 -3.7828118e-01 -3.8887727e-03 5.0325631e-01 4.8380263e-01 1.8324223e-01 3.0999495e-01 1.8294557e-01 6.6541055e-01 3.8518107e-01 4.6552257e-01 -2.4460929e-01 2.0735182e+00 1.2366552e+00 -1.3451591e-01 3.2885196e-01 4.4808573e-02 3.8252542e-01 3.9611039e-01 7.4454044e-01 2.5443276e-01 -7.9420011e-02 -1.0423602e-01 -1.4767183e-01 2.4252430e-01 8.5200451e-02 1.8040886e-01 -2.7443840e-01 2.0949637e+00 8.3922282e-01 -2.0839515e-01 1.9470230e-01 -4.9798082e-02 2.5755774e-01 2.2428733e-01 5.0354639e-01 1.8668760e-02 -1.5949381e-01 -1.9251056e-01 -6.7356285e-02 1.3661197e-01 3.0165085e-02 -1.5333180e-01 -2.5599444e-01 1.8661077e+00 1.8035497e-01 -2.8828358e-01 -8.1345076e-02 -1.1851268e-01 9.0183045e-02 1.8158468e-01 3.0699883e-01 -1.4001630e-01 -2.8445198e-01 -2.0118003e-01 -1.6164621e-01 1.5920617e-01 7.1064707e-03 -4.5397273e-02 -3.7810335e-01 1.7267518e+00 5.3027065e-01 -3.1074439e-01 9.0390069e-02 -6.6046055e-02 2.6438255e-01 2.6565785e-01 5.0787286e-01 2.3230989e-03 -1.5562873e-01 -2.1441247e-01 -1.5050637e-01 -1.3402654e-01 1.1813180e-01 -4.5245706e-02 -2.2234434e-01 -1.7663310e-01 1.7353012e+00 -9.4453598e-02 -2.1226673e-01 -1.9111788e-01 -6.9525179e-02 2.2208766e-02 2.1451730e-01 2.5603621e-01 -1.7306353e-01 -3.2166627e-01 -2.8165036e-01 -1.9044416e-01 -2.0453913e-01 3.0248995e-02 1.1850904e-01 1.2578839e-01 -3.1206467e-01 4.7431213e-01 1.6527120e+00 -3.4413046e-01 4.7341538e-02 -2.1667454e-01 1.0763254e-01 2.9520144e-02 3.9485125e-01 1.6832520e-01 -1.3329781e-01 -3.6888732e-01 -2.1245249e-01 -3.2594064e-01 -2.3283949e-01 -3.0321291e-01 -1.6113427e-02 -2.1291130e-01 -3.4384533e-01 -4.5678873e-01 1.4681402e+00 -2.3528122e-01 -4.6586605e-01 -3.9635431e-01 -3.3102214e-01 -2.0972796e-01 -3.3482768e-02 3.4122898e-02 -3.6888921e-01 -5.9964317e-01 -5.6608754e-01 -5.3063219e-01 -5.7226127e-01 -5.0077135e-01 -5.9047985e-01 -3.0546815e-01 -3.5583661e-01 -3.2984470e-01 -9.1112778e-01 4.5910731e-01 8.1163721e-01 -9.4859434e-01 -3.3210251e-01 -6.8824760e-01 -2.5181552e-01 -4.3338619e-01 -1.3415907e-02 -3.5857144e-01 -5.5088936e-01 -8.2474185e-01 -5.9550970e-01 -7.7747005e-01 -5.9410268e-01 -7.8825270e-01 -5.8289204e-01 -7.7090279e-01 -3.5886130e-01 -6.3619026e-01 -5.4838774e-01 -1.0178318e+00 9.6452898e-01 -1.6158112e-01 -7.8813862e-01 -5.3401920e-01 -5.5269211e-01 -3.8657077e-01 -2.8305766e-01 -8.6070022e-02 -3.2859361e-01 -6.2744578e-01 -5.9775752e-01 -5.5317617e-01 -5.0693543e-01 -4.7247697e-01 -4.6510814e-01 -4.1653018e-01 -4.2974369e-01 -3.3490123e-01 -3.7241200e-01 -7.1568271e-02 -1.2986189e-01 -1.0186873e-01 -5.5683977e-01 1.1184292e+00 7.2316741e-01 -5.1668503e-01 2.4204793e-02 -2.5978776e-01 1.5808298e-01 2.9324269e-02 4.4487992e-01 1.1228726e-01 -5.8295439e-02 -3.0331778e-01 -9.3166784e-02 -2.7132648e-01 -9.0990599e-02 -2.8751429e-01 -9.5841218e-02 -2.9464287e-01 -7.8832443e-02 -2.7064642e-01 1.5517192e-01 -1.5524634e-01 3.2215249e-03 -5.3323238e-01 1.4768812e+00 3.0273738e-01 -3.7750446e-01 -1.8862777e-01 -2.1193343e-01 -9.3456953e-02 2.1373599e-02 1.6061744e-01 -1.6104244e-02 -4.6042254e-01 -4.1700240e-01 -4.9321092e-01 -4.0409879e-01 -5.0215715e-01 -3.5821545e-01 -4.8349952e-01 -2.0865152e-01 -2.2654551e-01 -1.5734291e-01 -5.6438493e-01 1.2770715e-02 1.3939998e+00 -3.9261223e-01 -2.5414960e-01 -2.8797462e-01 -1.4573928e-01 -6.9845224e-02 1.0876279e-01 1.7041640e-01 -2.6705097e-01 -4.5578937e-01 -4.4505614e-01 -3.7861759e-01 -4.1806378e-01 -3.5333147e-01 -4.3061031e-01 -3.0942775e-01 -4.2214700e-01 -1.0679654e-01 -2.3710437e-01 -1.2912026e-01 -6.5343281e-01 5.3600509e-01 1.1400468e+00 -5.9285972e-01 -1.0069688e-01 -3.6501223e-01 -7.4384965e-03 -1.0367770e-01 2.6669675e-01 8.3664062e-02 -1.9621845e-01 -4.7839968e-01 -2.9060272e-01 -3.6961662e-01 -1.6699872e-01 -3.1442848e-01 -1.6790349e-01 -3.4070475e-01 -1.6227236e-01 -3.4738518e-01 4.4121073e-02 -2.2929385e-01 -6.2244309e-02 -6.8259045e-01 9.9669056e-01 6.9437710e-01 -5.9212525e-01 -1.5167072e-01 -3.5462426e-01 -6.8627579e-02 -1.2388352e-01 1.7545321e-01 -1.8511987e-02 -3.3132839e-01 -4.8251817e-01 -3.7507245e-01 -4.1560040e-01 -3.6278277e-01 -4.1347197e-01 -3.7316595e-01 -4.0447273e-01 -3.6960625e-01 -3.9272407e-01 -3.1447569e-01 -1.4601465e-01 -2.6402695e-01 -3.7805294e-01 -5.2275330e-01 1.2921286e+00 -9.1971086e-02 -5.7076258e-01 -3.5008222e-01 -4.0545264e-01 -2.0462516e-01 -1.5042848e-01 7.5560789e-02 -2.2798017e-01 -5.2967668e-01 -5.7317362e-01 -5.1563423e-01 -5.3611304e-01 -4.9403945e-01 -5.1196777e-01 -5.0178816e-01 -4.9523694e-01 -5.0333483e-01 -3.7448831e-01 -2.9216211e-01 -3.5029959e-01 -6.2460128e-01 -1.9819616e-01 1.2956801e+00 -6.2399879e-01 -3.6918470e-01 -5.3931513e-01 -2.6983346e-01 -3.2842593e-01 -1.4904383e-02 -7.6893616e-02 -3.1552244e-01 -7.2040386e-01 -5.5638500e-01 -6.7309750e-01 -5.3413078e-01 -6.6569413e-01 -5.1663985e-01 -6.4774106e-01 -4.9410650e-01 -6.4046429e-01 -3.9882849e-01 -4.0950026e-01 -3.8845037e-01 -7.0368871e-01 -4.0687117e-01 1.2003279e+00 -4.5967134e-01 -6.2590924e-01 -5.0122230e-01 -5.0025698e-01 -3.1546778e-01 -2.4240223e-01 -3.6318165e-02 -4.6618705e-01 -6.8787879e-01 -7.6257531e-01 -6.4769132e-01 -7.3440029e-01 -6.2235932e-01 -7.3981561e-01 -5.9808723e-01 -7.3162065e-01 -5.6376189e-01 -6.9064731e-01 -2.9399962e-01 -6.0279775e-01 -4.3295528e-01 -9.6409226e-01 9.8895723e-01 7.2034951e-02 -8.0764837e-01 -4.9160158e-01 -5.8232686e-01 -3.8132624e-01 -3.0626799e-01 -8.5906416e-02 -2.9085617e-01 -7.0223170e-01 -7.3339972e-01 -7.2364028e-01 -6.7406809e-01 -7.1965688e-01 -6.6514487e-01 -7.2934160e-01 -6.4614378e-01 -7.2970560e-01 -6.0809977e-01 -7.3597211e-01 -4.5583890e-01 -5.5813483e-01 -4.5245557e-01 -9.0728708e-01 -6.3046874e-02 9.7278714e-01 -8.5125298e-01 -5.2079233e-01 -6.7620250e-01 -4.2855415e-01 -4.3417760e-01 -1.4396288e-01 -1.4503879e-01 -4.5923519e-01 -7.3732008e-01 -6.4209342e-01 -6.5526852e-01 -5.9944608e-01 -6.2627902e-01 -6.0450484e-01 -6.0993121e-01 -6.0238978e-01 -5.7852748e-01 -5.9662676e-01 -4.4774442e-01 -3.9240011e-01 -4.1147060e-01 -6.7240062e-01 -2.4279977e-01 1.2997706e+00 -6.4656099e-01 -4.4322516e-01 -5.7984580e-01 -3.3664151e-01 -3.6330990e-01 -5.2118504e-02 -6.7158587e-02 -3.4327790e-01 -7.4244490e-01 -5.9327922e-01 -6.8365421e-01 -5.4601663e-01 -6.7338868e-01 -5.4068262e-01 -6.7912776e-01 -5.0944425e-01 -6.6951988e-01 -3.0087715e-01 -5.6032259e-01 -3.4682218e-01 -9.4190624e-01 7.9488881e-01 5.2783097e-01 -8.6855372e-01 -3.5646263e-01 -6.1499201e-01 -2.5888773e-01 -3.3897883e-01 6.2058076e-02 -2.4017213e-01 -5.5034545e-01 -7.8729320e-01 -6.0238756e-01 -7.0739506e-01 -5.6305970e-01 -6.9636574e-01 -5.4826164e-01 -6.8527080e-01 -5.2874912e-01 -6.4613987e-01 -2.6791318e-01 -5.8971929e-01 -4.0176647e-01 -9.1791042e-01 1.0869914e+00 9.4605043e-02 -7.8981034e-01 -4.6444251e-01 -5.6703084e-01 -3.4830623e-01 -2.7413459e-01 -1.2605037e-02 -2.6750720e-01 -6.6392618e-01 -7.1752400e-01 -6.8141324e-01 -6.4488162e-01 -6.6662194e-01 -6.3700903e-01 -6.7870966e-01 -6.2567385e-01 -6.7065193e-01 -4.4494360e-01 -4.3762585e-01 -4.4258737e-01 -7.4088946e-01 -2.7377709e-01 1.2443180e+00 -6.5953627e-01 -5.3197519e-01 -6.0952993e-01 -4.2910110e-01 -3.8663752e-01 -1.2127018e-01 -9.1537621e-02 -4.5591433e-01 -7.6754193e-01 -6.9057169e-01 -6.7433753e-01 -6.3182479e-01 -6.4600086e-01 -6.4155647e-01 -6.3228380e-01 -6.4907615e-01 -4.8736720e-01 -4.4813074e-01 -5.0022349e-01 -7.6077060e-01 -2.9921687e-01 1.2826708e+00 -7.2139285e-01 -4.8288768e-01 -6.3503959e-01 -3.6160924e-01 -3.9548828e-01 -4.5839265e-02 -9.7502859e-02 -3.7818665e-01 -7.6367331e-01 -5.8019318e-01 -6.8145515e-01 -5.2704123e-01 -6.6153249e-01 -5.0273213e-01 -6.5021734e-01 -4.7605165e-01 -5.9153901e-01 -2.0357171e-01 -5.5511547e-01 -3.4533750e-01 -8.8649024e-01 1.1721943e+00 2.5432338e-01 -7.5796651e-01 -3.9687230e-01 -5.2523480e-01 -2.8089306e-01 -2.1571402e-01 7.0929399e-02 -1.9218313e-01 -5.8146524e-01 -6.4396932e-01 -5.9486964e-01 -5.5960602e-01 -5.6647911e-01 -5.5023731e-01 -5.6906526e-01 -5.2601263e-01 -5.5951254e-01 -4.8197257e-01 -5.3530264e-01 -4.3613163e-01 -5.0848349e-01 -1.9409908e-01 -4.4685992e-01 -2.8126417e-01 -8.0626564e-01 1.0086813e+00 5.2228974e-01 -7.8141570e-01 -2.8177676e-01 -5.4082846e-01 -1.8828433e-01 -2.4796141e-01 1.3958281e-01 -1.2247144e-01 -4.0855819e-01 -6.3459811e-01 -4.6717156e-01 -5.5745693e-01 -4.4123314e-01 -5.5471282e-01 -4.5137102e-01 -5.4891995e-01 -4.4246381e-01 -5.2820416e-01 -4.1707550e-01 -4.9859912e-01 -3.9144004e-01 -4.1668879e-01 -1.5532290e-01 -4.0802883e-01 -3.3524694e-01 -5.9386614e-01 1.4234241e+00 -7.8182210e-02 -5.4022875e-01 -3.8073335e-01 -3.6702510e-01 -2.2187680e-01 -7.3140306e-02 1.2069363e-01 -1.3941265e-01 -5.3087700e-01 -5.4928469e-01 -5.1470481e-01 -4.8282811e-01 -4.8868754e-01 -4.8541820e-01 -4.8140040e-01 -4.8241930e-01 -4.6500168e-01 -4.6755955e-01 -4.3205541e-01 -4.2967664e-01 -1.9119781e-01 -3.8930565e-01 -3.0536423e-01 -6.8879529e-01 1.2222438e+00 3.2192439e-01 -6.8627495e-01 -2.2941200e-01 -4.6450911e-01 -8.9841482e-02 -1.5061732e-01 2.7727131e-01 -1.1855657e-01 -3.8396239e-01 -6.1479167e-01 -3.9123305e-01 -5.3115272e-01 -3.4458820e-01 -5.1110475e-01 -3.2008249e-01 -4.9542735e-01 -2.8121686e-01 -4.7923560e-01 -2.2682777e-01 -4.6851711e-01 -6.9886893e-03 -3.4683328e-01 -5.2203339e-02 -7.1308230e-01 7.4473045e-01 1.1084609e+00 -6.0587749e-01 -1.9720717e-01 -3.7558713e-01 -1.2827698e-01 -9.7704592e-02 2.0848940e-01 1.4324132e-01 -3.1869455e-01 -5.1721631e-01 -4.7995285e-01 -4.3036713e-01 -4.2491447e-01 -3.9653021e-01 -4.3051289e-01 -3.7729820e-01 -4.2159615e-01 -3.4461329e-01 -4.0666247e-01 -2.9830192e-01 -3.9417519e-01 -1.4508723e-01 -2.0533678e-01 -1.7260895e-01 -4.9211604e-01 1.6665887e-02 1.4962974e+00 -3.9159190e-01 -3.0202209e-01 -3.4145119e-01 -1.9792454e-01 -1.2076220e-01 1.0906384e-01 2.3176488e-01 -1.8084526e-01 -4.8909791e-01 -4.9458110e-01 -4.3242305e-01 -4.3994968e-01 -4.0501982e-01 -4.4762976e-01 -3.9181504e-01 -4.5382673e-01 -3.5650558e-01 -4.3845896e-01 -3.1126542e-01 -4.2880240e-01 -2.7125220e-01 -4.2825488e-01 -6.3099517e-02 -3.2986609e-01 -1.1962128e-01 -6.9159447e-01 6.3549041e-01 1.1352936e+00 -6.3523864e-01 -1.9183605e-01 -4.1367233e-01 -1.1771997e-01 -1.3832538e-01 2.1695800e-01 1.2946606e-01 -2.5594963e-01 -5.2832963e-01 -4.4100823e-01 -4.3351099e-01 -3.9811994e-01 -4.0810727e-01 -4.0446716e-01 -3.8650991e-01 -4.0542862e-01 -3.4376682e-01 -4.0686238e-01 -2.9991012e-01 -3.9793437e-01 -9.0152946e-02 -3.3113568e-01 -1.4690802e-01 -6.8952577e-01 1.1441062e+00 7.2619289e-01 -6.6162372e-01 -1.5235284e-01 -4.1778771e-01 -6.0129914e-02 -1.0708228e-01 3.3199805e-01 3.2301630e-02 -3.5058371e-01 -5.7180057e-01 -4.3735423e-01 -4.8472307e-01 -3.9882428e-01 -4.6027786e-01 -3.9668209e-01 -4.3636911e-01 -3.6246857e-01 -3.7602948e-01 -3.7376987e-01 -2.3581881e-01 -1.7937942e-01 -2.3019297e-01 -4.1101395e-01 -3.3982721e-02 1.6114518e+00 -3.9548765e-01 -1.8344244e-01 -3.3280184e-01 -5.9238873e-02 -7.6945847e-02 2.9130342e-01 3.1609573e-01 -5.4876781e-03 -4.3806814e-01 -3.2477211e-01 -3.6822542e-01 -2.3654082e-01 -3.3346492e-01 -2.2733898e-01 -3.1369703e-01 -2.2046322e-01 -2.9515710e-01 -1.8976683e-01 -2.9281353e-01 -9.5834112e-02 -7.2122771e-02 -1.1382889e-01 -3.1755419e-01 -1.2379327e-01 1.6595494e+00 -1.0816530e-01 -2.9855165e-01 -2.0282114e-01 -1.6095193e-01 -2.6620193e-02 1.7400837e-01 3.6830066e-01 -4.8762670e-02 -4.1536638e-01 -4.3658228e-01 -3.9498404e-01 -3.6328496e-01 -3.5176213e-01 -3.5633141e-01 -3.6457045e-01 -3.4167746e-01 -2.6162867e-01 -2.8997700e-01 -2.6746730e-01 -2.4049965e-01 -1.9739259e-01 7.3734486e-03 -1.7823760e-01 -1.3524155e-01 -4.4896946e-01 1.4871798e+00 4.2234333e-01 -4.6864767e-01 -6.6576610e-02 -2.6336765e-01 6.3234566e-02 7.1466194e-02 4.5655965e-01 8.2431181e-02 -2.3440377e-01 -4.3941373e-01 -2.7072095e-01 -3.7255527e-01 -2.1145523e-01 -3.5370633e-01 -1.9633616e-01 -3.4298786e-01 -1.5980097e-01 -3.2434059e-01 -1.1534684e-01 -3.1291545e-01 8.2642368e-02 -1.7534087e-01 4.0925346e-02 -5.2713523e-01 6.4869199e-01 1.4502028e+00 -4.6911272e-01 -7.2525826e-02 -2.5502517e-01 1.0875030e-02 3.4894750e-03 3.6096808e-01 3.2698268e-01 -1.3204821e-01 -4.0765386e-01 -3.3235829e-01 -3.4302607e-01 -2.9152850e-01 -3.0612285e-01 -3.0347402e-01 -2.8170612e-01 -2.9836153e-01 -2.3764449e-01 -2.8338567e-01 -6.8376824e-02 -1.2818978e-01 -8.5374180e-02 -4.4694890e-01 3.7042821e-01 1.5564696e+00 -4.8708680e-01 -5.1068409e-02 -3.1932245e-01 5.6054964e-02 -4.9642939e-02 4.0968831e-01 2.9358167e-01 -9.1656543e-03 -4.5635749e-01 -2.3044266e-01 -3.7954260e-01 -1.6262094e-01 -3.4030935e-01 -1.3597833e-01 -3.2099226e-01 -8.8786706e-02 -3.1599699e-01 1.0361053e-01 -1.6229468e-01 5.8564538e-02 -5.0603853e-01 5.8532948e-01 1.5053903e+00 -4.0313023e-01 -1.0090734e-01 -2.3871203e-01 -2.2030784e-02 3.4088613e-02 3.4279629e-01 3.5169738e-01 -1.5979905e-01 -3.7414143e-01 -3.8147639e-01 -3.1690489e-01 -3.3441658e-01 -2.6620435e-01 -3.3120775e-01 -2.2086174e-01 -3.2220988e-01 -1.8001495e-01 -3.0276420e-01 6.8866365e-02 -2.2275054e-01 5.1785298e-03 -5.8885483e-01 1.0373363e+00 1.0533445e+00 -5.3580173e-01 -3.4818814e-02 -2.9064160e-01 3.2540234e-02 2.6761653e-02 4.2820736e-01 2.3144441e-01 -2.0086091e-01 -4.0203865e-01 -3.1985292e-01 -3.2107492e-01 -2.7516835e-01 -2.8655726e-01 -2.8277473e-01 -2.5484773e-01 -2.8953108e-01 -2.0927038e-01 -2.4551135e-01 4.6159212e-02 -2.7000349e-01 -1.8621870e-03 -5.4849503e-01 1.3120680e+00 8.8473340e-01 -5.2030663e-01 2.8396248e-03 -2.7936055e-01 1.0807748e-01 5.8213047e-02 5.0118409e-01 1.9252168e-01 -1.9547889e-01 -3.9151938e-01 -2.7129857e-01 -2.9281294e-01 -2.2833876e-01 -2.5173222e-01 -2.3652211e-01 -2.0448266e-01 -2.2359322e-01 2.8377189e-02 -1.3358631e-01 -1.3318204e-02 -4.8386393e-01 8.9885314e-01 1.2854028e+00 -5.3914709e-01 1.0371880e-01 -2.7562946e-01 1.9597420e-01 3.2550268e-02 6.0249788e-01 2.7168121e-01 -1.1524134e-02 -3.6047515e-01 -1.0161727e-01 -2.6402841e-01 -3.6376652e-02 -2.2662743e-01 -1.4159757e-02 -2.0474259e-01 -9.0082865e-03 -1.1079278e-01 2.4115307e-01 -1.6312699e-01 3.6197866e-02 -3.5709341e-01 1.8434830e+00 2.7689964e-01 -2.3205605e-01 -1.0339514e-01 -5.7716859e-02 2.7179289e-02 2.8699816e-01 4.4368752e-01 1.7035144e-01 -3.3277804e-01 -2.5747027e-01 -3.3343337e-01 -1.8995666e-01 -2.9532908e-01 -1.7993562e-01 -2.9676274e-01 -1.6293082e-01 -2.8312032e-01 -1.3245444e-01 -1.8772353e-01 1.2720333e-01 -2.3042348e-01 -5.9596015e-02 -4.7485328e-01 1.6484885e+00 2.7904045e-01 -3.4487837e-01 -1.6567183e-01 -1.4696670e-01 -1.5768889e-02 1.9324511e-01 4.1168405e-01 1.6140593e-01 -3.2880032e-01 -2.9016353e-01 -3.4600724e-01 -2.1287214e-01 -2.9879615e-01 -1.9585436e-01 -3.0134131e-01 -1.6803634e-01 -2.9772303e-01 -1.3916893e-01 -2.7279340e-01 1.0984522e-01 -2.4699360e-01 1.1575411e-02 -6.0799024e-01 1.3905798e+00 7.8777399e-01 -4.9592796e-01 -6.7256504e-02 -2.5559852e-01 2.5920693e-02 6.9393318e-02 3.8957762e-01 1.3831063e-01 -1.6609794e-01 -3.7188692e-01 -2.5906666e-01 -2.8457797e-01 -2.1810591e-01 -2.8031079e-01 -2.1574770e-01 -2.6064546e-01 -2.0463066e-01 -1.6137830e-01 2.0180190e-02 -1.8779475e-01 -1.3033336e-01 -2.9891927e-01 1.7376477e+00 1.2695062e-01 -2.7310905e-01 -1.1767370e-01 -8.1776618e-02 7.8781098e-02 2.5189135e-01 4.9188698e-01 1.1497788e-01 -2.6545290e-01 -2.7101503e-01 -2.4181792e-01 -1.7907634e-01 -1.7532447e-01 -1.5052863e-01 -1.7005771e-01 -1.1517596e-01 -1.4628537e-01 4.9202819e-02 3.0937828e-02 -4.5142737e-02 -2.6805886e-01 1.4072033e-01 1.8031003e+00 -2.2019357e-01 -8.1274811e-02 -1.9767540e-01 3.8308885e-02 4.5657946e-02 4.0639714e-01 4.3444461e-01 6.1768523e-02 -3.3788605e-01 -2.2152706e-01 -3.0074517e-01 -1.4537886e-01 -2.7149668e-01 -1.1758708e-01 -2.5865974e-01 -8.5796164e-02 -2.5069165e-01 -5.4576611e-02 -2.1078063e-01 1.8565784e-01 -1.5457228e-01 9.7501280e-02 -5.1831163e-01 1.1257696e+00 1.0697475e+00 -4.6514741e-01 6.5432308e-03 -2.4987510e-01 8.5753178e-02 6.2007510e-02 4.8083691e-01 2.7303868e-01 -1.3616750e-01 -3.4374138e-01 -2.3899571e-01 -2.7810997e-01 -1.8713342e-01 -2.5733431e-01 -1.9598889e-01 -2.4218193e-01 -1.7864872e-01 -2.3439144e-01 -1.6269514e-01
