6.6142186e-02 3.6294173e-01 3.8719057e-01 5.3143270e-01 5.1007795e-01 4.7174709e-01 2.9036262e-01 2.6436612e-01 2.1235831e-01 2.4873633e-01 2.2968358e-01 2.8878371e-01 2.4816850e-01 2.8941160e-01 2.3622513e-01 3.7098059e-01 4.0598273e-01 4.6465235e-01 2.8726971e-01 3.0145164e-01 1.8059586e-01 3.3304379e-01 -1.8033365e-03 1.3328379e+00 9.6822118e-01 1.8275677e-01 4.0655314e-01 2.2437500e-01 3.7955412e-01 3.1940505e-01 4.2588322e-01 4.0656686e-01 5.3742950e-01 5.5533908e-01 6.7353422e-01 6.3481081e-01 5.3074555e-01 3.9651813e-01 3.9186183e-01 3.5932991e-01 3.8674001e-01 3.9499927e-01 4.1524531e-01 3.9852254e-01 4.1401216e-01 4.7005989e-01 5.2950881e-01 6.2280115e-01 4.8716739e-01 4.6755114e-01 3.5400189e-01 4.8768259e-01 1.8585705e-01 9.9891614e-01 1.5594809e+00 3.1167017e-01 6.1947937e-01 3.5642622e-01 5.7560705e-01 4.5719399e-01 6.1563887e-01 5.2567035e-01 6.9998041e-01 6.8048019e-01 8.5529141e-01 7.8480000e-01 7.9282585e-01 5.5270291e-01 6.0680996e-01 4.8089274e-01 6.0448369e-01 5.1026842e-01 6.3221448e-01 5.1786066e-01 7.2156584e-01 6.7765078e-01 8.4990166e-01 6.1876639e-01 6.8532911e-01 4.7463436e-01 7.4769293e-01 2.7644377e-01 1.4166474e+00 1.6095990e+00 5.3925314e-01 7.7997585e-01 6.0337425e-01 7.3448042e-01 6.9895683e-01 7.8645393e-01 7.8907975e-01 8.7458928e-01 9.3622688e-01 1.0242466e+00 1.0505428e+00 9.1913147e-01 8.0634081e-01 7.6211437e-01 7.6504365e-01 7.7073140e-01 8.0423982e-01 7.7191437e-01 8.1583354e-01 8.0405389e-01 9.2756599e-01 9.4081394e-01 1.0362550e+00 8.5904421e-01 8.7651377e-01 7.3377787e-01 8.9585755e-01 5.4401918e-01 1.8824782e+00 1.6079278e+00 7.5041400e-01 9.7034280e-01 8.0857383e-01 9.7161644e-01 8.7421140e-01 9.9781445e-01 9.4758116e-01 1.0866912e+00 1.1226377e+00 1.2278669e+00 1.1782159e+00 1.0840509e+00 9.4033441e-01 9.5459219e-01 9.0432897e-01 9.3340589e-01 9.1468632e-01 9.7431527e-01 9.5492996e-01 9.6013414e-01 9.4544074e-01 1.0688630e+00 1.1026509e+00 1.1314269e+00 9.6223002e-01 9.4072033e-01 9.2740115e-01 9.0667129e-01 8.6713159e-01 2.2496633e+00 1.2993156e+00 9.6396431e-01 1.0213629e+00 9.7207404e-01 1.0493505e+00 1.0361508e+00 1.0910928e+00 1.1124197e+00 1.2191454e+00 1.2544038e+00 1.3388913e+00 1.2650764e+00 1.1534326e+00 1.0564936e+00 1.0461018e+00 1.0104688e+00 1.0447041e+00 1.0392966e+00 1.0706357e+00 1.0201643e+00 1.0521800e+00 1.0121163e+00 1.1374254e+00 1.1562955e+00 1.2100490e+00 1.0471518e+00 1.0419115e+00 9.2746006e-01 1.0634897e+00 7.1838353e-01 1.9580153e+00 1.7765560e+00 8.7896084e-01 1.1258761e+00 9.2990909e-01 1.0933525e+00 9.8907255e-01 1.1178153e+00 1.0533930e+00 1.2114659e+00 1.1883027e+00 1.3174432e+00 1.2529144e+00 1.2093760e+00 9.9692165e-01 1.0381284e+00 9.4417547e-01 1.0154054e+00 9.7426734e-01 1.0316920e+00 9.7450615e-01 1.0171872e+00 9.6124752e-01 1.1042303e+00 1.0765085e+00 1.2071383e+00 9.8717567e-01 1.0466086e+00 8.6084358e-01 1.0401524e+00 6.6909724e-01 1.9111538e+00 1.7637575e+00 8.6144232e-01 1.0707065e+00 8.9875212e-01 1.0511199e+00 9.5203030e-01 1.0630591e+00 1.0378539e+00 1.1435095e+00 1.1684372e+00 1.2621763e+00 1.2395188e+00 1.1252770e+00 9.9364598e-01 9.3638878e-01 9.3475385e-01 9.2463502e-01 9.3765685e-01 9.2151996e-01 9.4065586e-01 9.1082346e-01 9.8665591e-01 1.0156393e+00 1.1008550e+00 9.8990613e-01 9.5838913e-01 8.0539170e-01 9.6608867e-01 6.4373285e-01 1.3439056e+00 2.0643292e+00 7.8775135e-01 1.0213374e+00 8.1320236e-01 9.7386789e-01 8.8602178e-01 1.0081097e+00 9.5509218e-01 1.0959454e+00 1.0947367e+00 1.2271686e+00 1.2166231e+00 1.1590617e+00 9.7564950e-01 9.4016868e-01 8.9396217e-01 9.2484340e-01 9.0943373e-01 9.3731880e-01 9.1823718e-01 9.0944246e-01 9.7754841e-01 1.0361071e+00 1.1013385e+00 1.0145492e+00 9.3553278e-01 8.5322258e-01 9.5186853e-01 6.8780257e-01 1.2835244e+00 2.1422802e+00 8.2334309e-01 1.0324090e+00 8.2530998e-01 9.8536849e-01 8.9127844e-01 1.0329231e+00 9.5356984e-01 1.1039923e+00 1.0690783e+00 1.2549202e+00 1.1941839e+00 1.1868219e+00 9.4060638e-01 9.8553372e-01 8.6735619e-01 9.6537524e-01 8.6828900e-01 9.7420359e-01 8.8454961e-01 9.8519620e-01 8.7281078e-01 1.0397015e+00 1.0177293e+00 1.1664771e+00 9.4784808e-01 9.9897199e-01 8.1165697e-01 1.0188295e+00 6.1428702e-01 1.6234798e+00 1.9252933e+00 8.2623587e-01 1.0300220e+00 8.6170420e-01 1.0085934e+00 9.2834478e-01 1.0090166e+00 9.8916669e-01 1.0991416e+00 1.1392318e+00 1.2212873e+00 1.2055724e+00 1.1232212e+00 9.6624530e-01 9.1686983e-01 9.0250807e-01 8.8745067e-01 9.1380888e-01 9.1407368e-01 8.9114236e-01 9.1482388e-01 8.9359238e-01 9.1224488e-01 8.6983786e-01 9.3184921e-01 1.0216706e+00 1.0574563e+00 1.0081496e+00 9.2891748e-01 8.3958339e-01 9.3011949e-01 7.0883503e-01 1.0933972e+00 2.1620172e+00 9.2643596e-01 9.9798390e-01 8.5920544e-01 9.5780254e-01 9.1311056e-01 1.0005170e+00 9.7430408e-01 1.0745680e+00 1.0798591e+00 1.2197616e+00 1.2129823e+00 1.2073772e+00 9.8898525e-01 9.7553161e-01 8.9516492e-01 9.6208786e-01 9.0055229e-01 9.6532138e-01 9.1054609e-01 9.8212917e-01 9.2259580e-01 9.6682125e-01 9.2060973e-01 9.6379596e-01 9.2301194e-01 1.0083837e+00 1.0344715e+00 1.1428155e+00 1.0642078e+00 1.0238372e+00 9.1268798e-01 1.0030313e+00 8.2972273e-01 1.0360287e+00 2.2186125e+00 1.1774588e+00 9.7927308e-01 1.0164493e+00 9.8529902e-01 1.0425815e+00 1.0185403e+00 1.0628888e+00 1.1155245e+00 1.1895708e+00 1.2544517e+00 1.3004063e+00 1.2554574e+00 1.1467719e+00 9.9580671e-01 1.0248559e+00 9.5823611e-01 1.0173147e+00 9.6564749e-01 1.0351866e+00 9.7734471e-01 1.0172907e+00 9.5879346e-01 9.9698992e-01 9.3969842e-01 1.0038320e+00 9.3989340e-01 1.0671251e+00 1.0588866e+00 1.1693392e+00 9.4607446e-01 1.0115981e+00 8.3689263e-01 1.0122824e+00 6.6872942e-01 2.0696233e+00 1.4787169e+00 8.7355675e-01 1.0098335e+00 9.1073163e-01 9.8051442e-01 9.7882246e-01 1.0086435e+00 1.0546792e+00 1.1102941e+00 1.1927773e+00 1.2599448e+00 1.2742584e+00 1.0994203e+00 9.9372770e-01 9.0883990e-01 9.4487335e-01 8.9332069e-01 9.3206629e-01 9.1284094e-01 9.4698504e-01 9.0043933e-01 9.4287196e-01 8.8737509e-01 1.0078998e+00 1.0082628e+00 1.1207802e+00 9.3147588e-01 9.5895245e-01 7.7854080e-01 9.8913255e-01 5.7476122e-01 1.7160155e+00 1.7479129e+00 7.4578725e-01 1.0071754e+00 8.1107138e-01 9.7940337e-01 8.8032156e-01 9.9847313e-01 9.5788601e-01 1.0705660e+00 1.1182059e+00 1.2309781e+00 1.2128447e+00 1.0926341e+00 9.2512591e-01 8.8559488e-01 8.5629176e-01 8.7533128e-01 8.4718369e-01 8.7227770e-01 8.6763879e-01 8.7462132e-01 8.7296309e-01 8.4466927e-01 8.9951709e-01 9.3506336e-01 1.0246460e+00 1.0025651e+00 8.8362887e-01 7.9325525e-01 8.3633945e-01 6.9712704e-01 9.8488882e-01 2.0889815e+00 9.0983526e-01 9.0212778e-01 8.0723674e-01 8.9467916e-01 8.4320777e-01 9.2341730e-01 9.0814950e-01 9.8870862e-01 1.0367585e+00 1.1407838e+00 1.1766943e+00 1.1280153e+00 9.4201029e-01 8.7960604e-01 8.0938618e-01 8.2918599e-01 8.0790947e-01 8.6400404e-01 8.1586362e-01 8.4519094e-01 7.9850440e-01 8.4303588e-01 8.1259569e-01 9.0747062e-01 9.2864233e-01 1.0174055e+00 8.2517570e-01 8.3988545e-01 7.0217901e-01 8.4686665e-01 5.3143181e-01 1.8147416e+00 1.4824971e+00 6.8852190e-01 8.9376158e-01 7.4177385e-01 8.6212906e-01 7.9018513e-01 9.0115620e-01 8.6779279e-01 9.9390679e-01 1.0068160e+00 1.1225869e+00 1.0888020e+00 9.7599936e-01 8.0559759e-01 7.9897873e-01 7.5858313e-01 7.9037690e-01 7.4545772e-01 7.9669194e-01 7.6637655e-01 8.0666183e-01 7.3301163e-01 7.8563227e-01 7.4213107e-01 7.7729038e-01 7.5679167e-01 8.5929564e-01 8.9738268e-01 9.0929618e-01 7.6415480e-01 7.4772365e-01 6.8765328e-01 7.0351858e-01 6.5804188e-01 2.0444497e+00 9.5724481e-01 7.4793665e-01 7.2958247e-01 7.4313630e-01 7.4790432e-01 7.8947862e-01 7.6895648e-01 8.6175004e-01 8.8934105e-01 1.0082556e+00 1.0270488e+00 1.0254773e+00 8.2551643e-01 7.5360771e-01 6.7811231e-01 7.0677931e-01 6.6097918e-01 7.1127102e-01 6.5953249e-01 7.0763367e-01 6.6015968e-01 7.1251471e-01 6.3947784e-01 7.8001184e-01 7.7577855e-01 8.7349714e-01 6.5873449e-01 7.1003887e-01 5.4514401e-01 7.1950687e-01 3.5229225e-01 1.6630209e+00 1.3071763e+00 5.0604887e-01 7.3737622e-01 5.8195276e-01 7.0251296e-01 6.5576283e-01 7.3239222e-01 7.3061973e-01 8.4231715e-01 8.7438242e-01 9.9469550e-01 9.4530104e-01 8.4613409e-01 6.8417417e-01 6.3335504e-01 6.2533152e-01 6.2963394e-01 6.4268418e-01 6.2878162e-01 6.2758962e-01 6.4142874e-01 6.3075156e-01 6.2033858e-01 6.1254065e-01 6.2315521e-01 7.2699648e-01 7.5623172e-01 7.8938136e-01 6.3954074e-01 6.2996706e-01 5.4474029e-01 6.0677957e-01 4.0353437e-01 1.7285671e+00 1.0945653e+00 5.3076654e-01 6.8860879e-01 5.7699040e-01 6.8446949e-01 6.0772571e-01 7.3690719e-01 7.0253630e-01 8.2409538e-01 8.3981008e-01 9.6102066e-01 9.1156116e-01 8.1421346e-01 6.3515206e-01 6.2541677e-01 5.8621823e-01 6.2755691e-01 5.9088319e-01 6.3438096e-01 6.0331087e-01 6.3533923e-01 5.8509153e-01 6.1168240e-01 5.6263701e-01 6.6868354e-01 6.8323553e-01 7.8844422e-01 6.5421995e-01 6.3260259e-01 5.0853810e-01 6.2340898e-01 3.6085691e-01 8.9622711e-01 1.7647727e+00 5.7416604e-01 6.6560857e-01 5.2922528e-01 6.3742522e-01 5.7686798e-01 6.6121917e-01 6.3191643e-01 7.4148503e-01 7.6422001e-01 8.9911120e-01 8.8637678e-01 8.5465608e-01 6.5390219e-01 6.0577061e-01 5.3117699e-01 5.6258791e-01 5.4832544e-01 5.7623075e-01 5.3774832e-01 5.8174312e-01 5.4596910e-01 5.7165884e-01 5.4856206e-01 5.5397362e-01 5.3758270e-01 5.6260511e-01 6.2879402e-01 6.7673552e-01 7.0931378e-01 5.9344127e-01 5.5713953e-01 4.8951396e-01 5.7499069e-01 2.9878868e-01 1.6151378e+00 1.1072634e+00 4.1771848e-01 6.7360090e-01 4.6134370e-01 6.5725202e-01 5.3656364e-01 6.8464959e-01 6.1621418e-01 7.7487708e-01 7.7809888e-01 9.3006622e-01 8.4973915e-01 7.9367056e-01 5.5874171e-01 6.2337763e-01 5.0651154e-01 5.9284953e-01 5.0865379e-01 6.1576687e-01 5.2749130e-01 6.1387289e-01 5.1188476e-01 6.0818514e-01 4.7882496e-01 5.9745448e-01 4.8925515e-01 6.5638635e-01 6.0232878e-01 7.6727840e-01 5.5905677e-01 6.0159129e-01 3.8431778e-01 6.3810689e-01 1.7118980e-01 1.3184640e+00 1.4144711e+00 4.0038302e-01 6.1004705e-01 4.2985517e-01 5.6013403e-01 4.9823790e-01 5.9053883e-01 5.7652959e-01 6.5152519e-01 7.1950945e-01 7.8793806e-01 8.2737774e-01 6.9576229e-01 5.4424049e-01 4.7768212e-01 4.3967686e-01 4.3558673e-01 4.6196175e-01 4.3265171e-01 4.5149321e-01 4.1944517e-01 4.6484988e-01 4.0693420e-01 4.4681320e-01 3.7087592e-01 4.3730581e-01 4.0634103e-01 5.2829677e-01 5.1242573e-01 6.1607461e-01 4.2605776e-01 4.6243073e-01 3.0682383e-01 4.4732621e-01 1.6870570e-01 1.5637316e+00 9.6922800e-01 3.6862129e-01 5.0036808e-01 3.9496677e-01 4.8962441e-01 4.6731196e-01 5.2205100e-01 5.5389536e-01 6.0723106e-01 6.9597636e-01 7.8087156e-01 7.7474516e-01 6.3400004e-01 5.0536641e-01 4.3596298e-01 4.5731844e-01 4.3456037e-01 4.5620034e-01 4.3870748e-01 4.7738940e-01 4.3427529e-01 4.9516033e-01 4.0350700e-01 5.5814734e-01 5.3985803e-01 6.7116059e-01 4.8496019e-01 5.2685936e-01 3.4771237e-01 5.3748826e-01 1.4926906e-01 1.0602698e+00 1.5294917e+00 3.6215312e-01 5.5166848e-01 3.9427242e-01 5.1302318e-01 4.5720710e-01 5.3312891e-01 5.4060015e-01 6.0489752e-01 6.7288430e-01 7.7272136e-01 7.9316489e-01 6.8933070e-01 5.0783409e-01 4.4607903e-01 4.4028016e-01 4.0331898e-01 4.3219203e-01 4.0007622e-01 4.5060627e-01 3.9399986e-01 5.0963518e-01 4.9509033e-01 6.2975348e-01 4.6903167e-01 4.8220640e-01 2.9291052e-01 4.6778444e-01 1.0981206e-01 9.4932358e-01 1.5220978e+00 2.8539064e-01 5.1472990e-01 3.1311149e-01 4.5044961e-01 3.7332918e-01 4.8677692e-01 4.6215194e-01 5.3970237e-01 6.0522184e-01 7.0358320e-01 7.2776919e-01 6.1224531e-01 4.4895460e-01 3.7655775e-01 3.6366059e-01 3.4860510e-01 3.6853700e-01 3.3294203e-01 4.2625154e-01 4.6330117e-01 5.6883479e-01 4.4358198e-01 3.9582192e-01 2.5931195e-01 3.9636955e-01 9.0539448e-02 6.5032648e-01 1.5632958e+00 2.9635501e-01 4.0768956e-01 2.9647321e-01 3.6351536e-01 3.3180361e-01 3.9532445e-01 4.0775971e-01 4.7533971e-01 5.5288223e-01 6.1479942e-01 6.4012837e-01 5.6167534e-01 4.0893546e-01 3.3803281e-01 3.3409906e-01 2.8535082e-01 3.4686019e-01 3.1326640e-01 4.3876104e-01 4.3364944e-01 5.4255236e-01 3.7821552e-01 3.7995216e-01 2.0817808e-01 3.8375539e-01 -7.6965844e-03 1.0348201e+00 1.3344912e+00 1.9202321e-01 4.4890263e-01 2.4749469e-01 4.0615990e-01 3.0614807e-01 4.3404877e-01 3.9444940e-01 5.2209661e-01 5.2629500e-01 6.5360519e-01 6.3197068e-01 5.2056036e-01 3.7597665e-01 3.4466349e-01 3.3320707e-01 3.4664025e-01 3.4152205e-01 3.5748903e-01 4.4952672e-01 5.0100527e-01 5.5774777e-01 4.0914185e-01 4.0021426e-01 2.5235136e-01 4.2723107e-01 1.4247453e-02 1.0736301e+00 1.4005916e+00 2.2479736e-01 4.9638469e-01 2.5459350e-01 4.3688944e-01 3.3204936e-01 4.7843456e-01 4.0480811e-01 5.3671280e-01 5.4550107e-01 6.6886917e-01 6.3343843e-01 5.3125798e-01 3.6184773e-01 3.5355638e-01 3.2403528e-01 3.4233155e-01 3.1597956e-01 3.6301800e-01 3.2406633e-01 3.3984051e-01 3.9293217e-01 4.5510389e-01 5.1982267e-01 4.0691713e-01 3.4318769e-01 2.4989609e-01 3.5697062e-01 7.2368096e-02 8.3073218e-01 1.4882424e+00 1.9436242e-01 4.6891578e-01 2.2991922e-01 4.1411217e-01 2.7505432e-01 4.4932775e-01 3.6730989e-01 5.1156912e-01 4.7725805e-01 6.6838248e-01 5.8189079e-01 5.6529346e-01 3.3335860e-01 3.5980327e-01 2.5389081e-01 3.4910430e-01 2.8016112e-01 3.3590274e-01 2.6302013e-01 3.6045367e-01 2.7208070e-01 3.2858216e-01 2.6761309e-01 4.1176979e-01 3.9775452e-01 4.7929039e-01 2.7880728e-01 3.3499040e-01 1.9406359e-01 3.0397446e-01 3.2771128e-02 1.4553805e+00 6.9843574e-01 2.1515238e-01 3.2183968e-01 2.5251945e-01 3.4098291e-01 3.0545967e-01 3.5670224e-01 3.8781305e-01 4.6278905e-01 5.4104501e-01 5.8858648e-01 5.7252427e-01 4.3157329e-01 3.2433450e-01 2.6219935e-01 2.7302459e-01 2.3676414e-01 2.9241852e-01 2.7394321e-01 2.6722469e-01 2.7007091e-01 2.7056206e-01 2.6319135e-01 3.0371498e-01 3.3742669e-01 4.2992363e-01 4.0373810e-01 2.8868929e-01 2.3077772e-01 2.2994833e-01 1.5682923e-01 2.3394060e-01 1.4736096e+00 4.6033096e-01 2.3639032e-01 2.8186174e-01 2.4400830e-01 2.8418145e-01 2.9090033e-01 3.5261765e-01 3.8218027e-01 4.5552248e-01 4.9911709e-01 5.9528685e-01 5.6195241e-01 3.6676133e-01 2.6541255e-01 2.2542279e-01 2.3952136e-01 2.5306843e-01 2.4670511e-01 2.5701574e-01 2.6684423e-01 2.8421916e-01 2.8404356e-01 2.6340595e-01 2.6419475e-01 2.7400607e-01 2.7092510e-01 2.7164510e-01 3.5352774e-01 4.0592878e-01 4.2723694e-01 3.1020294e-01 2.5689328e-01 2.4304337e-01 2.4001439e-01 1.3798377e-01 1.4586400e+00 6.5309382e-01 2.2340186e-01 3.4554203e-01 2.4050738e-01 3.4014069e-01 3.1239077e-01 3.9017353e-01 3.8989183e-01 4.8301392e-01 5.5028490e-01 6.5809351e-01 6.0003759e-01 4.6490876e-01 3.2649358e-01 3.1109473e-01 2.7820418e-01 2.9503847e-01 2.8430858e-01 2.9971689e-01 2.9930365e-01 3.1462628e-01 2.9333348e-01 3.0565309e-01 2.9304692e-01 3.1151391e-01 2.8272686e-01 2.9221180e-01 2.9518684e-01 2.8845235e-01 3.4188184e-01 3.8703860e-01 4.2503343e-01 4.0749021e-01 3.3430913e-01 2.8590801e-01 2.8629529e-01 2.1989440e-01 3.3259408e-01 1.5526421e+00 4.7818973e-01 3.4899332e-01 3.3847212e-01 3.3672170e-01 3.5211752e-01 3.8402928e-01 3.9982335e-01 4.7203449e-01 5.0274191e-01 6.2029823e-01 6.6600364e-01 6.5404677e-01 4.6616516e-01 3.5052744e-01 3.0886918e-01 3.0415598e-01 2.7534508e-01 3.1835075e-01 2.7586315e-01 3.2075568e-01 2.9399440e-01 3.0854791e-01 2.9509510e-01 3.1677353e-01 2.7074053e-01 2.9525307e-01 2.6953287e-01 3.0204335e-01 2.7064082e-01 3.8634401e-01 3.7275893e-01 4.3995487e-01 2.8511024e-01 3.0443888e-01 2.1223709e-01 3.1377171e-01 4.3131421e-02 1.3652170e+00 7.8307487e-01 2.0204309e-01 3.7080176e-01 2.3807748e-01 3.5330270e-01 2.9554416e-01 3.9828250e-01 3.7096561e-01 4.8206907e-01 5.3338640e-01 6.6268815e-01 6.2792840e-01 5.1635226e-01 3.1041968e-01 2.8610305e-01 2.2351315e-01 2.6297550e-01 2.2387301e-01 2.7564224e-01 2.3108415e-01 2.8033650e-01 2.4683770e-01 2.7269697e-01 2.4731037e-01 2.5948779e-01 2.3123526e-01 2.6595090e-01 2.4313616e-01 3.7862331e-01 3.5829973e-01 3.9333398e-01 2.6570463e-01 2.9774033e-01 1.7612919e-01 2.9371991e-01 2.4748893e-02 1.4035304e+00 7.6767783e-01 1.9447530e-01 3.4664991e-01 2.3914792e-01 3.5285472e-01 2.9164737e-01 3.9964127e-01 3.6791643e-01 4.9727679e-01 5.5237416e-01 6.5635134e-01 6.7582016e-01 5.0319079e-01 3.4199498e-01 2.8020757e-01 2.7059722e-01 2.7137231e-01 2.5618150e-01 2.7914898e-01 2.6545783e-01 2.9207337e-01 2.7394555e-01 2.8589032e-01 2.7895384e-01 2.6773414e-01 2.8572968e-01 2.5559723e-01 2.9101302e-01 2.5787701e-01 3.7613929e-01 3.6915571e-01 4.3476798e-01 3.2148547e-01 3.1481214e-01 2.0690202e-01 3.3838819e-01 2.4921704e-02 9.9315053e-01 1.2453685e+00 1.5465811e-01 4.3529515e-01 2.1010013e-01 3.7891798e-01 2.7381715e-01 4.1726613e-01 3.4317843e-01 4.8978125e-01 5.1347696e-01 6.6187745e-01 6.6805788e-01 6.0426268e-01 3.5060850e-01 3.3517904e-01 2.3917855e-01 2.9758130e-01 2.2020188e-01 3.0432516e-01 2.3016136e-01 3.0386610e-01 2.2513923e-01 3.0271503e-01 2.4118126e-01 2.8784007e-01 2.1247476e-01 2.6235964e-01 2.1613852e-01 2.6811541e-01 2.3217564e-01 3.6195505e-01 3.2831479e-01 3.8954479e-01 2.1995716e-01 2.7775666e-01 1.4156900e-01 2.5144583e-01 5.2389972e-03 1.4037251e+00 6.8954052e-01 1.5766745e-01 2.7480045e-01 1.9477755e-01 2.6016049e-01 2.4657187e-01 2.9206310e-01 3.1946591e-01 3.7686385e-01 4.8505961e-01 5.7544424e-01 6.0169696e-01 4.2079899e-01 2.5384785e-01 1.7667059e-01 1.8181307e-01 1.3919354e-01 1.7898466e-01 1.3938069e-01 1.6855312e-01 1.5730048e-01 1.6672920e-01 1.4345236e-01 1.7974808e-01 1.1164478e-01 1.6773213e-01 9.6711923e-02 2.2278640e-01 2.2458933e-01 2.9096518e-01 1.8981729e-01 1.8029409e-01 5.3087854e-02 1.9517145e-01 -8.7955691e-02 4.1764250e-01 1.3368011e+00 9.8132875e-02 2.1943252e-01 8.4113457e-02 1.9182776e-01 1.4693406e-01 2.0657496e-01 2.1579840e-01 2.8331917e-01 3.5925417e-01 4.7618701e-01 5.2922983e-01 5.2120093e-01 2.7490286e-01 1.9113744e-01 1.3077346e-01 1.4607448e-01 1.1781227e-01 1.4163764e-01 1.3800541e-01 1.3769653e-01 1.4518888e-01 1.5261987e-01 1.3475864e-01 1.5069105e-01 1.1937178e-01 1.7053589e-01 2.4436430e-01 2.8132397e-01 2.3628844e-01 1.6515036e-01 9.2733571e-02 1.2595856e-01 3.8087090e-02 1.3524389e-01 1.4001630e+00 3.3560072e-01 1.6629291e-01 1.3815795e-01 1.6813142e-01 1.7185764e-01 2.0791533e-01 2.3664347e-01 2.7008908e-01 3.5989388e-01 4.6914063e-01 5.4704820e-01 5.3655395e-01 3.1656010e-01 2.1305835e-01 1.3791325e-01 1.5925754e-01 1.2388934e-01 1.6201393e-01 1.3530510e-01 1.6138644e-01 1.3928051e-01 1.7143169e-01 1.3170710e-01 1.7034239e-01 1.1573602e-01 2.6458718e-01 2.4756908e-01 3.1817273e-01 1.5791384e-01 2.2250485e-01 4.3304125e-02 2.2903832e-01 -1.5102002e-01 9.2045619e-01 1.0979776e+00 2.0343272e-02 2.9625065e-01 7.4754919e-02 2.6218587e-01 1.5879598e-01 2.7977950e-01 2.0187304e-01 3.7928124e-01 3.7881790e-01 5.7212282e-01 5.4111906e-01 4.8126378e-01 2.2371843e-01 2.2140601e-01 1.4034164e-01 1.7924025e-01 1.3991127e-01 1.8620187e-01 1.4958735e-01 1.9710825e-01 1.5069741e-01 1.9919389e-01 1.3931704e-01 2.0046343e-01 1.4134340e-01 2.0403106e-01 1.4700026e-01 2.6818581e-01 2.7176198e-01 3.4215861e-01 2.1167746e-01 2.3018983e-01 7.9664572e-02 2.7931231e-01 -1.0233242e-01 7.6020266e-01 1.2563952e+00 9.5699366e-02 3.1566558e-01 1.1104580e-01 2.6850430e-01 1.9259273e-01 2.9263261e-01 2.5512252e-01 3.5451350e-01 4.2083203e-01 5.3849845e-01 5.5180346e-01 5.3434451e-01 3.0878354e-01 2.4113843e-01 1.6942689e-01 1.8546890e-01 1.8989940e-01 2.1222183e-01 1.7822544e-01 1.8821966e-01 1.8334306e-01 2.1573606e-01 1.7291137e-01 1.8288568e-01 1.4428039e-01 2.0680514e-01 1.4525635e-01 2.5053509e-01 2.5519661e-01 3.2504528e-01 2.3213747e-01 2.3655799e-01 1.0439944e-01 2.1783973e-01 -1.8094089e-02 3.8557025e-01 1.4296569e+00 2.0738407e-01 2.2678229e-01 1.6249348e-01 2.0906632e-01 2.0277729e-01 2.4348672e-01 2.5574730e-01 3.1794687e-01 3.8581799e-01 5.0148672e-01 5.6882335e-01 5.4129458e-01 3.3388778e-01 2.2440011e-01 1.7402580e-01 1.6038250e-01 1.5737996e-01 1.6824181e-01 1.6831022e-01 1.5283646e-01 1.8410490e-01 1.7240396e-01 1.7972035e-01 1.5691698e-01 2.7057412e-01 2.6163308e-01 3.4126648e-01 1.6079719e-01 2.0446756e-01 6.1027268e-02 2.1843803e-01 -1.5147888e-01 1.1026237e+00 9.1969481e-01 7.4430385e-04 2.8411078e-01 7.1765092e-02 2.7592813e-01 1.3564226e-01 2.9219196e-01 2.1479397e-01 3.9264839e-01 3.9446089e-01 5.6865353e-01 5.2441528e-01 4.7124585e-01 2.0624601e-01 2.0817083e-01 1.1913157e-01 1.9249853e-01 1.0840125e-01 1.9634938e-01 1.1662809e-01 2.0708789e-01 1.2312932e-01 1.9894724e-01 1.0151193e-01 2.5095426e-01 2.1830455e-01 3.8184561e-01 2.0005964e-01 2.2490533e-01 3.1200081e-02 2.3592003e-01 -1.3949834e-01 6.3686245e-01 1.2579701e+00 8.2602344e-02 2.2401932e-01 1.2411555e-01 1.9522246e-01 1.6534654e-01 2.3098109e-01 2.5172504e-01 3.0940935e-01 3.7077502e-01 4.9719075e-01 5.6276024e-01 4.6230808e-01 2.8020392e-01 1.6960589e-01 1.6107790e-01 1.4152235e-01 1.4238162e-01 1.4157974e-01 1.6200376e-01 1.6053038e-01 1.6058007e-01 1.3982415e-01 1.5953435e-01 1.3881709e-01 2.0750846e-01 2.5483765e-01 3.2892092e-01 2.4658220e-01 2.0077296e-01 7.6223617e-02 1.8085332e-01 -2.9214225e-02 3.6497621e-01 1.3855304e+00 1.8341612e-01 2.0965928e-01 1.3077414e-01 1.9213403e-01 1.8854590e-01 2.1307241e-01 2.5228571e-01 3.0826093e-01 3.7361066e-01 4.6645365e-01 5.5597225e-01 4.9259236e-01 3.2452081e-01 1.9717722e-01 1.6453067e-01 1.6067869e-01 1.7331483e-01 1.7446277e-01 1.6357266e-01 1.6812492e-01 1.8877278e-01 1.6162433e-01 1.8811837e-01 1.3956755e-01 1.8856917e-01 1.2544565e-01 2.6443108e-01 2.4625776e-01 3.6181841e-01 2.0000149e-01 2.1591323e-01 6.9728885e-02 2.4687492e-01 -1.1485504e-01 7.6035300e-01 1.2248618e+00 5.6636522e-02 2.9051750e-01 1.0265736e-01 2.5289023e-01 1.7202183e-01 2.7699628e-01 2.5614099e-01 3.4437923e-01 3.9448859e-01 5.1632618e-01 5.3766648e-01 4.7945595e-01 2.7151937e-01 2.2716995e-01 1.5316291e-01 1.7032558e-01 1.6919705e-01 1.8411466e-01 1.5935372e-01 1.8146882e-01 1.7185639e-01 1.6581070e-01 1.5496033e-01 1.5063166e-01 1.4866114e-01 1.3918153e-01 1.9151493e-01 2.5503908e-01 3.0778460e-01 2.0286384e-01 1.7531611e-01 6.3140848e-02 1.8048077e-01 -1.2880985e-01 5.9639550e-01 1.2773176e+00 -3.5164084e-03 2.5890041e-01 2.2772836e-02 2.1870229e-01 7.5756848e-02 2.3681631e-01 1.3986328e-01 3.2338482e-01 2.8747865e-01 4.6572316e-01 4.5248183e-01 4.5159167e-01 1.9599912e-01 1.4529576e-01 5.6701521e-02 1.3024692e-01 2.1828391e-02 1.2598787e-01 4.2760211e-02 1.3574661e-01 4.7504307e-02 1.2245001e-01 4.0788810e-02 1.7204413e-01 1.5906022e-01 2.8665101e-01 1.1640289e-01 1.5343644e-01 -4.1786968e-02 1.5884866e-01 -1.9839161e-01 5.3368878e-01 1.1881112e+00 -7.0396219e-03 1.6880669e-01 3.4309676e-02 1.3717587e-01 9.4782650e-02 1.5623308e-01 1.7894447e-01 2.4595144e-01 3.0662274e-01 4.2036651e-01 4.8073449e-01 3.9158028e-01 2.1194188e-01 9.8708221e-02 9.2042096e-02 5.4009802e-02 8.4373215e-02 6.5835769e-02 9.6699837e-02 6.2192338e-02 1.0570494e-01 6.1500649e-02 8.9768023e-02 5.6509296e-02 1.6975666e-01 1.7635020e-01 2.8065033e-01 8.9765229e-02 1.1326444e-01 -3.6082302e-02 1.4195252e-01 -2.4757961e-01 8.5058031e-01 9.5997551e-01 -7.6399373e-02 1.8459516e-01 -2.6340056e-02 1.5718885e-01 3.9679352e-02 1.9471370e-01 1.0269603e-01 2.5833844e-01 2.6538763e-01 4.4174053e-01 4.0445704e-01 3.5719731e-01 1.0375440e-01 1.1258173e-01 1.3137164e-02 8.7619224e-02 1.0233591e-02 7.4773328e-02 3.2402748e-02 8.6670534e-02 2.8934644e-02 9.0205846e-02 -2.9560109e-03 1.4261053e-01 1.4830796e-01 2.5382959e-01 9.6460243e-02 9.8625670e-02 -5.6122098e-02 1.1441053e-01 -2.2389744e-01 5.1852229e-01 1.1471412e+00 -1.6646325e-02 1.3547483e-01 7.1075873e-04 9.1519118e-02 4.5469132e-02 1.4853323e-01 1.1503435e-01 1.9403420e-01 2.5947449e-01 3.7631357e-01 4.1203103e-01 3.4334822e-01 1.5055124e-01 6.8525565e-02 2.8694771e-02 3.7161695e-02 1.5890460e-02 4.5189350e-02 2.8785668e-02 4.8797219e-02 1.7718385e-02 4.2995729e-02 2.6595882e-02 3.2417707e-02 1.7552275e-02 3.3522932e-02 1.1993691e-01 1.7863560e-01 1.6039160e-01 5.5527940e-02 8.1381027e-03 -2.0553594e-02 -1.8195873e-02 -1.0670396e-01 1.2318004e+00 3.6085583e-01 -3.3014350e-02 7.7291475e-02 -1.2237062e-03 6.7478133e-02 4.3785501e-02 1.1438907e-01 1.2030881e-01 2.1624776e-01 2.7752620e-01 3.6471956e-01 3.2879258e-01 2.2656314e-01 5.7301703e-02 3.6417968e-02 -1.8310993e-02 9.9235100e-04 -9.4313983e-04 2.9790127e-02 -1.3103207e-03 2.5983217e-02 -7.7581179e-03 2.0532433e-02 -1.2466025e-02 1.1611151e-02 -2.3657299e-02 1.1371695e-02 -2.7568647e-02 1.0616757e-01 1.1041019e-01 1.5858414e-01 7.8822197e-03 6.5257063e-03 -7.1430531e-02 1.6975498e-04 -2.0638135e-01 1.1725043e+00 4.0242902e-01 -5.5126763e-02 2.5678804e-02 -3.8853500e-02 8.3367461e-03 8.8029065e-03 5.7721641e-02 7.4594550e-02 1.4383959e-01 2.2685873e-01 3.2035321e-01 2.9945747e-01 1.7773071e-01 1.3381678e-02 -3.5162545e-02 -4.8721063e-02 -7.3557844e-02 -4.4320133e-02 -6.1587049e-02 -1.8638230e-02 -7.5011732e-02 -2.5865070e-02 -5.9517558e-02 4.6343276e-02 5.6822767e-02 1.4054069e-01 -2.4648663e-02 -1.9586610e-02 -1.5422118e-01 -6.0966783e-03 -3.3976934e-01 9.3554112e-01 6.4040019e-01 -2.1616204e-01 6.0618960e-02 -1.2005559e-01 3.7140461e-02 -5.5139424e-02 7.5497028e-02 7.6785016e-03 1.8495397e-01 1.9021520e-01 3.3008119e-01 3.2900300e-01 2.2745467e-01 -4.4612309e-03 -2.2084842e-02 -8.0670994e-02 -3.1163062e-02 -8.6852853e-02 -2.5031111e-02 -8.7679514e-02 -5.2007783e-03 -6.4291500e-02 7.0745748e-02 6.5185015e-02 1.6601415e-01 -4.7947673e-02 4.0547723e-03 -1.6075945e-01 1.5583917e-03 -2.9089541e-01 1.0625080e+00 5.3484739e-01 -1.7101217e-01 6.7902820e-02 -9.7567185e-02 3.6876166e-02 -3.2613279e-02 7.0154737e-02 5.1864835e-02 1.7482416e-01 2.2530904e-01 3.3245693e-01 3.1184747e-01 1.9587706e-01 1.5611085e-02 2.1892572e-03 -6.4491026e-02 -2.0606043e-03 -5.9733934e-02 1.0664022e-02 -3.1636133e-02 8.1139696e-04 -2.4059805e-02 1.0086882e-01 9.8875986e-02 1.7580130e-01 -1.2882539e-02 4.4331192e-03 -1.0889160e-01 -1.4740282e-02 -2.5087324e-01 1.0660497e+00 5.4407022e-01 -1.3907872e-01 7.2158847e-02 -8.9385912e-02 5.5871963e-02 -2.5131341e-02 8.1474812e-02 4.5367116e-02 1.7964348e-01 2.1098236e-01 3.3488624e-01 2.8807838e-01 1.8567596e-01 -5.7693067e-03 -2.5925181e-03 -6.7270567e-02 -2.1758967e-02 -6.1211785e-02 -1.3326104e-02 -5.7621268e-02 -4.7154868e-03 -8.2882095e-02 -2.9625878e-03 -6.8658655e-02 6.4873890e-02 7.3419965e-02 1.4604004e-01 -4.0058234e-02 -9.8573466e-03 -1.5798558e-01 3.4456927e-03 -3.4725060e-01 9.5494650e-01 6.4116117e-01 -1.7011673e-01 5.7986189e-02 -1.1819244e-01 3.2271682e-02 -3.2630408e-02 5.5538680e-02 2.1693177e-02 1.4595840e-01 1.7492935e-01 3.0035666e-01 2.6256220e-01 1.8898140e-01 -6.6611432e-04 -2.5529900e-02 -7.3986766e-02 -5.0709732e-02 -5.3998028e-02 -3.2063603e-02 -5.6352756e-02 -3.8755773e-02 -5.3073913e-02 -5.4729242e-02 -5.8429690e-02 -5.2237527e-02 -8.9608856e-02 -6.6929522e-02 -8.3718413e-02 -1.0726750e-02 1.0928412e-02 9.4346048e-02 3.6634814e-02 -2.4022029e-02 -8.6990652e-02 -6.7494824e-02 -1.6986605e-01 -3.5142769e-02 1.1996965e+00 1.2444725e-01 -4.9320915e-02 -5.3154467e-02 -4.4790240e-02 -3.1505853e-02 -9.1487180e-03 1.7427321e-02 5.4447143e-02 1.3241934e-01 2.2068894e-01 2.9344892e-01 2.7479035e-01 1.0775104e-01 -3.8037777e-03 -5.1259749e-02 -6.5482380e-02 -7.3076939e-02 -4.8447274e-02 -5.6046452e-02 -3.7314813e-02 -6.2323182e-02 -4.3736366e-02 -6.1826409e-02 -6.4317697e-02 -6.6688808e-02 2.4893110e-02 3.6542140e-02 1.1807601e-01 -5.4650620e-02 -3.9762790e-02 -1.5955829e-01 -4.2729939e-02 -3.3699911e-01 9.8333143e-01 4.8577643e-01 -1.9394130e-01 3.5818250e-02 -1.4599491e-01 1.6516491e-02 -9.2959345e-02 5.6438399e-02 5.3210607e-03 1.5064754e-01 1.3806294e-01 3.2218197e-01 2.7132771e-01 1.9165312e-01 -4.2127726e-02 -4.0540042e-02 -1.1009800e-01 -4.3542796e-02 -1.2115015e-01 -4.3390690e-02 -1.0846486e-01 -2.4282994e-02 -1.1034626e-01 1.1648371e-02 1.2738217e-02 1.2456441e-01 1.7480979e-02 -1.5819798e-02 -1.5830728e-01 -2.2342396e-02 -2.6246559e-01 1.6623756e-01 1.1595307e+00 -4.6590929e-02 1.3507166e-03 -7.6048981e-02 -2.6752507e-02 -4.4357110e-02 6.3366073e-03 4.7368243e-02 8.5623614e-02 1.5714740e-01 2.6125811e-01 3.3894960e-01 2.6751666e-01 7.8685534e-02 -3.0995592e-02 -4.4254011e-02 -6.3780185e-02 -6.0423998e-02 -7.4824776e-02 -4.2294705e-02 -4.8208634e-02 -2.6801296e-02 -6.6137134e-02 -1.7313511e-02 6.1813597e-02 1.0651933e-01 6.9361174e-02 -1.5209473e-02 -7.7614034e-02 -7.6612573e-02 -1.5281523e-01 -8.6169306e-02 1.1855706e+00 2.1822824e-01 -7.3085076e-02 -1.7575041e-03 -7.7688887e-02 -4.9594823e-03 -1.7953361e-02 5.0303555e-02 5.2733578e-02 1.5553514e-01 2.0103641e-01 3.2242767e-01 2.5614752e-01 1.1122482e-01 -3.5199936e-02 -3.9883140e-02 -9.2045982e-02 -5.3949202e-02 -9.2126868e-02 -4.8543302e-02 -7.0717416e-02 -4.8573055e-02 -8.1866621e-02 5.3135194e-02 6.0809541e-02 1.0525101e-01 -7.9049203e-02 -6.8660385e-02 -1.7737475e-01 -6.6828859e-02 -3.1503913e-01 1.0993823e+00 3.8258388e-01 -1.5859018e-01 -2.1997379e-02 -1.2270229e-01 -5.0484503e-02 -7.8415734e-02 -8.9685456e-03 1.4488193e-02 7.8244522e-02 1.6896527e-01 2.2244782e-01 2.4453133e-01 7.0348674e-02 -6.0002118e-02 -1.5775664e-01 -1.0131930e-01 -1.3218747e-01 -1.1525663e-01 -1.4563199e-01 -1.0934224e-01 -1.4918643e-01 -1.1448325e-01 -1.5026841e-01 -5.3881156e-02 -3.0662492e-02 5.0813510e-02 -1.2999120e-01 -7.6353603e-02 -2.6256359e-01 -6.6969907e-02 -4.5721437e-01 7.1748551e-01 7.2129233e-01 -2.8749010e-01 -2.1260980e-02 -2.3091114e-01 -6.9747110e-02 -1.6387324e-01 -4.2228098e-02 -7.7871401e-02 3.5618760e-02 6.3233300e-02 2.0518293e-01 1.8712013e-01 8.4675402e-02 -9.8167961e-02 -1.3251394e-01 -1.7056749e-01 -1.6177824e-01 -1.6821556e-01 -1.8432378e-01 -1.3127292e-01 -1.6093144e-01 -9.4940268e-02 -4.7653888e-02 2.1395634e-02 -7.7025843e-02 -1.1995494e-01 -2.5182166e-01 -1.2998135e-01 -3.9686329e-01 2.8280426e-01 1.0502075e+00 -2.7853818e-01 -4.0152359e-02 -2.3677639e-01 -6.9222331e-02 -1.8028247e-01 -5.8241662e-02 -8.9015171e-02 2.9964733e-02 2.0495787e-02 2.0706098e-01 1.7992842e-01 1.5575007e-01 -9.5845513e-02 -1.0732700e-01 -1.8451788e-01 -1.3312641e-01 -1.8705798e-01 -1.0982113e-01 -1.9293769e-01 -1.0276470e-01 -1.6917899e-01 -3.4947191e-03 -3.6114745e-02 6.1615563e-02 -1.6229324e-01 -9.6263523e-02 -2.5152933e-01 -9.3886290e-02 -4.0611957e-01 1.0112672e+00 3.8992094e-01 -2.1988138e-01 -6.9466354e-02 -1.7392185e-01 -8.6249155e-02 -9.7084390e-02 -6.3636643e-02 -1.2861420e-02 4.4783112e-02 1.3175687e-01 2.1958380e-01 2.2077935e-01 5.3583201e-02 -6.4940350e-02 -1.2022494e-01 -1.2043516e-01 -1.3939012e-01 -1.2046881e-01 -1.1975360e-01 -9.6008520e-02 -1.2974580e-01 -9.7989095e-02 -1.3124337e-01 -1.9123041e-02 6.8113857e-03 7.8203624e-02 -7.2032471e-02 -5.6504589e-02 -2.2075762e-01 -3.2512045e-02 -3.9033739e-01 5.1023610e-01 9.5030629e-01 -2.1792603e-01 2.2917114e-02 -1.6519260e-01 -2.2021237e-02 -9.2988610e-02 1.7049424e-02 -3.8855405e-02 1.1102187e-01 9.1822469e-02 2.7525579e-01 2.3919054e-01 1.9952570e-01 -3.8348050e-03 -3.1410974e-02 -1.1462282e-01 -4.7634890e-02 -9.3082018e-02 -1.4719537e-02 -9.8320701e-02 -1.3446190e-02 -9.5166367e-02 -8.7140624e-03 -9.7735074e-02 -2.4362974e-02 -1.0236372e-01 3.3898672e-02 1.3897531e-02 1.7052055e-01 -1.3341324e-02 2.6050868e-02 -1.5854348e-01 2.9589583e-02 -3.1643594e-01 4.1910785e-01 1.0958139e+00 -9.2531698e-02 4.7204124e-02 -6.9530850e-02 7.5182085e-03 -1.9013319e-02 3.6378004e-02 3.4423730e-02 1.1934045e-01 1.7259595e-01 2.4986776e-01 3.1136665e-01 2.5502616e-01 8.4562792e-02 -2.1317103e-02 -1.0080365e-02 -4.8827763e-02 -1.6937735e-02 -3.4055407e-02 -1.3434463e-02 -1.5627260e-02 -1.8887339e-02 -3.3168058e-02 -6.5697054e-03 -5.4836943e-02 8.4840027e-02 8.5219069e-02 1.5762259e-01 -2.4054220e-02 3.0023422e-02 -1.3183569e-01 3.3902963e-02 -3.2513190e-01 9.1140069e-01 7.5091174e-01 -1.5730735e-01 8.8010838e-02 -7.9584126e-02 3.5750634e-02 -2.6644336e-02 8.1070655e-02 4.8483583e-02 1.6762420e-01 1.8550371e-01 3.2357156e-01 3.0458024e-01 1.9680246e-01 1.0446203e-02 -3.2683543e-02 -6.2615867e-02 -5.5056160e-02 -7.2218569e-02 -5.1700454e-02 -6.6001330e-02 -5.2818556e-02 -6.7958877e-02 -7.1462117e-02 3.5518467e-02 4.8847432e-02 9.5937905e-02 -6.9898312e-02 -5.9448441e-02 -1.5534849e-01 -8.4578460e-02 -3.1630935e-01 1.0404421e+00 3.9602384e-01 -2.0453160e-01 -1.0225169e-02 -1.6404291e-01 -2.0779630e-02 -9.9320606e-02 1.5130616e-02 -2.2473140e-02 1.0139576e-01 1.6271420e-01 2.6454840e-01 2.2602185e-01 1.0487988e-01 -8.5552247e-02 -8.1758794e-02 -1.4087892e-01 -1.1618526e-01 -1.2059157e-01 -1.2011609e-01 -1.1225360e-01 -1.1528396e-01 -3.9578683e-02 -5.7682006e-03 6.5326802e-02 -4.8122546e-02 -9.2242528e-02 -2.0549210e-01 -8.2382063e-02 -3.8604254e-01 4.8157003e-01 9.6291954e-01 -2.8482601e-01 2.3003259e-02 -2.1214342e-01 -2.3988587e-02 -1.5362804e-01 3.2111437e-03 -8.2652005e-02 8.3319122e-02 6.2128442e-02 2.5854014e-01 1.9909182e-01 1.7424386e-01 -6.6639704e-02 -5.6709341e-02 -1.6136337e-01 -8.1306634e-02 -1.7524168e-01 -6.2312692e-02 -1.3850495e-01 -6.9360908e-02 -1.5923888e-01 -5.1425764e-02 -3.3780315e-03 8.4656381e-02 -4.1323714e-03 -6.6977461e-02 -1.6624140e-01 -7.2447993e-02 -2.4828001e-01 -9.0487045e-03 1.1223651e+00 7.0876549e-02 -8.7568801e-02 -6.3656074e-02 -9.8642138e-02 -1.9178893e-02 -4.7614445e-02 2.0309439e-02 3.7959433e-02 1.4479739e-01 2.0077130e-01 2.9389508e-01 2.1929915e-01 9.3784170e-02 -4.9478244e-02 -4.2482940e-02 -8.9557569e-02 -3.3553514e-02 -7.7574807e-02 -3.0606339e-02 -7.0732224e-02 -3.6456840e-02 -5.2185124e-02 -4.4694793e-02 -5.4865041e-02 7.4055056e-02 8.5696034e-02 1.0226581e-01 -4.0120375e-02 -7.1231998e-02 -9.0491703e-02 -1.1290377e-01 -1.1860618e-01 1.1917685e+00 1.9205183e-01 -2.9230205e-02 -4.0591306e-02 -1.8421460e-02 -4.4074669e-02 3.1399964e-02 1.9474010e-02 9.1427067e-02 1.3441496e-01 2.3305107e-01 2.8634137e-01 2.9868112e-01 9.1449144e-02 2.6910976e-02 -5.3630430e-02 -1.2987745e-02 -6.0611221e-02 -1.0347398e-02 -6.3169691e-02 9.3831931e-03 -6.3434856e-02 -2.5937558e-03 -4.7334271e-02 -2.2690598e-02 -6.5381817e-02 -1.6703608e-02 -5.8625802e-02 7.6439797e-02 6.1342384e-02 1.5498871e-01 -2.1581290e-02 2.5318787e-02 -1.4364110e-01 3.9037605e-02 -3.0203409e-01 9.9800557e-01 6.2118123e-01 -1.1357240e-01 7.2648733e-02 -7.0302430e-02 5.7385601e-02 -1.2106159e-02 7.5691676e-02 6.6048972e-02 1.6941039e-01 2.0682231e-01 3.0605625e-01 3.0882410e-01 2.3073152e-01 4.3231315e-02 6.7816843e-03 -2.8459849e-02 -1.0521802e-02 -2.0969548e-02 8.2887529e-04 -6.2256876e-03 -9.0263486e-03 -2.9590074e-02 -1.2875759e-03 -4.7723958e-02 -8.4258364e-03 -5.0087250e-02 -2.9862959e-02 -4.3411531e-02 5.3949008e-02 8.1409723e-02 1.1488419e-01 -2.5840998e-02 -1.5902673e-02 -1.0685069e-01 9.3170896e-03 -3.0889797e-01 9.3958503e-01 6.9987599e-01 -1.7114998e-01 9.6526207e-02 -1.0793014e-01 7.1036696e-02 -4.4429935e-02 8.2662540e-02 3.4731548e-02 1.6995515e-01 1.8216589e-01 3.3898528e-01 2.8001942e-01 2.3469048e-01 1.9199779e-02 1.2263550e-02 -8.0863409e-02 9.7677884e-03 -7.9721132e-02 1.4269013e-02 -7.2571349e-02 2.6123272e-02 -9.6041726e-02 2.0319263e-02 -9.4231883e-02 5.2625984e-02 5.5612042e-03 1.6396763e-01 -1.2817571e-02 3.6348861e-02 -1.5943881e-01 3.9231981e-02 -3.0742771e-01 3.5602304e-01 1.0663695e+00 -1.2513247e-01 4.5573869e-02 -7.6994870e-02 -1.9436770e-02 -3.4057225e-02 1.6444919e-02 5.7250042e-02 8.1668258e-02 1.7833919e-01 2.5653302e-01 3.5200780e-01 2.3481893e-01 7.0402178e-02 -5.1829451e-02 -6.1979530e-02 -8.8650627e-02 -5.8290735e-02 -1.0950115e-01 -5.5084101e-02 -7.7186227e-02 5.3511731e-02 5.5579907e-02 1.0811440e-01 -5.4776748e-02 -7.4864308e-02 -1.5013798e-01 -8.9825219e-02 -2.5491542e-01 1.1947624e+00 2.6975827e-01 -1.3776504e-01 -3.8568842e-02 -1.0858865e-01 -5.1258681e-02 -3.0376442e-02 -1.4051589e-02 4.3273205e-02 9.8776055e-02 2.0361637e-01 2.7195199e-01 2.6475034e-01 6.6816936e-02 -2.8091648e-02 -1.2736269e-01 -7.3171219e-02 -1.4208823e-01 -8.1469024e-02 -1.3796570e-01 -8.9538813e-03 -1.5266623e-02 1.2673991e-01 -4.0924143e-02 -3.7298027e-02 -2.1263426e-01 -4.8554715e-02 -3.8340631e-01 3.6370707e-01 1.0642259e+00 -2.2141537e-01 -1.3420090e-02 -1.9458967e-01 -4.4919047e-02 -1.3203774e-01 -4.4400112e-02 -3.9192766e-02 3.3980336e-02 6.7884996e-02 2.0712252e-01 2.2721444e-01 1.3429440e-01 -4.7619302e-02 -1.0201653e-01 -1.4232775e-01 -1.2262024e-01 -1.4834227e-01 -1.1324505e-01 -1.3039490e-01 -1.0262253e-01 -3.9307766e-04 4.0780602e-02 -1.4800318e-03 -1.0489160e-01 -1.8631755e-01 -1.3321205e-01 -2.7329917e-01 -7.8870724e-02 1.1840432e+00 7.0845006e-04 -1.1287462e-01 -1.3954288e-01 -1.2187820e-01 -1.2042049e-01 -7.0309659e-02 -6.2460829e-02 1.7490254e-02 3.1443364e-02 1.5994190e-01 1.8901280e-01 1.6906369e-01 -1.1167530e-02 -8.6994840e-02 -1.5323812e-01 -1.0816211e-01 -1.6260606e-01 -7.6299840e-02 -1.4983862e-01 -6.6383800e-02 -1.5170416e-01 -1.8932279e-02 -1.3109290e-02 1.0412069e-01 -8.5479541e-02 -5.5287048e-02 -2.3733188e-01 -3.7865543e-02 -4.1589582e-01 5.0330331e-01 9.7435727e-01 -2.1726271e-01 5.1333782e-03 -1.6775661e-01 -4.1806878e-02 -9.6345053e-02 -1.1340342e-02 -3.2936133e-02 5.1500657e-02 9.9941947e-02 1.9883221e-01 2.2268791e-01 1.3256894e-01 -4.1829980e-02 -8.2641487e-02 -1.1280003e-01 -1.0920084e-01 -1.1325577e-01 -1.1144013e-01 -9.1309997e-02 -1.1041397e-01 -1.0207555e-01 -1.3803741e-01 -1.0741973e-01 -1.1969281e-01 -2.4095934e-02 4.6184229e-03 5.6429532e-02 -9.4023501e-02 -8.7322234e-02 -2.2941938e-01 -7.0386828e-02 -4.2704342e-01 9.1618726e-01 5.4032835e-01 -2.2466189e-01 -2.8194616e-02 -1.8376500e-01 -4.1158025e-02 -1.1223981e-01 -2.6184167e-03 -4.3567402e-02 7.3964738e-02 8.7564952e-02 2.1823737e-01 2.0088215e-01 1.1304471e-01 -7.3402489e-02 -9.6794621e-02 -1.2090599e-01 -1.0851109e-01 -1.2768266e-01 -9.8660427e-02 -1.2069867e-01 -1.1052287e-01 -1.0051626e-01 -1.1698839e-01 -3.0462279e-02 -2.2022475e-04 5.4817316e-02 -9.4668345e-02 -1.0836396e-01 -2.0696052e-01 -1.1530563e-01 -3.6091956e-01 9.8465689e-01 3.8810543e-01 -2.4635912e-01 -2.8507759e-02 -1.9861877e-01 -5.5496461e-02 -1.2669726e-01 -1.6348332e-02 -4.5694581e-02 7.2038488e-02 1.0626699e-01 2.3735598e-01 1.7184305e-01 7.2853795e-02 -1.0789621e-01 -1.0222555e-01 -1.6045600e-01 -1.2287579e-01 -1.5835152e-01 -1.0748895e-01 -1.4468470e-01 -1.1835375e-01 -9.0378874e-02 -5.4789353e-03 3.6684888e-02 -4.5383497e-03 -1.0833906e-01 -1.6587371e-01 -1.2380639e-01 -2.5158600e-01 -9.9894735e-03 1.1516671e+00 -7.8889135e-02 -5.0971527e-02 -1.5938534e-01 -7.4710319e-02 -1.1787993e-01 -2.0698663e-02 -6.3342440e-02 5.1573580e-02 5.3786130e-02 2.1303617e-01 2.0249155e-01 2.0535377e-01 -1.7343363e-02 -6.2474192e-02 -1.2982789e-01 -8.3326131e-02 -1.4440902e-01 -6.9553712e-02 -1.3991176e-01 -5.3072981e-02 -1.2600502e-01 9.1397911e-03 -2.8955988e-03 1.1430552e-01 -8.2126392e-02 -3.2758070e-02 -2.2142459e-01 -1.8384962e-02 -4.0729903e-01 6.7098368e-01 8.2228377e-01 -2.2719585e-01 3.6776010e-02 -1.6323661e-01 -1.9415786e-03 -9.8087438e-02 3.3261568e-02 -3.1544865e-02 1.1382624e-01 1.0769716e-01 2.7832575e-01 2.0640437e-01 1.5672875e-01 -4.9874807e-02 -4.7700082e-02 -1.2056545e-01 -6.3548166e-02 -1.0825434e-01 -5.3892101e-02 -1.1571572e-01 -4.2930541e-02 -9.9515884e-02 4.1167828e-02 1.8420062e-02 1.3671936e-01 -5.8195680e-02 -2.9223312e-02 -2.0818186e-01 -6.9174566e-03 -3.8478224e-01 8.6417010e-01 6.9689575e-01 -2.0533498e-01 4.3613303e-02 -1.1820993e-01 -1.0410800e-03 -6.4598020e-02 3.9067456e-02 1.3744370e-02 1.2854572e-01 1.4898055e-01 2.7031172e-01 2.4879863e-01 1.5620351e-01 -3.2024514e-02 -2.4795419e-02 -9.0784409e-02 -4.5260694e-02 -7.1311385e-02 -5.7509081e-02 -5.0961766e-02 -6.0700573e-02 -2.7678775e-03 4.4503626e-02 9.9333903e-02 6.8377593e-02 -3.9643997e-02 -9.3775525e-02 -8.1546342e-02 -1.9774622e-01 2.3187601e-02 1.2142487e+00 4.5897488e-02 -2.0174463e-02 -8.8605084e-02 -2.5280912e-02 -7.1842729e-02 6.7279698e-03 -2.1361689e-02 7.3585316e-02 1.0305758e-01 2.0148067e-01 2.3755610e-01 1.8649012e-01 2.0427828e-02 -6.1388220e-02 -1.0381322e-01 -9.4049605e-02 -1.2087034e-01 -8.6113717e-02 -1.0932019e-01 -9.1194399e-02 -7.1993033e-02 -3.9583514e-03 3.5484765e-02 3.2022055e-02 -1.0152656e-01 -1.4655531e-01 -1.4999910e-01 -2.2409238e-01 -1.1375246e-01 1.1683920e+00 7.8294951e-03 -1.0544486e-01 -1.3059260e-01 -1.0902518e-01 -1.2759369e-01 -6.0443876e-02 -6.7260490e-02 5.2723609e-03 4.3609837e-02 1.5142203e-01 1.8016166e-01 1.5670088e-01 -5.2768456e-02 -9.8183897e-02 -1.8221100e-01 -1.3335613e-01 -1.9463736e-01 -1.3807680e-01 -1.7580767e-01 -5.0836807e-02 -7.5057630e-02 7.5267033e-02 -1.2971763e-01 -9.8424396e-02 -2.8390646e-01 -8.4043650e-02 -4.8543531e-01 5.4389010e-01 8.6209185e-01 -3.3379816e-01 -3.1700935e-02 -2.4853606e-01 -7.4453593e-02 -1.9445722e-01 -4.7462319e-02 -1.1538368e-01 3.7286603e-02 2.5432615e-02 1.6752148e-01 1.2572293e-01 7.7106918e-02 -1.2868678e-01 -1.1948814e-01 -1.9371727e-01 -1.3682445e-01 -1.9738506e-01 -1.1487474e-01 -1.7529755e-01 -3.1333109e-02 -3.2158403e-02 6.7375972e-02 -1.3318931e-01 -9.6009963e-02 -2.7081035e-01 -8.7736392e-02 -4.3974148e-01 9.1815703e-01 5.1893531e-01 -2.6173656e-01 -3.6197942e-02 -2.0091297e-01 -5.7226533e-02 -1.2631484e-01 -2.2972781e-02 -5.3633974e-02 5.9159468e-02 8.7432860e-02 1.9950553e-01 1.5695262e-01 4.7791211e-02 -9.1350193e-02 -1.0167156e-01 -1.3690513e-01 -1.0300773e-01 -1.2607576e-01 -1.0369530e-01 -1.1028221e-01 -8.1278452e-02 -8.7393102e-03 4.3457634e-02 5.8909630e-02 -7.6141454e-02 -1.1990099e-01 -1.6456150e-01 -1.4114242e-01 -2.5410937e-01 1.1130843e+00 3.0534816e-01 -1.6588557e-01 -4.0703189e-02 -1.4038996e-01 -4.6584921e-02 -8.1270050e-02 3.4167539e-03 -1.6800915e-02 9.5667256e-02 1.1670961e-01 2.3905304e-01 1.4968002e-01 6.1908365e-02 -1.0229541e-01 -8.2932939e-02 -1.4565345e-01 -6.8675075e-02 -1.4028550e-01 -8.1251899e-02 -1.3040884e-01 -8.1334162e-02 -1.4605035e-01 -5.2870008e-02 -3.2265856e-02 7.5355940e-02 -5.1108061e-02 -6.8909093e-02 -2.0800124e-01 -8.9938173e-02 -3.4150815e-01 1.5697391e-01 1.0864626e+00 -1.2321719e-01 -5.9168028e-02 -1.6453280e-01 -8.0400054e-02 -1.3488059e-01 -5.7526835e-02 -6.7412181e-02 7.6259715e-03 4.3629408e-02 1.2295173e-01 1.5878818e-01 1.0475580e-01 -6.8295524e-02 -1.2262466e-01 -1.7673156e-01 -1.3824446e-01 -1.7966575e-01 -1.4011131e-01 -1.8067273e-01 -1.4357920e-01 -1.8069029e-01 -9.2060016e-02 -8.0140335e-02 1.7342531e-02 -1.2707351e-01 -1.4330729e-01 -2.7992877e-01 -1.2654233e-01 -4.7636994e-01 4.9079301e-01 8.4127435e-01 -3.6056872e-01 -3.8947927e-02 -2.8861593e-01 -9.5402650e-02 -2.2934815e-01 -5.8879949e-02 -1.4651582e-01 8.3983760e-03 -1.7012885e-02 1.3681754e-01 8.6188432e-02 6.0173430e-02 -2.1479810e-01 -1.5831747e-01 -2.7630870e-01 -1.8730653e-01 -2.7325159e-01 -1.6640414e-01 -2.7475645e-01 -1.0802906e-01 -1.3507675e-01 -3.6254645e-03 -2.2481213e-01 -1.6814785e-01 -3.9264386e-01 -1.6888365e-01 -5.7856446e-01 7.2613653e-01 5.0070956e-01 -4.1477984e-01 -1.4491528e-01 -3.2544328e-01 -2.0464872e-01 -2.4647708e-01 -1.8121973e-01 -1.7713118e-01 -1.1318379e-01 -3.8554564e-02 2.5956058e-02 4.0941242e-02 -1.1858325e-01 -2.3128910e-01 -2.9812649e-01 -2.7043687e-01 -3.1292260e-01 -2.7900881e-01 -3.1306107e-01 -1.8500311e-01 -1.9016514e-01 -7.3001630e-02 -2.5449658e-01 -2.4248262e-01 -4.0907602e-01 -2.4065107e-01 -6.2181548e-01 5.2588728e-01 5.8532272e-01 -4.7350166e-01 -1.7299608e-01 -4.0187552e-01 -2.1727412e-01 -3.0261732e-01 -2.0200395e-01 -2.3103236e-01 -1.1677283e-01 -8.5145255e-02 3.1708492e-02 -1.5214432e-02 -1.0043130e-01 -2.4841359e-01 -2.8178941e-01 -3.1500407e-01 -2.9288209e-01 -2.8543878e-01 -2.9051725e-01 -2.5455654e-01 -1.3981552e-01 -9.0687522e-02 -1.4843944e-01 -2.5238431e-01 -3.3198200e-01 -2.5686870e-01 -4.4828557e-01 -1.1973657e-01 1.0360385e+00 -2.1030167e-01 -2.0056516e-01 -3.0368734e-01 -2.1744708e-01 -2.6781856e-01 -1.7031381e-01 -2.0870685e-01 -9.4233058e-02 -6.5405293e-02 4.1470547e-02 4.3375268e-02 6.4372180e-03 -1.5874886e-01 -2.1474919e-01 -2.5552024e-01 -2.1913146e-01 -2.4321425e-01 -2.1616311e-01 -2.3327590e-01 -1.9869195e-01 -1.1842205e-01 -7.2569849e-02 -5.8356417e-02 -1.9656523e-01 -2.2100370e-01 -2.9446752e-01 -2.3752545e-01 -4.3200534e-01 9.6934463e-01 3.0103940e-01 -3.1237877e-01 -1.4454008e-01 -2.7652138e-01 -1.3165494e-01 -2.0557522e-01 -9.9641849e-02 -1.4279331e-01 -5.5534962e-03 1.1459131e-02 1.1545499e-01 4.3399451e-02 -5.4121875e-02 -1.9848612e-01 -1.7516493e-01 -2.3798983e-01 -1.9745925e-01 -2.2665100e-01 -1.7271009e-01 -2.1947667e-01 -1.7750116e-01 -2.3628382e-01 -1.8704817e-01 -1.1051010e-01 -3.0029834e-02 -8.5005480e-02 -1.5794159e-01 -2.6546263e-01 -2.1510385e-01 -2.8936004e-01 -2.9270925e-01 1.0147359e+00 8.9716765e-02 -2.4169252e-01 -1.5101973e-01 -2.4604516e-01 -1.6015190e-01 -1.8712616e-01 -1.1283972e-01 -1.1507766e-01 -2.3227683e-02 9.0324439e-03 1.1609732e-01 4.0654510e-02 -6.3177318e-02 -2.1034739e-01 -1.9240221e-01 -2.4903605e-01 -2.0040040e-01 -2.3079061e-01 -1.8903704e-01 -2.5404195e-01 -1.8539302e-01 -2.5260314e-01 -1.7816680e-01 -1.4674388e-01 -5.0884757e-02 -1.3278926e-01 -1.7194956e-01 -3.1498833e-01 -2.0862350e-01 -3.7869577e-01 -1.4271465e-01 1.0013182e+00 -1.6876244e-01 -1.8477736e-01 -2.4031836e-01 -2.1497169e-01 -2.0517383e-01 -1.7746198e-01 -1.2673947e-01 -1.0846754e-01 -9.2758707e-03 4.3724567e-02 1.0094075e-01 4.5536965e-02 -1.1306056e-01 -1.9313852e-01 -2.4451540e-01 -2.2857390e-01 -2.3473135e-01 -2.1546226e-01 -2.1187097e-01 -1.9927963e-01 -2.3360643e-01 -1.6011903e-01 -1.1438749e-01 -2.3833041e-02 -1.2548293e-01 -1.8008536e-01 -2.8743857e-01 -1.6393724e-01 -4.3952687e-01 1.6986517e-01 9.8563876e-01 -3.0926680e-01 -7.4574970e-02 -2.8308565e-01 -1.0205127e-01 -2.1202048e-01 -9.4469504e-02 -1.2774253e-01 -7.6106023e-03 -5.7497085e-03 1.5136054e-01 1.1051715e-01 1.0887095e-01 -1.3377408e-01 -1.1326083e-01 -2.1464992e-01 -1.4089698e-01 -2.1717436e-01 -1.1228168e-01 -2.0120639e-01 -9.8786166e-02 -2.1849879e-01 -1.6266892e-02 -9.0352242e-02 9.3601706e-02 -1.2395360e-01 -7.3565692e-02 -2.7456641e-01 -2.1034438e-02 -4.7415992e-01 5.9435836e-01 8.0571746e-01 -2.2439539e-01 -1.8520599e-02 -1.7383507e-01 -4.8430182e-02 -1.0073953e-01 -3.0212485e-02 -1.7416784e-02 4.6980385e-02 1.4023878e-01 1.9161041e-01 2.3621065e-01 1.1018462e-01 -2.5251035e-02 -9.9999372e-02 -1.0241498e-01 -1.0885430e-01 -8.0715770e-02 -1.1485450e-01 -5.0241046e-02 -1.2184963e-01 -5.9320788e-02 -1.2406418e-01 1.4097698e-02 6.0788563e-03 1.2178879e-01 -7.8077146e-02 -4.0214220e-02 -2.1466266e-01 -5.1053361e-03 -4.0574727e-01 7.6580637e-01 7.2396824e-01 -2.1780566e-01 4.2079018e-02 -1.4608754e-01 -6.6507403e-03 -1.0530806e-01 2.1059747e-02 9.1794331e-03 1.0216722e-01 1.2966442e-01 2.3378039e-01 2.4716652e-01 1.3111184e-01 -2.7287293e-02 -8.5455092e-02 -7.1530343e-02 -7.0853268e-02 -6.2075842e-02 -9.1379628e-02 -4.9971000e-02 -7.6052225e-02 -5.6930185e-02 -7.8665046e-02 -4.0942725e-03 3.7222113e-02 1.2165533e-01 -1.7707018e-02 -3.0518559e-02 -1.6390996e-01 -1.1553180e-02 -3.8298366e-01 6.4621331e-01 8.8203467e-01 -1.8723913e-01 5.5072421e-02 -1.5107324e-01 1.9385060e-02 -8.1297219e-02 3.9682652e-02 -2.5208192e-02 1.3198780e-01 1.2326110e-01 2.6786985e-01 2.2100724e-01 1.7851497e-01 -2.7625416e-02 -4.6981825e-02 -1.2400572e-01 -7.0964785e-02 -8.4763701e-02 -6.6053118e-02 -8.4137134e-02 -6.7445913e-02 -9.4705629e-02 -4.4877961e-02 -1.4413214e-03 8.0714885e-02 5.0328037e-02 -3.6253546e-02 -1.0433809e-01 -1.0811485e-01 -1.5935846e-01 -1.6246556e-01 1.1457246e+00 1.6869304e-01 -1.1139101e-01 -4.5417069e-02 -9.7293394e-02 -1.3150743e-02 -4.7685284e-02 3.3608231e-02 1.6471031e-02 1.3950336e-01 1.9900284e-01 2.8909550e-01 2.1996803e-01 5.6319624e-02 -3.8623058e-02 -8.0839635e-02 -8.6628053e-02 -9.3586611e-02 -7.8303819e-02 -8.7610391e-02 -5.6298571e-02 -9.0066198e-02 -3.8325901e-02 2.9063339e-02 8.3035896e-02 4.1773898e-02 -5.7673252e-02 -1.2772611e-01 -6.7839167e-02 -2.5611092e-01 1.2811747e-01 1.1727418e+00 -1.0545257e-01 1.7578168e-02 -1.3146276e-01 -2.1269645e-02 -8.7194965e-02 1.5230122e-02 -7.3828590e-03 8.6773640e-02 9.7647909e-02 2.5243689e-01 2.4560465e-01 2.3581596e-01 2.4858144e-03 -2.1726135e-02 -1.1112728e-01 -5.0186891e-02 -1.0158808e-01 -2.8115724e-02 -1.0350178e-01 -2.0166138e-02 -1.0375058e-01 6.0143984e-02 1.6327859e-02 1.5116044e-01 -2.2596477e-02 -2.4445309e-02 -1.6810344e-01 1.0136282e-02 -3.7213387e-01 7.0698919e-01 8.6526287e-01 -1.9316884e-01 6.0187938e-02 -1.1681962e-01 3.1604897e-02 -5.6504408e-02 5.1989725e-02 2.4125812e-02 1.4738783e-01 1.6623220e-01 2.8966624e-01 2.7991759e-01 1.8117528e-01 -1.3676359e-03 -2.1083910e-02 -6.7143254e-02 -3.5497330e-02 -5.7102618e-02 -3.7838558e-02 -3.8222276e-02 -2.2058935e-02 -4.5431256e-02 -3.3554704e-02 3.3015822e-02 1.0282580e-01 1.1813326e-01 -1.1730176e-02 -6.1711618e-02 -1.0959051e-01 -7.2869889e-02 -2.4660910e-01 1.0901142e+00 4.1778183e-01 -1.4505515e-01 3.9988988e-02 -1.2327331e-01 2.6114019e-02 -4.7998278e-02 5.9917204e-02 1.2957958e-02 1.6171148e-01 1.6773854e-01 3.0984712e-01 2.0892746e-01 1.3345426e-01 -5.2267871e-02 -1.9321127e-02 -9.5137750e-02 -3.8279980e-02 -9.6202625e-02 -1.7863642e-02 -8.2874759e-02 -2.4054921e-02 -1.1144930e-01 -1.9412866e-02 -1.2424312e-01 4.4291561e-02 -1.5175627e-02 1.5231295e-01 -4.9052177e-02 1.9071019e-02 -1.8986079e-01 9.7699025e-03 -3.6210333e-01 4.6048330e-01 9.9275165e-01 -1.4662034e-01 2.9346389e-02 -1.2064462e-01 -1.3052465e-02 -6.7289966e-02 1.7948652e-02 1.9233005e-02 7.4797212e-02 1.3381612e-01 2.3361151e-01 2.6147567e-01 1.6701852e-01 2.5163283e-02 -7.0432040e-02 -8.3686982e-02 -7.2891706e-02 -7.9360401e-02 -8.1961594e-02 -6.3035937e-02 -9.0275203e-02 -5.7775253e-02 -9.5026515e-02 -2.3702530e-02 1.0748798e-03 1.0523786e-01 -1.3085603e-02 -3.9402499e-02 -1.6994837e-01 -4.8401694e-02 -3.2380571e-01 2.7708199e-01 1.0743947e+00 -1.6222394e-01 -6.1118118e-03 -1.4427445e-01 -2.6972718e-02 -1.0542617e-01 -1.6205446e-03 -2.0694450e-02 7.9183077e-02 1.1098990e-01 2.2519459e-01 2.4657513e-01 1.8645598e-01 -7.3855938e-03 -6.0151758e-02 -1.2988979e-01 -9.7446353e-02 -1.1263728e-01 -8.5116233e-02 -1.0004212e-01 -8.2238403e-02 -9.4840211e-02 -7.2061406e-02 5.2992840e-04 5.3979410e-02 5.5351256e-02 -4.9318335e-02 -1.1250283e-01 -1.3601990e-01 -1.4079438e-01 -2.0998048e-01 1.1226315e+00 2.2874451e-01 -1.4586016e-01 -3.4218294e-02 -1.1949839e-01 -2.2130878e-02 -6.6038338e-02 1.8266160e-02 9.5441863e-03 1.2947456e-01 1.5746392e-01 2.7645095e-01 1.9507458e-01 8.9678594e-02 -8.0580362e-02 -6.9705122e-02 -1.2929821e-01 -8.6573561e-02 -1.0164795e-01 -8.6371069e-02 -9.4079273e-02 -8.1266894e-02 -1.1645988e-01 -6.4792217e-02 -8.4477616e-04 6.0705857e-02 3.0643269e-02 -7.2140280e-02 -1.2568528e-01 -1.3381856e-01 -1.7433638e-01 -1.6893072e-01 1.1338399e+00 1.2296432e-01 -1.0807759e-01 -9.1485492e-02 -1.0075999e-01 -7.3275714e-02 -4.9587262e-02 -1.6968172e-02 6.5580165e-03 9.5647014e-02 1.5874616e-01 2.4652039e-01 1.8179190e-01 4.2446801e-02 -7.1707281e-02 -1.0121004e-01 -1.2932390e-01 -1.1303462e-01 -1.0489888e-01 -9.1270402e-02 -9.3380446e-02 -1.0779085e-01 -9.5069489e-02 -1.0162502e-01 -1.0737309e-01 -1.0083346e-01 -2.7127841e-03 5.2757592e-02 5.8573093e-02 -7.7571552e-02 -1.1794720e-01 -1.3839454e-01 -1.3790208e-01 -2.3514720e-01 1.0962083e+00 2.5773826e-01 -1.4301337e-01 -2.5044173e-02 -1.2146535e-01 -1.8190776e-02 -6.0226364e-02 -6.8962944e-03 7.0156324e-03 1.1845773e-01 1.7276709e-01 2.2921686e-01 2.0959898e-01 9.3328791e-02 -4.9488978e-02 -9.4227001e-02 -9.8182161e-02 -8.0450408e-02 -7.6891090e-02 -8.9012443e-02 -8.0420611e-02 -6.5772288e-02 -7.1720558e-02 -9.9859473e-02 -8.3215962e-02 -7.2674746e-02 6.4344981e-03 4.1111997e-02 8.5968667e-02 -3.7117655e-02 -6.6471594e-02 -1.5307544e-01 -6.2322550e-02 -3.2707762e-01 9.7062779e-01 5.2684605e-01 -1.9185147e-01 4.1070279e-02 -1.5409568e-01 3.5322413e-02 -7.7797965e-02 5.3252239e-02 -2.4273511e-03 1.3814138e-01 1.4669776e-01 2.9888999e-01 2.3498954e-01 1.5297312e-01 -6.4738156e-02 -2.2061675e-02 -1.1662396e-01 -5.1105450e-02 -1.1625421e-01 -4.0024100e-02 -1.0569183e-01 -1.8726156e-02 -1.3720229e-01 -2.1488257e-02 -1.4683494e-01 4.1490170e-02 -1.5678951e-02 1.3940933e-01 -6.2496676e-02 -1.6990322e-02 -1.9758312e-01 2.0638393e-02 -4.1166378e-01 6.0960060e-01 8.4760596e-01 -2.1942316e-01 4.2717778e-02 -1.5528736e-01 -2.0113588e-02 -7.4984970e-02 1.7150753e-02 9.9786613e-03 9.2232796e-02 1.4555044e-01 2.5846621e-01 2.6423769e-01 1.8848371e-01 -1.9931875e-02 -7.2155763e-02 -9.1619947e-02 -1.0243809e-01 -9.0885118e-02 -1.0450538e-01 -6.6949947e-02 -8.9263475e-02 -3.7516363e-02 -2.6019597e-03 9.1028698e-02 3.6024916e-02 -5.9178610e-02 -1.4815862e-01 -7.3894234e-02 -2.6047138e-01 5.8461013e-02 1.1900514e+00 -5.6465870e-02 -5.0175261e-02 -1.0888211e-01 -8.0087605e-02 -8.8296929e-02 -2.5147981e-02 -2.0876297e-02 4.1632473e-02 9.6654609e-02 2.0904775e-01 2.4313248e-01 1.9187222e-01 -1.7441926e-03 -7.4723696e-02 -1.1972055e-01 -1.2047454e-01 -1.2256149e-01 -9.7443372e-02 -1.2768618e-01 -8.6383491e-02 -1.3233451e-01 -6.9044728e-02 -7.7497331e-03 5.7225102e-02 9.9028517e-03 -6.4882534e-02 -1.5433834e-01 -9.9627626e-02 -2.4360099e-01 -3.7391009e-02 1.1500369e+00 2.4027911e-02 -7.4972869e-02 -9.4097541e-02 -8.5382239e-02 -5.1077043e-02 -4.5723829e-02 -1.4304053e-02 4.6406684e-02 1.0585924e-01 1.8668189e-01 2.4852261e-01 2.0775673e-01 3.0462295e-02 -5.9620154e-02 -9.4804759e-02 -9.9421562e-02 -9.0505701e-02 -8.1152040e-02 -8.3399856e-02 -6.4302898e-02 -8.5750699e-02 -5.2731596e-02 1.5046299e-02 7.4868388e-02 4.5744735e-02 -5.5759068e-02 -1.1695938e-01 -1.0981509e-01 -1.9317138e-01 -1.0438219e-01 1.1669165e+00 1.3148998e-01 -8.6897994e-02 -7.6559548e-02 -9.6311938e-02 -5.7266055e-02 -5.6779839e-02 2.3569934e-03 1.5824350e-02 1.0997024e-01 1.5911252e-01 2.5637569e-01 1.6279990e-01 1.4421371e-02 -7.2110970e-02 -1.1249925e-01 -1.4225635e-01 -1.2572533e-01 -1.3852031e-01 -1.1782880e-01 -1.2625346e-01 -1.1747531e-01 -1.5893947e-01 -1.2305365e-01 -1.8018736e-01 -7.0013661e-02 -6.1454871e-02 3.5165257e-02 -6.3208091e-02 -1.2734084e-01 -2.2238866e-01 -1.0364173e-01 -3.9019572e-01 1.1854211e-01 1.0548061e+00 -1.7529119e-01 -8.2879851e-02 -2.0824896e-01 -1.1909409e-01 -1.7115370e-01 -8.3695505e-02 -1.0693319e-01 -2.1265846e-02 2.2599834e-02 1.3457844e-01 1.4937795e-01 1.1782568e-01 -8.5907739e-02 -1.4448554e-01 -1.9601975e-01 -1.8252550e-01 -2.0703487e-01 -1.8103093e-01 -1.8191223e-01 -1.7564413e-01 -1.7934831e-01 -1.8469471e-01 -1.6839916e-01 -9.1223720e-02 -2.5301680e-02 -7.3960539e-02 -1.6488774e-01 -2.6200931e-01 -2.0250885e-01 -3.5626816e-01 -2.7997325e-02 1.0643274e+00 -2.3589999e-01 -1.2794648e-01 -2.4764791e-01 -1.5679354e-01 -2.1036130e-01 -1.2648507e-01 -1.6074031e-01 -3.5491826e-02 -1.9744344e-02 1.0279740e-01 1.0934185e-01 9.1703234e-02 -1.3060221e-01 -1.6508963e-01 -2.5085861e-01 -2.1188724e-01 -2.6878797e-01 -1.9523613e-01 -2.5929785e-01 -1.8404978e-01 -2.6846009e-01 -2.1486193e-01 -2.5994520e-01 -1.2054890e-01 -1.4119362e-01 -2.3969238e-02 -2.3525737e-01 -1.8934645e-01 -3.5457643e-01 -1.6790032e-01 -5.2383642e-01 8.4525271e-01 3.4064875e-01 -3.3334987e-01 -1.6656794e-01 -2.6245733e-01 -1.6187632e-01 -2.0753312e-01 -1.3858279e-01 -1.3540284e-01 -3.2949567e-02 2.2546029e-02 1.1849011e-01 1.0868732e-01 -2.5192098e-02 -1.7320026e-01 -2.4227628e-01 -2.2094657e-01 -2.4255161e-01 -2.2997805e-01 -2.4456244e-01 -2.0267611e-01 -2.3854061e-01 -2.0679039e-01 -2.5821136e-01 -2.2148399e-01 -2.5444873e-01 -1.2686925e-01 -1.1564487e-01 -6.0573124e-02 -2.0322820e-01 -1.9941095e-01 -3.2490503e-01 -1.9829241e-01 -5.3197993e-01 7.4955603e-01 4.7573575e-01 -3.5033081e-01 -1.1968093e-01 -2.9608974e-01 -1.4229284e-01 -2.2564435e-01 -1.1580011e-01 -1.5587633e-01 -3.0124320e-02 -5.6108780e-03 1.2780710e-01 8.1598133e-02 1.1284253e-02 -1.8031936e-01 -2.0766731e-01 -2.3236242e-01 -2.1583854e-01 -2.4146815e-01 -1.9940776e-01 -2.3280655e-01 -2.0704951e-01 -2.2187809e-01 -2.1166498e-01 -2.5579166e-01 -2.0992836e-01 -2.4625954e-01 -2.1889470e-01 -2.5113073e-01 -1.8947396e-01 -1.3574043e-01 -6.0345702e-02 -1.0517800e-01 -1.9131773e-01 -2.2508121e-01 -2.2241347e-01 -3.2207790e-01 -1.8751084e-01 1.0282254e+00 -1.3538392e-02 -1.8802981e-01 -1.9301743e-01 -1.8492094e-01 -1.6757644e-01 -1.5081495e-01 -1.0992150e-01 -6.8154931e-02 -2.4160035e-02 8.4185017e-02 1.0847498e-01 1.3632887e-01 -4.6791939e-02 -1.5219112e-01 -2.2058441e-01 -2.1403021e-01 -2.0815966e-01 -2.0613302e-01 -2.1287498e-01 -2.0878628e-01 -2.1196037e-01 -2.1263724e-01 -2.3419886e-01 -2.0897657e-01 -2.5874991e-01 -2.3403395e-01 -2.4267921e-01 -1.3654247e-01 -1.3701308e-01 -5.1099693e-02 -2.1093198e-01 -1.8207476e-01 -3.2085771e-01 -1.8316220e-01 -5.1671289e-01 7.7845951e-01 4.6613796e-01 -3.6334376e-01 -1.0597040e-01 -3.0170573e-01 -1.3020632e-01 -2.2175103e-01 -1.0563484e-01 -1.6044171e-01 -1.4323388e-02 -3.6813546e-03 1.6388495e-01 7.9972011e-02 2.9678320e-02 -1.7083905e-01 -1.8916998e-01 -2.6389080e-01 -2.3037008e-01 -2.6735898e-01 -1.9825106e-01 -2.5655891e-01 -2.1262988e-01 -2.6432855e-01 -1.7617342e-01 -1.6356373e-01 -4.6951143e-02 -1.5380830e-01 -1.8265879e-01 -2.8785375e-01 -2.2995444e-01 -3.8900307e-01 -1.5744382e-01 1.0402152e+00 -1.0991408e-01 -2.4195086e-01 -2.2839434e-01 -2.3821872e-01 -1.9060048e-01 -1.8122218e-01 -1.3503297e-01 -1.0585176e-01 -3.1554459e-03 7.0050927e-02 1.7223807e-01 8.4921606e-02 -5.6938156e-02 -2.0972289e-01 -2.0768126e-01 -2.4927558e-01 -2.1810594e-01 -2.2658255e-01 -2.0424334e-01 -2.3789049e-01 -1.8658263e-01 -2.4380246e-01 -1.0096000e-01 -1.1918262e-01 -7.9727095e-03 -2.0575577e-01 -1.8262770e-01 -3.3681501e-01 -1.6076807e-01 -5.2373914e-01 7.5176190e-01 4.8899427e-01 -3.5068484e-01 -1.0986536e-01 -3.1075182e-01 -1.6508427e-01 -2.2291929e-01 -1.4184388e-01 -1.4409438e-01 -6.7330088e-02 1.1119153e-02 1.1445946e-01 1.0315635e-01 -1.3801210e-02 -2.0999881e-01 -2.2555360e-01 -2.6018739e-01 -2.5432295e-01 -2.5633384e-01 -2.3577654e-01 -2.5093064e-01 -2.4817279e-01 -2.3903832e-01 -2.2477975e-01 -1.2743033e-01 -9.1006873e-02 -9.7715821e-02 -2.1467232e-01 -2.5060533e-01 -2.8200293e-01 -2.9778144e-01 -3.0964246e-01 1.0360231e+00 3.6403403e-02 -2.4020845e-01 -1.8847508e-01 -2.3994348e-01 -1.9132313e-01 -1.8258901e-01 -1.2424292e-01 -1.0021870e-01 -9.0946918e-03 4.4407367e-02 1.5351364e-01 1.1198916e-01 -6.0337288e-02 -1.6697187e-01 -2.2291912e-01 -1.9982825e-01 -2.1937418e-01 -2.0055456e-01 -2.1334958e-01 -1.7846452e-01 -2.1829261e-01 -1.8700872e-01 -2.3996614e-01 -1.0324999e-01 -1.1353076e-01 1.2780860e-02 -1.5935290e-01 -1.5639015e-01 -2.8775205e-01 -1.3306539e-01 -4.8329304e-01 4.4232730e-01 8.8404087e-01 -3.1073796e-01 -4.5693529e-02 -2.7672725e-01 -9.2726807e-02 -1.9501224e-01 -6.0996580e-02 -1.2346401e-01 4.9056898e-03 1.6998805e-02 1.8331969e-01 1.4053046e-01 1.1284465e-01 -1.2143454e-01 -1.3344633e-01 -2.1387709e-01 -1.3870872e-01 -2.0420673e-01 -1.3203187e-01 -2.0120628e-01 -1.3855846e-01 -2.0528305e-01 -7.6945874e-02 -1.1350288e-01 4.8190074e-02 -1.2499018e-01 -1.2173853e-01 -2.7192125e-01 -1.1730240e-01 -4.2737290e-01 2.4603285e-01 1.0079405e+00 -2.6335402e-01 -7.7354234e-02 -2.2553667e-01 -1.2035687e-01 -1.6572799e-01 -7.8242488e-02 -1.0098608e-01 1.1482190e-02 4.3750847e-02 1.6873398e-01 1.6129410e-01 1.4651934e-01 -8.1258112e-02 -1.1813232e-01 -1.9954412e-01 -1.5407550e-01 -1.7085767e-01 -1.1926777e-01 -1.7445330e-01 -1.1469700e-01 -1.7186269e-01 -4.3244214e-02 -5.3097410e-02 7.6720028e-02 -7.5469924e-02 -7.9413251e-02 -2.1866911e-01 -7.9254542e-02 -3.6514840e-01 3.6297474e-01 1.0371621e+00 -2.4840497e-01 1.1519786e-02 -1.8701976e-01 -1.9702623e-02 -1.2390667e-01 5.6459373e-03 -5.0928544e-02 9.1375632e-02 9.8435163e-02 2.4787988e-01 2.3235721e-01 2.1795479e-01 -3.4495864e-02 -2.0275940e-02 -1.2073889e-01 -2.8425560e-02 -1.1756719e-01 -1.6642374e-02 -1.0201708e-01 -6.2571594e-03 -9.3987482e-02 5.9670286e-02 2.8469719e-02 1.7488496e-01 -4.0527183e-02 3.2735014e-02 -1.9044267e-01 6.5199225e-02 -3.7857135e-01 6.8849120e-01 9.3648552e-01 -1.3635341e-01 6.8660961e-02 -8.0098631e-02 4.2328424e-02 -1.9857160e-02 5.7250593e-02 6.0896901e-02 1.6409458e-01 2.2079705e-01 3.0350081e-01 3.3440562e-01 2.2305343e-01 6.6323094e-02 2.3108385e-02 -2.3214604e-02 -7.2157801e-03 -2.2167575e-03 9.6256910e-04 1.7458039e-02 5.6341924e-03 8.0985550e-03 -1.6284060e-02 9.2133850e-02 1.0369893e-01 2.1105590e-01 2.5981691e-02 3.9141431e-02 -1.3260765e-01 7.4003775e-02 -3.1308489e-01 7.1588902e-01 9.2388121e-01 -1.4848346e-01 1.0640354e-01 -9.7026801e-02 4.3293953e-02 -4.7753456e-02 9.2013243e-02 1.8607744e-02 1.6915674e-01 1.3768713e-01 3.0462562e-01 2.6470439e-01 2.1309684e-01 -5.6669165e-03 -2.4477286e-03 -8.4698367e-02 -1.8325076e-02 -7.5267714e-02 -1.4935621e-02 -5.7267397e-02 -2.6614454e-02 -7.3387257e-02 -6.1201476e-03 -9.8154156e-02 1.8473037e-02 1.0488765e-02 1.5146698e-01 2.6507317e-02 5.5005014e-03 -1.2803992e-01 -2.3632659e-02 -2.2423098e-01 9.0918524e-02 1.1852451e+00 4.0852920e-02 -7.5339582e-03 -4.9577725e-02 -3.0212318e-02 -1.5795604e-02 8.0037127e-03 4.8556610e-02 9.1778940e-02 1.5907188e-01 2.2982673e-01 3.0809736e-01 2.4883657e-01 9.3444766e-02 -2.0947015e-02 -3.4065221e-02 -5.8088191e-02 -1.6031571e-02 -4.6723809e-02 -2.0265205e-02 -4.1470669e-02 -3.1092230e-03 -6.6825845e-02 5.0929595e-02 6.5005315e-02 1.5838599e-01 1.8778212e-03 7.1317661e-04 -1.2809153e-01 2.2908639e-02 -3.2773412e-01 5.7543072e-01 9.8590495e-01 -1.9416156e-01 8.8389740e-02 -1.4274133e-01 4.4024712e-02 -7.6664593e-02 6.5982970e-02 -9.9172466e-03 1.5857256e-01 1.4482426e-01 2.9970673e-01 2.4762506e-01 2.2577689e-01 -2.1230083e-02 -2.1593985e-02 -1.2053813e-01 -4.6733874e-02 -1.1486372e-01 -4.2191711e-02 -1.0174067e-01 -6.2880451e-02 -7.3464221e-02 4.4173802e-02 2.9775581e-02 1.1754374e-01 -9.7647984e-02 -5.3594528e-02 -1.7184447e-01 -7.5864719e-02 -2.6839841e-01 1.1635341e+00 2.7995722e-01 -1.3577341e-01 -3.2333396e-02 -9.0495456e-02 -4.2191426e-02 -5.8302320e-02 1.0881591e-02 3.6134123e-02 1.1849234e-01 1.9492003e-01 2.4864463e-01 2.5844885e-01 7.0220166e-02 -2.1943391e-02 -8.5094072e-02 -7.2916285e-02 -1.1275886e-01 -4.4702602e-02 -9.8111952e-02 -3.5879616e-02 -9.6695779e-02 3.0135224e-02 8.6793069e-03 1.3630720e-01 -6.2980203e-03 -2.1581273e-02 -1.7601338e-01 -2.5655128e-03 -3.5423296e-01 4.7264399e-01 1.0446298e+00 -1.9258454e-01 5.4670537e-02 -1.4027840e-01 -1.3546224e-02 -6.5584703e-02 2.5621999e-02 3.3628743e-03 1.0417040e-01 1.3063635e-01 2.6700496e-01 2.6548307e-01 1.9421666e-01 5.8436091e-03 -4.3004207e-02 -5.5954681e-02 -7.4345409e-02 -5.7353889e-02 -5.8321357e-02 -3.2124363e-02 -5.1590524e-02 3.7515323e-02 7.6882216e-02 1.5890743e-01 9.7800746e-03 -5.8611529e-03 -1.3855722e-01 1.4841458e-02 -3.2989940e-01 6.8212869e-01 9.9927637e-01 -1.7590363e-01 1.2097151e-01 -1.2992187e-01 6.6775988e-02 -5.7294083e-02 1.0574745e-01 9.9284664e-03 1.8674717e-01 1.7185685e-01 3.3668298e-01 2.7206924e-01 2.3478087e-01 -3.0403268e-03 4.9771302e-02 -6.5038423e-02 1.2793246e-02 -6.0373696e-02 3.3993587e-02 -4.1841422e-02 4.2808704e-02 -5.8270441e-02 1.1086235e-01 6.3044015e-02 2.1351762e-01 7.6745340e-03 5.0334694e-02 -1.4799571e-01 8.1898102e-02 -3.4449451e-01 7.3001876e-01 9.5971428e-01 -1.3047142e-01 9.4078853e-02 -7.2799285e-02 5.4092949e-02 -1.0068578e-02 6.8425577e-02 7.0504646e-02 1.5196502e-01 1.9789038e-01 2.9605315e-01 3.0590623e-01 1.9967804e-01 4.1749688e-02 -9.4852967e-05 -3.9483693e-02 -1.0273815e-02 -1.4699281e-02 -1.5958798e-02 -1.7363614e-02 -7.2115850e-04 -1.1402045e-02 3.9112888e-03 -2.4426022e-02 9.3479016e-02 1.0655202e-01 1.5526191e-01 8.0668386e-03 8.3179507e-04 -8.9905191e-02 2.3198246e-03 -2.4307654e-01 1.0644940e+00 5.6046878e-01 -1.0934269e-01 7.8796287e-02 -7.3618649e-02 5.4530337e-02 -2.3245500e-02 1.2153828e-01 5.4230161e-02 1.9963299e-01 1.8565270e-01 3.4656244e-01 2.7190136e-01 1.8060398e-01 -3.4910896e-03 2.1716055e-03 -5.6787401e-02 1.5676222e-02 -5.6146704e-02 8.1426501e-03 -5.7913337e-02 3.6330541e-02 -8.4326961e-02 8.6874285e-02 3.4100759e-02 1.8907844e-01 -1.1100237e-02 4.6381916e-02 -1.7129785e-01 5.4781472e-02 -3.5818779e-01 5.8356775e-01 9.8208056e-01 -1.7064007e-01 5.9162357e-02 -1.1941340e-01 1.4661410e-02 -3.5704151e-02 4.6909108e-02 2.9013725e-02 1.2750524e-01 1.7770268e-01 2.9464934e-01 3.0376625e-01 1.9417188e-01 1.8192494e-02 -2.8519078e-02 -4.7541933e-02 -6.6831001e-02 -4.3062864e-02 -6.4269528e-02 -2.5894648e-02 -4.9490801e-02 3.6919547e-02 5.0841377e-02 1.5771569e-01 1.3097056e-03 2.7011899e-04 -1.5968857e-01 1.2978559e-02 -3.4855006e-01 6.8757761e-01 9.4035805e-01 -2.0367431e-01 8.4766508e-02 -1.5609668e-01 2.5339946e-02 -4.9955985e-02 5.9763027e-02 -1.0162171e-02 1.4237852e-01 1.3853045e-01 3.1985029e-01 2.5409958e-01 1.8005189e-01 -4.6141307e-03 -3.6376219e-02 -6.7193757e-02 -5.4740736e-02 -7.7717277e-02 -4.4914204e-02 -5.6371910e-02 -3.5806905e-02 4.4988809e-02 8.9266058e-02 1.1675150e-01 -2.0393712e-02 -6.1061996e-02 -1.1464222e-01 -4.5036490e-02 -2.8925633e-01 1.0453776e+00 5.4294383e-01 -1.9663684e-01 5.6073554e-02 -1.4115441e-01 3.7868036e-02 -8.2715530e-02 7.6572139e-02 2.7107625e-03 1.6523322e-01 1.5002219e-01 3.2992185e-01 1.8458779e-01 1.6582066e-01 -6.1914549e-02 -1.0024226e-02 -1.1757289e-01 -3.4712516e-02 -9.9785751e-02 -3.6672385e-04 -7.9060557e-02 -5.4879145e-03 -1.0753269e-01 4.7506693e-02 2.0662072e-02 1.6899226e-01 4.1335869e-03 1.8561318e-02 -1.4365645e-01 1.3124479e-02 -3.0074676e-01 2.9850043e-01 1.1436183e+00 -6.0569374e-02 2.7556178e-02 -8.5981661e-02 5.0163914e-03 -2.9091027e-02 1.6145772e-02 4.7417799e-02 7.9830730e-02 1.7114165e-01 2.4417037e-01 2.7995999e-01 1.9191990e-01 4.4563727e-02 -5.0939394e-02 -5.6282852e-02 -7.2647601e-02 -5.8408980e-02 -4.8901697e-02 -5.4642527e-02 -6.2121162e-02 -3.8038796e-02 -7.7155755e-02 -6.7680115e-02 -4.3534108e-02 2.5491319e-02 7.5205095e-02 7.8157978e-02 -5.5893846e-02 -7.0733065e-02 -1.1318822e-01 -1.4515517e-01 -1.8054101e-01 1.1822710e+00 2.2732323e-01 -1.0292288e-01 -5.2864797e-02 -7.8372057e-02 -3.6970326e-02 -2.3869683e-02 -1.2267195e-02 3.4871979e-02 9.7205420e-02 1.8838617e-01 2.3972414e-01 1.9801975e-01 4.7872357e-02 -5.3182522e-02 -1.0982107e-01 -9.2191629e-02 -1.3568159e-01 -7.6868337e-02 -1.2243977e-01 -7.4461169e-02 -1.1572772e-01 -8.5031034e-02 -1.3611103e-01 -8.7571017e-02 -1.4749493e-01 -8.9534004e-03 -8.5668603e-03 7.9095667e-02 -9.5214388e-02 -7.7901814e-02 -2.2295785e-01 -2.7704156e-02 -4.3458358e-01 7.8257451e-01 6.5054074e-01 -2.6768237e-01 1.7508530e-02 -1.9716762e-01 -2.3718270e-02 -1.4666371e-01 9.9218253e-03 -6.2839849e-02 7.4753801e-02 8.2849074e-02 2.2800133e-01 1.8216597e-01 1.1143598e-01 -1.0678786e-01 -1.0672540e-01 -1.8888011e-01 -1.2511733e-01 -1.9225868e-01 -1.2505609e-01 -1.7906261e-01 -1.0267326e-01 -1.8915402e-01 -6.5566344e-02 -7.5198543e-02 5.8511484e-02 -1.0599969e-01 -1.0201703e-01 -2.7113187e-01 -8.3185939e-02 -4.3838254e-01 4.2827651e-01 9.1292055e-01 -2.8614325e-01 -2.4651625e-02 -2.2361805e-01 -7.3497378e-02 -1.6099095e-01 -2.5528523e-02 -7.4864189e-02 3.5778507e-02 7.8522824e-02 2.0217818e-01 2.0521139e-01 1.3885530e-01 -8.5017439e-02 -9.4256966e-02 -1.6366968e-01 -1.2077517e-01 -1.6597484e-01 -1.0672882e-01 -1.5943083e-01 -1.0290523e-01 -1.4549019e-01 -1.2070810e-02 -3.1549181e-02 9.2813957e-02 -1.0090648e-01 -7.0176215e-02 -2.3151018e-01 -5.8119044e-02 -4.2763682e-01 7.6667443e-01 6.8804950e-01 -2.4644936e-01 1.4720776e-02 -1.9923509e-01 -3.6289404e-02 -1.1154336e-01 9.9991776e-03 -3.3915064e-02 9.9186053e-02 9.2408864e-02 2.7770306e-01 2.0830213e-01 1.2289847e-01 -6.3639038e-02 -8.0739481e-02 -1.3678847e-01 -1.0854064e-01 -1.2428583e-01 -7.6029732e-02 -1.3439864e-01 -6.9876533e-02 -1.5870543e-01 -6.0059592e-02 -1.5196913e-02 9.0776574e-02 -4.2742204e-02 -6.8143961e-02 -2.2841032e-01 -7.5818054e-02 -3.2199618e-01 1.0936589e-01 1.0988029e+00 -1.1002094e-01 -6.9798176e-02 -1.6795471e-01 -9.6556858e-02 -1.1244074e-01 -7.0733269e-02 -5.8597785e-02 1.7640105e-02 6.9675712e-02 1.6864242e-01 1.7976022e-01 1.5148114e-01 -4.7498852e-02 -1.0861686e-01 -1.5689884e-01 -1.6074428e-01 -1.5287926e-01 -1.3525099e-01 -1.3165286e-01 -1.5184667e-01 -1.3430793e-01 -1.5869812e-01 -1.3461342e-01 -3.0243000e-02 1.1749703e-02 -1.0665323e-02 -1.3302517e-01 -1.6065141e-01 -1.8725269e-01 -2.2065190e-01 -2.2704555e-01 1.1165802e+00 9.9151633e-02 -1.7650933e-01 -1.2017184e-01 -1.7876445e-01 -1.1018967e-01 -1.1787214e-01 -7.7070534e-02 -4.6533178e-02 2.9013270e-02 1.0844374e-01 1.6063586e-01 1.1671754e-01 -3.8185086e-02 -1.5690504e-01 -1.9080584e-01 -2.0163721e-01 -1.9987132e-01 -2.0561636e-01 -1.9973976e-01 -1.9522059e-01 -1.9715420e-01 -2.0013566e-01 -1.2940044e-01 -5.6621645e-02 -3.3976209e-02 -1.9211735e-01 -2.1591025e-01 -2.9045351e-01 -2.2411182e-01 -4.1082507e-01 9.4251812e-01 2.1737313e-01 -3.4258865e-01 -1.4018283e-01 -2.7521623e-01 -1.5659022e-01 -2.2819531e-01 -1.1158167e-01 -1.4367282e-01 -7.5556820e-03 1.2909139e-02 1.4994587e-01 7.3695428e-02 -3.1938831e-02 -2.2784812e-01 -1.9177143e-01 -2.6492047e-01 -2.1706247e-01 -2.4467538e-01 -1.9327351e-01 -2.6198435e-01 -1.2197595e-01 -1.2741098e-01 1.8075187e-03 -1.6767426e-01 -1.6419703e-01 -3.5266514e-01 -1.4618438e-01 -5.2666395e-01 3.7323741e-01 8.6753151e-01 -3.6546264e-01 -1.1081632e-01 -2.8728200e-01 -1.7925566e-01 -2.1977773e-01 -1.4299711e-01 -1.5754906e-01 -4.4702692e-02 -3.0720345e-02 9.9736555e-02 1.0251687e-01 1.8689469e-02 -1.5737816e-01 -1.8716060e-01 -2.2249835e-01 -2.0870676e-01 -2.0849281e-01 -1.9661771e-01 -2.0547374e-01 -1.9156497e-01 -9.3523322e-02 -6.2977006e-02 -2.7330132e-02 -1.6621848e-01 -2.1674713e-01 -2.7516761e-01 -2.0865250e-01 -4.5138509e-01 8.8885203e-01 3.5445918e-01 -3.2730801e-01 -1.1643821e-01 -2.6960267e-01 -1.3590797e-01 -2.1947107e-01 -7.9495206e-02 -1.4633017e-01 1.0687457e-02 6.3003944e-03 1.3281897e-01 7.4862734e-02 -3.0005449e-02 -2.0197889e-01 -1.8296372e-01 -2.4081723e-01 -1.8276994e-01 -2.4599104e-01 -1.8266215e-01 -2.3914996e-01 -8.4062508e-02 -9.9599400e-02 5.1917021e-03 -2.0902944e-01 -1.8856142e-01 -3.4120335e-01 -1.7948655e-01 -5.3152869e-01 8.9478835e-01 4.0403130e-01 -3.5632663e-01 -1.5229952e-01 -2.9458108e-01 -1.9411375e-01 -2.4758374e-01 -1.7346042e-01 -1.7363653e-01 -6.8463280e-02 -2.8401561e-02 4.8221044e-02 1.9548732e-02 -1.1069025e-01 -2.3938450e-01 -2.8007498e-01 -2.7544278e-01 -2.7234983e-01 -2.7171269e-01 -2.2940767e-01 -1.6520787e-01 -6.6815486e-02 -1.2469775e-01 -2.2716799e-01 -3.2293783e-01 -2.7711881e-01 -4.0196453e-01 -2.6755181e-01 1.0731893e+00 -1.0829755e-01 -2.2555681e-01 -2.5899949e-01 -2.4780235e-01 -2.2861018e-01 -1.9267655e-01 -1.7250914e-01 -1.1527182e-01 -7.6816281e-02 4.5438361e-02 5.6029760e-02 1.2744282e-02 -1.5947094e-01 -2.0777916e-01 -2.4592336e-01 -2.0633259e-01 -2.5059071e-01 -1.3699612e-01 -1.3310325e-01 -1.3041767e-03 -1.5713194e-01 -1.7163741e-01 -3.3487288e-01 -1.7448988e-01 -5.5510854e-01 2.2388908e-01 9.0222410e-01 -3.2148824e-01 -1.3915531e-01 -3.2016736e-01 -1.7542921e-01 -2.5223122e-01 -1.5167041e-01 -1.7643232e-01 -8.3645474e-02 -6.9305185e-02 6.5445493e-02 -1.7966693e-03 -3.1919461e-02 -2.2007801e-01 -1.9240379e-01 -2.6521879e-01 -2.2631751e-01 -2.5244828e-01 -1.3152302e-01 -1.1974721e-01 2.7690354e-03 -1.9193389e-01 -1.8077530e-01 -3.5623211e-01 -1.5327532e-01 -5.7807055e-01 3.7505822e-01 8.7775127e-01 -3.5429249e-01 -9.4791693e-02 -3.1994002e-01 -1.4765610e-01 -2.4075959e-01 -1.2594595e-01 -1.6870493e-01 -3.7890016e-02 -4.1605657e-02 8.8731628e-02 2.6610707e-02 -1.3089241e-02 -1.8941893e-01 -1.4503153e-01 -2.3639824e-01 -1.5980392e-01 -2.1926852e-01 -9.5777864e-02 -9.6782146e-02 4.9985407e-02 -9.5392397e-02 -9.6793358e-02 -2.6272844e-01 -1.2881914e-01 -3.7080787e-01 6.0887182e-03 1.0856661e+00 -1.5095408e-01 -1.1604444e-01 -1.6123679e-01 -1.4880356e-01 -1.3852887e-01 -9.2825184e-02 -7.3091966e-02 -1.8033749e-02 5.4360684e-02 9.9730859e-02 1.5299979e-01 6.3409055e-02 -2.6041417e-02 -1.4681562e-01 -1.1857730e-01 -1.4073709e-01 -1.0832517e-01 -1.0120115e-01 -1.1119222e-02 4.0880211e-02 9.4456436e-02 -1.0087028e-01 -9.2342775e-02 -1.7859573e-01 -1.2583327e-01 -3.0879964e-01 1.1202627e+00 2.5727417e-01 -1.6138446e-01 -3.3426681e-02 -1.2640906e-01 -3.3522514e-02 -5.7577887e-02 1.2581392e-02 1.8748126e-02 1.0155622e-01 1.5478694e-01 2.0710236e-01 1.7864991e-01 2.2961717e-02 -1.7198122e-02 -7.6127322e-02 -4.3868463e-02 -6.3898109e-02 -1.3426030e-02 -5.7519319e-02 8.0917428e-02 8.8225747e-02 1.8250206e-01 -1.9196012e-02 1.7253380e-03 -1.2205857e-01 1.9178864e-02 -2.9953122e-01 1.1168803e+00 5.5748645e-01 -1.1481247e-01 6.6511589e-02 -7.6082196e-02 4.5550483e-02 -7.7445610e-03 8.0377004e-02 5.3364450e-02 1.3472542e-01 2.0508054e-01 2.7441924e-01 2.3412345e-01 9.8230883e-02 -7.1921713e-03 -1.1177140e-02 -5.1822058e-03 -2.5702830e-02 -5.9151400e-03 -1.9546413e-02 2.1155583e-03 -1.7444364e-02 7.1473536e-02 8.5469146e-02 1.9550610e-01 -4.9606232e-03 2.9045059e-02 -1.4120588e-01 3.1576130e-02 -3.2378972e-01 9.0671882e-01 7.9822869e-01 -1.4726809e-01 1.0878399e-01 -7.5026950e-02 7.7539851e-02 -1.5282602e-02 1.0919869e-01 7.7150819e-02 1.8387624e-01 2.0449271e-01 2.9567578e-01 2.6471431e-01 2.0120376e-01 2.8647828e-02 3.8191357e-02 1.1562854e-02 3.0252671e-02 2.5175462e-02 2.9671769e-02 3.6014124e-02 2.9431563e-02 3.2301893e-02 1.9830229e-02 7.1041176e-02 1.4496289e-01 2.2513562e-01 1.0525054e-01 7.5582608e-02 -5.5903786e-02 8.4209806e-02 -2.0441748e-01 4.4615864e-01 1.1980867e+00 -4.4228123e-02 1.5250838e-01 -3.0639189e-02 1.1280498e-01 2.3118041e-03 1.3444846e-01 6.7855526e-02 1.8300082e-01 1.7823763e-01 3.1125957e-01 2.7401542e-01 2.4283690e-01 5.7080260e-02 5.3311491e-02 -1.5175077e-02 3.8223368e-02 -2.1618014e-02 3.3550533e-02 -2.8434592e-03 3.1871954e-02 -1.3434273e-02 4.4726117e-03 -2.5069584e-02 1.6752966e-02 6.4724167e-02 1.3964941e-01 1.3397057e-01 4.3356331e-02 -2.1771199e-02 -3.8969393e-02 -4.3790198e-02 -1.9376660e-01 1.1067996e+00 3.9463253e-01 -1.1539077e-01 7.2692292e-02 -8.5635218e-02 5.3865387e-02 -2.7290478e-02 1.0797657e-01 2.8304221e-02 2.0242184e-01 1.6300682e-01 3.0414926e-01 2.1716943e-01 1.4621619e-01 -4.1758663e-02 -1.6026526e-02 -8.4912145e-02 -9.2672326e-03 -8.5508846e-02 3.9715657e-03 -7.8351751e-02 -2.9036410e-03 -7.6229417e-02 8.0682976e-02 5.2737780e-02 1.5838734e-01 -4.4772203e-02 2.3231446e-03 -1.5765462e-01 1.4259664e-03 -2.9406511e-01 1.1082744e+00 4.3292639e-01 -1.1707507e-01 2.2530719e-02 -7.1623069e-02 2.5583734e-03 -6.1388267e-03 7.2500934e-02 7.4893747e-02 1.4603116e-01 2.3014376e-01 2.9801575e-01 2.9501079e-01 1.2013312e-01 2.0744852e-02 -2.3328105e-02 -4.3356118e-03 -2.8459916e-02 6.6682690e-03 -2.7190267e-02 2.1032197e-02 -2.2658020e-02 1.5630202e-02 -2.7929082e-02 7.6789644e-02 1.0757394e-01 2.1000930e-01 1.9953654e-02 4.3215687e-02 -1.1660076e-01 6.9378859e-02 -2.8718054e-01 9.9778061e-01 6.5873114e-01 -1.0742980e-01 1.0963027e-01 -5.1913555e-02 9.0989091e-02 1.1311744e-02 1.3000642e-01 1.1219859e-01 2.0812720e-01 2.5269656e-01 3.4558278e-01 3.1959273e-01 2.3035212e-01 5.5614418e-02 3.8867731e-02 7.4071555e-03 3.9603153e-02 1.9938339e-02 4.1409253e-02 3.3700468e-02 3.6233583e-02 2.7932588e-02 1.9393688e-02 4.3540125e-02 1.4105587e-01 1.9103593e-01 1.6983064e-01 6.1514172e-02 -2.2379957e-02 3.0723044e-02 -8.9985054e-02 3.5694477e-02 1.2612316e+00 1.9735708e-01 2.0415184e-02 2.6539916e-02 2.7662879e-02 4.3046117e-02 6.2785042e-02 9.7681522e-02 1.3047926e-01 2.2103327e-01 2.7760618e-01 3.3625183e-01 2.7520207e-01 1.2191400e-01 3.3517681e-02 -3.7109944e-03 -7.0878995e-03 2.8299075e-03 -7.4940182e-03 1.4957385e-02 -6.4319702e-03 1.1566676e-02 5.6414302e-04 -6.3500859e-03 -2.2890985e-02 8.5150571e-02 1.0776003e-01 1.8422625e-01 8.8822055e-03 2.3772365e-02 -9.2942067e-02 9.2363448e-03 -2.7124749e-01 1.0196831e+00 6.1037209e-01 -1.3182056e-01 9.9788234e-02 -9.0577162e-02 5.9410002e-02 -2.8911665e-02 1.1126738e-01 5.9211557e-02 1.8372423e-01 1.9908201e-01 3.3492304e-01 2.6701459e-01 1.9084508e-01 -1.3544226e-02 9.6459479e-03 -7.3926222e-02 -5.2975441e-03 -6.6059120e-02 1.1689251e-02 -7.0147069e-02 1.2349203e-02 -7.6976745e-02 3.1355573e-02 1.9390125e-02 1.5618257e-01 4.2791090e-02 1.8557727e-02 -1.3123984e-01 -1.9330574e-02 -2.4201250e-01 1.6478955e-01 1.1580070e+00 -4.1686327e-02 -1.0847590e-02 -6.7010650e-02 -2.6313937e-02 -2.3685624e-02 1.2540425e-02 3.7442396e-02 9.1113705e-02 1.6531247e-01 2.4316597e-01 3.0445015e-01 2.1982711e-01 5.0111615e-02 -4.6671013e-02 -5.0835194e-02 -8.1799382e-02 -3.1805688e-02 -7.0541156e-02 -4.2667404e-02 -7.1996129e-02 -3.8661387e-02 -6.5312679e-02 5.1827398e-02 2.9579585e-02 1.3890433e-01 -4.6525554e-02 -2.8731949e-02 -1.5564730e-01 -2.9747071e-02 -3.1676602e-01 9.8249259e-01 5.0785147e-01 -1.8909638e-01 2.7461442e-02 -1.2293890e-01 5.3073259e-03 -7.6057575e-02 3.9476808e-02 1.6987736e-02 1.1182272e-01 1.7666859e-01 2.4808139e-01 2.3958375e-01 1.1151728e-01 -5.3590602e-02 -6.2456470e-02 -1.0520283e-01 -7.9600652e-02 -9.2971561e-02 -6.8780175e-02 -8.9746617e-02 -7.8696862e-02 -9.5603750e-02 -1.0312703e-01 -8.4556090e-02 5.1836099e-03 3.2722164e-02 5.2292032e-02 -7.8474818e-02 -1.2761697e-01 -1.4414961e-01 -1.7452044e-01 -1.8980008e-01 1.1062937e+00 1.5293900e-01 -1.1718990e-01 -6.1286510e-02 -1.2324529e-01 -5.2807338e-02 -5.8775726e-02 -4.0222376e-03 1.6772297e-02 9.9668064e-02 1.6618800e-01 2.3838886e-01 1.9232425e-01 4.5122862e-02 -8.0325697e-02 -7.6995984e-02 -1.1717084e-01 -9.4128959e-02 -9.2474629e-02 -9.3053390e-02 -8.3519139e-02 -7.1309023e-02 -9.8175219e-02 -6.5255496e-02 -1.2289476e-01 -3.6361351e-02 2.1330323e-02 1.1761277e-01 1.7290321e-02 -3.0446180e-02 -1.3966191e-01 -2.3760156e-02 -2.4626710e-01 1.5517016e-01 1.1616679e+00 -1.3111096e-02 3.1107502e-02 -8.0608615e-02 -2.7908927e-03 -1.8378675e-02 3.5176239e-02 4.2862648e-02 1.1078228e-01 1.6850822e-01 2.7273953e-01 2.9159091e-01 2.3104987e-01 8.9613550e-02 -5.2163376e-03 -3.7397296e-02 -2.3207887e-02 -4.3102999e-02 -2.4428506e-02 -2.0158862e-02 -1.5754519e-02 -1.8328703e-02 -3.4330599e-02 -2.4070192e-02 -2.9095250e-02 6.9210192e-02 1.0080415e-01 1.3266794e-01 3.5657186e-03 -2.5142914e-03 -8.7733483e-02 -9.7417736e-03 -2.3983451e-01 1.0644465e+00 4.8779064e-01 -1.2539528e-01 7.7187552e-02 -7.6827040e-02 7.6487074e-02 -2.4957823e-02 1.1426765e-01 7.5250778e-02 2.0660496e-01 2.2698705e-01 3.6649180e-01 2.8322380e-01 1.9586816e-01 -2.4722624e-02 1.9969063e-02 -6.4426852e-02 -1.1430777e-03 -4.7918939e-02 8.3629443e-03 -3.9525521e-02 2.3016883e-02 -4.8757024e-02 9.8710808e-02 1.0204664e-01 1.8263953e-01 2.8840251e-03 2.8860852e-02 -1.2252737e-01 4.1797337e-02 -2.9410393e-01 1.0717980e+00 6.1443277e-01 -1.4340048e-01 8.4189820e-02 -7.4086046e-02 7.2378021e-02 -1.0503024e-02 1.2953405e-01 7.3773842e-02 2.1040447e-01 2.4856973e-01 3.9218068e-01 2.9636943e-01 1.9721390e-01 1.1526648e-02 3.5555727e-02 -3.1652058e-02 4.7713411e-03 -1.5696988e-02 4.1087337e-03 -2.3248369e-02 4.1107256e-02 -3.1647367e-02 1.1485742e-01 9.5913062e-02 1.8970638e-01 1.4211467e-02 4.5797062e-02 -1.1705213e-01 4.8338203e-02 -3.0488432e-01 1.0176482e+00 6.7063905e-01 -1.3649606e-01 8.4729957e-02 -7.1259814e-02 6.9932419e-02 3.3656978e-03 8.3555744e-02 8.5361242e-02 1.7603213e-01 2.4825601e-01 3.3909307e-01 3.0638004e-01 1.7825156e-01 1.4175257e-02 -1.0274343e-02 -3.6923829e-02 -2.1679863e-02 -1.8166462e-02 -2.0953502e-02 -2.0250195e-02 -2.3501819e-02 -1.0164984e-02 -4.0148892e-02 3.7747399e-02 7.1248945e-02 1.5775575e-01 5.7105250e-02 1.1932374e-02 -1.1457390e-01 1.9924665e-02 -2.7664546e-01 3.6367985e-01 1.1333453e+00 -8.3732703e-02 7.0485425e-02 -9.8086276e-02 3.2097421e-02 -2.8962837e-02 7.2144526e-02 2.3104728e-02 1.3849935e-01 1.6276086e-01 2.7869306e-01 2.9519248e-01 2.3857319e-01 2.8450108e-02 -9.2959110e-03 -6.9141620e-02 -2.3576691e-02 -3.5558175e-02 -3.1912636e-02 -2.0158874e-02 -4.0728278e-02 -4.3572261e-02 -4.1180076e-03 -3.0101559e-02 -3.6181947e-02 2.0551542e-03 6.7945916e-02 1.5069118e-01 7.4814060e-02 -1.0075822e-02 -9.2766554e-02 -3.4623466e-03 -2.1991801e-01 2.1253545e-01 1.1972956e+00 -1.8285645e-02 5.7893051e-02 -7.9066762e-02 3.5124158e-02 -1.6615121e-02 5.6596243e-02 3.4374996e-02 1.4722240e-01 1.5737724e-01 2.9525703e-01 2.9422091e-01 2.5292958e-01 5.3919219e-02 1.1946463e-02 -6.1617273e-02 -3.5857891e-02 -6.7221753e-02 -1.0857669e-02 -7.0406260e-02 -3.4990749e-02 -5.1607327e-02 -3.2930297e-02 -7.2774491e-02 -7.5615360e-02 -2.7566063e-02 3.0760508e-02 9.9348165e-02 7.1296680e-02 -3.4889997e-02 -8.9004377e-02 -9.6931751e-02 -1.3681285e-01 -1.1279648e-01 1.1756403e+00 9.2587775e-02 -7.0413302e-02 -6.6469920e-02 -9.0798776e-02 -6.1297897e-02 -4.0648841e-02 -1.1692350e-02 2.0287723e-02 1.0107666e-01 1.7778086e-01 2.4533231e-01 1.7896084e-01 1.0688431e-02 -9.6728540e-02 -1.4618695e-01 -1.4643697e-01 -1.6943032e-01 -1.6453436e-01 -1.3472838e-01 -1.7390215e-01 -1.3356145e-01 -1.9097447e-01 -6.9006272e-02 -6.6100075e-02 3.2617718e-02 -1.4275355e-01 -1.3461052e-01 -2.6876202e-01 -1.2181465e-01 -4.7717226e-01 5.9760429e-01 7.4755294e-01 -3.5412739e-01 -3.6485792e-02 -2.9530037e-01 -7.0673907e-02 -2.0708861e-01 -6.2503672e-02 -1.3567456e-01 4.3834354e-02 4.7038176e-02 1.8968160e-01 1.3697923e-01 6.7075933e-02 -1.3713068e-01 -1.3227670e-01 -2.1068153e-01 -1.7579927e-01 -2.0357084e-01 -1.5159432e-01 -1.8097657e-01 -1.5570310e-01 -1.8690639e-01 -1.5482545e-01 -9.4334053e-02 -3.0783568e-02 6.0518969e-04 -1.2378992e-01 -1.5624213e-01 -2.4516199e-01 -1.4500078e-01 -4.1975917e-01 7.5974218e-01 5.6049818e-01 -3.1726320e-01 -3.2723763e-02 -2.7751922e-01 -3.9230749e-02 -2.0718172e-01 -2.9050263e-02 -1.1002452e-01 7.8200612e-02 3.9207132e-02 2.3285679e-01 1.3399665e-01 8.0137014e-02 -1.6987797e-01 -9.8116853e-02 -2.3383829e-01 -1.0970249e-01 -2.3737627e-01 -1.0160417e-01 -2.0682954e-01 -1.0804687e-01 -2.2697313e-01 -1.0054094e-01 -2.1586154e-01 -1.8767771e-02 -9.1644386e-02 6.3749869e-02 -1.8613281e-01 -7.7765796e-02 -3.2565966e-01 -8.6292234e-02 -4.7170249e-01 9.1283123e-01 4.3955766e-01 -2.5087181e-01 -9.6330108e-02 -1.8656268e-01 -1.1635941e-01 -1.3611528e-01 -8.5274848e-02 -4.1619040e-02 6.2905499e-03 1.0726458e-01 1.6546924e-01 2.0195325e-01 1.4523528e-02 -1.0254798e-01 -1.7361327e-01 -1.2731519e-01 -1.7391478e-01 -1.3771626e-01 -1.6280520e-01 -1.1808762e-01 -1.7343714e-01 -1.0189031e-01 -1.8526463e-01 -1.1212796e-01 -1.6972209e-01 -1.3016254e-01 -1.7256937e-01 -3.9225741e-02 -3.9628975e-02 6.9179513e-02 -1.3679829e-01 -8.6474005e-02 -2.3901206e-01 -6.5447249e-02 -3.8846447e-01 9.7623864e-01 4.6793627e-01 -2.0732423e-01 -4.5204733e-02 -1.2311760e-01 -6.5688653e-02 -8.8238612e-02 -1.9920886e-02 -1.2883099e-02 6.3095180e-02 1.5138368e-01 2.1654157e-01 2.3785855e-01 6.6791414e-02 -3.2392035e-02 -1.2932908e-01 -9.4580874e-02 -1.4590050e-01 -9.1724779e-02 -1.1582321e-01 -8.5707057e-02 -1.3254058e-01 -9.3171344e-02 -1.2661296e-01 -7.7502466e-02 -1.6136777e-01 -3.3950009e-02 -5.5269669e-02 9.7445510e-02 -8.6508343e-02 -5.6820476e-02 -2.3272341e-01 -4.2866127e-02 -4.2193402e-01 4.1428819e-01 9.2605193e-01 -2.4187686e-01 -1.3233852e-02 -1.9201391e-01 -6.4719500e-02 -1.3527051e-01 -2.6613213e-02 -4.1798829e-02 3.4189314e-02 1.1681619e-01 1.9937896e-01 2.5789176e-01 1.2918813e-01 -4.0161981e-02 -1.0826095e-01 -1.3955145e-01 -1.5896036e-01 -1.2503054e-01 -1.6067606e-01 -1.0415013e-01 -1.4652554e-01 -1.1472283e-01 -1.5870304e-01 -3.4166611e-02 -3.2563326e-02 7.1403449e-02 -9.7521161e-02 -9.0277431e-02 -2.3577202e-01 -5.1185030e-02 -4.1372857e-01 6.1618526e-01 8.1527403e-01 -2.9411477e-01 6.7170532e-03 -1.9739850e-01 -4.5814810e-02 -1.4262214e-01 6.1745397e-03 -4.6162169e-02 8.0284208e-02 1.0068310e-01 2.5362226e-01 2.2527215e-01 1.5546959e-01 -8.8651910e-02 -7.2241340e-02 -1.4494513e-01 -1.1699055e-01 -1.3586148e-01 -1.0236711e-01 -1.3411685e-01 -9.4070057e-02 -1.3924936e-01 -1.0031160e-01 -1.2408925e-01 2.3770180e-03 1.8396291e-02 4.4618945e-02 -1.2245863e-01 -1.1181169e-01 -1.7471312e-01 -1.5397974e-01 -2.5526639e-01 1.1078304e+00 1.8520693e-01 -1.4005900e-01 -9.1448785e-02 -1.3736671e-01 -9.1182505e-02 -7.5565622e-02 -3.4247313e-02 -6.8007017e-03 7.0642603e-02 1.4399428e-01 2.3225285e-01 1.8225161e-01 2.8267485e-02 -9.9606868e-02 -1.2848493e-01 -1.5589484e-01 -1.3487775e-01 -1.4102998e-01 -1.3416947e-01 -1.4657029e-01 -1.1980742e-01 -1.7552282e-01
