0
0.04730224609375
0.05096435546875
0.06195068359375
0.0604248046875
0.02960205078125
0.01373291015625
0.01312255859375
0.006103515625
0.0054931640625
-0.0018310546875
-0.00335693359375
-0.0067138671875
-0.00946044921875
-0.00823974609375
-0.015869140625
-0.01800537109375
-0.0164794921875
-0.023193359375
-0.02838134765625
-0.04425048828125
-0.05462646484375
-0.02899169921875
-0.0164794921875
-0.0372314453125
-0.00152587890625
0.04638671875
0.0341796875
0.0152587890625
0.0189208984375
0.03448486328125
0.0469970703125
0.0408935546875
0.03021240234375
0.01953125
0.0189208984375
0.02685546875
0.03265380859375
0.0244140625
0.0091552734375
0.0
-0.006103515625
-0.00457763671875
-0.0054931640625
0.00274658203125
0.01800537109375
0.0244140625
0.0250244140625
0.0262451171875
0.0201416015625
0.01983642578125
0.0250244140625
0.03387451171875
0.04425048828125
0.0482177734375
0.04547119140625
0.0390625
0.0347900390625
0.02716064453125
0.0250244140625
0.02655029296875
0.02105712890625
0.01312255859375
0.00823974609375
0.0091552734375
0.0152587890625
0.0299072265625
0.0408935546875
0.04974365234375
0.06072998046875
0.068359375
0.0579833984375
0.04241943359375
0.0384521484375
0.045166015625
0.0457763671875
0.05157470703125
0.04364013671875
0.04547119140625
0.0469970703125
0.04791259765625
0.037841796875
0.0384521484375
0.04119873046875
0.0537109375
0.07049560546875
0.06561279296875
0.04791259765625
0.0341796875
0.03082275390625
0.04058837890625
0.0494384765625
0.03753662109375
0.01312255859375
-0.0213623046875
-0.0262451171875
0.01373291015625
0.0567626953125
0.06744384765625
0.072021484375
0.06591796875
0.05950927734375
0.06317138671875
0.074462890625
0.07476806640625
0.0732421875
0.0762939453125
0.07598876953125
0.0653076171875
0.05767822265625
0.048828125
0.03662109375
0.028076171875
0.03692626953125
0.04241943359375
0.02349853515625
0.00030517578125
-0.0067138671875
0.015869140625
0.0677490234375
0.0994873046875
0.126953125
0.14434814453125
0.123291015625
0.10223388671875
0.09063720703125
0.08209228515625
0.08056640625
0.0787353515625
0.0640869140625
0.05706787109375
0.048828125
0.0445556640625
0.05340576171875
0.0640869140625
0.06988525390625
0.06927490234375
0.06500244140625
0.0640869140625
0.06561279296875
0.06744384765625
0.06134033203125
0.059814453125
0.0555419921875
0.05279541015625
0.04791259765625
0.04608154296875
0.05340576171875
0.05584716796875
0.054931640625
0.04852294921875
0.04669189453125
0.05584716796875
0.07843017578125
0.086669921875
0.0738525390625
0.06439208984375
0.0726318359375
0.07781982421875
0.0738525390625
0.05615234375
0.03570556640625
0.02960205078125
0.028076171875
0.03509521484375
0.04058837890625
0.047607421875
0.06744384765625
0.08209228515625
0.08697509765625
0.07781982421875
0.07415771484375
0.07171630859375
0.0732421875
0.07659912109375
0.078125
0.08270263671875
0.07293701171875
0.05645751953125
0.0390625
0.029296875
0.018310546875
0.0286865234375
0.05279541015625
0.06072998046875
0.06317138671875
0.054931640625
0.05126953125
0.048828125
0.05706787109375
0.0689697265625
0.0726318359375
0.07598876953125
0.0726318359375
0.064697265625
0.0628662109375
0.05523681640625
0.04608154296875
0.045166015625
0.042724609375
0.0457763671875
0.06195068359375
0.07354736328125
0.07568359375
0.0567626953125
0.04608154296875
0.06103515625
0.072021484375
0.0653076171875
0.0604248046875
0.047607421875
0.04058837890625
0.04058837890625
0.04791259765625
0.045166015625
0.03082275390625
0.02349853515625
0.0421142578125
0.07110595703125
0.08819580078125
0.08819580078125
0.08148193359375
0.0836181640625
0.09552001953125
0.08575439453125
0.0701904296875
0.05859375
0.03814697265625
0.02777099609375
0.032958984375
0.02655029296875
0.0128173828125
0.0146484375
0.032958984375
0.04302978515625
0.05859375
0.06866455078125
0.0946044921875
0.16326904296875
0.18157958984375
0.126953125
0.06591796875
0.035400390625
0.02410888671875
0.03082275390625
0.04241943359375
0.06805419921875
0.09185791015625
0.09124755859375
0.0738525390625
0.0732421875
0.0750732421875
0.0885009765625
0.09368896484375
0.09002685546875
0.079345703125
0.0787353515625
0.0860595703125
0.0848388671875
0.0689697265625
0.06317138671875
0.0726318359375
0.0726318359375
0.0653076171875
0.0640869140625
0.05889892578125
0.064697265625
0.07904052734375
0.08636474609375
0.091552734375
0.0946044921875
0.09490966796875
0.091552734375
0.10040283203125
0.10162353515625
0.0982666015625
0.09918212890625
0.10040283203125
0.1104736328125
0.13031005859375
0.15167236328125
0.15777587890625
0.14984130859375
0.14068603515625
0.15045166015625
0.16754150390625
0.17425537109375
0.18463134765625
0.1995849609375
0.22308349609375
0.26397705078125
0.284423828125
0.2789306640625
0.26275634765625
0.24749755859375
0.23956298828125
0.247802734375
0.2679443359375
0.27923583984375
0.27862548828125
0.2716064453125
0.252685546875
0.23651123046875
0.257568359375
0.28411865234375
0.28533935546875
0.28533935546875
0.29052734375
0.27069091796875
0.2532958984375
0.24566650390625
0.25787353515625
0.27191162109375
0.2593994140625
0.2545166015625
0.25787353515625
0.27801513671875
0.27923583984375
0.27923583984375
0.2978515625
0.3179931640625
0.33416748046875
0.345458984375
0.36285400390625
0.3656005859375
0.3558349609375
0.343017578125
0.32806396484375
0.32867431640625
0.34637451171875
0.36102294921875
0.3558349609375
0.33599853515625
0.311279296875
0.28411865234375
0.262451171875
0.2423095703125
0.22247314453125
0.20172119140625
0.19989013671875
0.20965576171875
0.2197265625
0.2252197265625
0.21484375
0.1934814453125
0.1763916015625
0.18218994140625
0.194091796875
0.1885986328125
0.17852783203125
0.1898193359375
0.186767578125
0.17059326171875
0.162353515625
0.15777587890625
0.164794921875
0.172119140625
0.157470703125
0.14556884765625
0.1458740234375
0.13946533203125
0.1275634765625
0.10772705078125
0.09490966796875
0.09674072265625
0.0994873046875
0.09979248046875
0.09307861328125
0.08270263671875
0.07415771484375
0.06805419921875
0.07293701171875
0.07843017578125
0.08697509765625
0.079345703125
0.06134033203125
0.03753662109375
0.02349853515625
0.0213623046875
0.023193359375
0.029296875
0.0372314453125
0.05462646484375
0.0762939453125
0.09063720703125
0.098876953125
0.08941650390625
0.074462890625
0.06683349609375
0.06439208984375
0.0604248046875
0.05889892578125
0.05218505859375
0.04638671875
0.04119873046875
0.047607421875
0.06439208984375
0.07476806640625
0.0689697265625
0.0732421875
0.07659912109375
0.06561279296875
0.07110595703125
0.0836181640625
0.08514404296875
0.07232666015625
0.0634765625
0.062255859375
0.05523681640625
0.0634765625
0.07415771484375
0.08270263671875
0.0799560546875
0.07568359375
0.07110595703125
0.067138671875
0.07476806640625
0.068359375
0.06317138671875
0.06072998046875
0.06378173828125
0.05462646484375
0.0439453125
0.03143310546875
0.0067138671875
-0.02593994140625
-0.06500244140625
-0.12451171875
-0.184326171875
-0.230712890625
-0.23712158203125
-0.23712158203125
-0.23712158203125
-0.235595703125
-0.2294921875
-0.19622802734375
-0.17425537109375
-0.1666259765625
-0.15899658203125
-0.10986328125
-0.03936767578125
0.0372314453125
0.135498046875
0.240478515625
0.3692626953125
0.52093505859375
0.670166015625
0.8245849609375
1.0174560546875
1.263427734375
1.552734375
1.8536376953125
2.174072265625
2.49298095703125
2.79998779296875
3.05084228515625
3.23577880859375
3.3721923828125
3.46405029296875
3.53302001953125
3.57696533203125
3.5858154296875
3.555908203125
3.45184326171875
3.311767578125
3.12408447265625
2.87750244140625
2.6129150390625
2.38128662109375
2.17254638671875
1.95831298828125
1.72027587890625
1.47735595703125
1.2237548828125
0.987548828125
0.810546875
0.61065673828125
0.40191650390625
0.2764892578125
0.22216796875
0.211181640625
0.206298828125
0.22430419921875
0.23712158203125
0.2490234375
0.2801513671875
0.31463623046875
0.32196044921875
0.3143310546875
0.316162109375
0.32867431640625
0.330810546875
0.32196044921875
0.30731201171875
0.279541015625
0.25054931640625
0.2392578125
0.2410888671875
0.2197265625
0.19500732421875
0.18096923828125
0.174560546875
0.17913818359375
0.19256591796875
0.19683837890625
0.18280029296875
0.16357421875
0.13946533203125
0.10467529296875
0.08026123046875
0.069580078125
0.06317138671875
0.05767822265625
0.054931640625
0.054931640625
0.048828125
0.0457763671875
0.04730224609375
0.0567626953125
0.06317138671875
0.0689697265625
0.0634765625
0.0555419921875
0.05828857421875
0.05889892578125
0.05767822265625
0.05889892578125
0.0555419921875
0.04608154296875
0.0439453125
0.04608154296875
0.0506591796875
0.0555419921875
0.05401611328125
0.05401611328125
0.05889892578125
0.0634765625
0.0653076171875
0.05828857421875
0.0567626953125
0.0616455078125
0.07537841796875
0.09674072265625
0.091552734375
0.076904296875
0.06378173828125
0.04302978515625
0.02685546875
0.02166748046875
0.0238037109375
0.03631591796875
0.05096435546875
0.089111328125
0.11810302734375
0.128173828125
0.1324462890625
0.142822265625
0.14068603515625
0.13427734375
0.126953125
0.12054443359375
0.11871337890625
0.1165771484375
0.1123046875
0.11444091796875
0.118408203125
0.1220703125
0.11444091796875
0.11505126953125
0.1336669921875
0.1470947265625
0.15533447265625
0.155029296875
0.15228271484375
0.14373779296875
0.13824462890625
0.142822265625
0.14190673828125
0.1336669921875
0.1318359375
0.13580322265625
0.1348876953125
0.1458740234375
0.1507568359375
0.15960693359375
0.18157958984375
0.186767578125
0.19317626953125
0.20355224609375
0.22552490234375
0.22857666015625
0.2105712890625
0.2020263671875
0.20294189453125
0.2117919921875
0.216064453125
0.21484375
0.20599365234375
0.1904296875
0.19195556640625
0.2105712890625
0.23712158203125
0.25543212890625
0.2587890625
0.26214599609375
0.27191162109375
0.2679443359375
0.2471923828125
0.2191162109375
0.20843505859375
0.20721435546875
0.21148681640625
0.22857666015625
0.25238037109375
0.2703857421875
0.2703857421875
0.27618408203125
0.27679443359375
0.28564453125
0.28961181640625
0.29510498046875
0.2996826171875
0.31036376953125
0.3143310546875
0.311279296875
0.31646728515625
0.323486328125
0.32318115234375
0.32867431640625
0.33233642578125
0.33355712890625
0.3314208984375
0.3411865234375
0.35736083984375
0.3680419921875
0.372314453125
0.377197265625
0.38116455078125
0.37384033203125
0.36376953125
0.3594970703125
0.37261962890625
0.39764404296875
0.40435791015625
0.4229736328125
0.4254150390625
0.4315185546875
0.44281005859375
0.4388427734375
0.45745849609375
0.48431396484375
0.50048828125
0.50384521484375
0.50079345703125
0.5023193359375
0.506591796875
0.5303955078125
0.540771484375
0.538330078125
0.53375244140625
0.5303955078125
0.52978515625
0.5322265625
0.54901123046875
0.56793212890625
0.5926513671875
0.61004638671875
0.61431884765625
0.6121826171875
0.61767578125
0.62164306640625
0.628662109375
0.63690185546875
0.6439208984375
0.64544677734375
0.643310546875
0.64178466796875
0.6402587890625
0.64971923828125
0.65155029296875
0.6494140625
0.65399169921875
0.689697265625
0.7208251953125
0.743408203125
0.76873779296875
0.7769775390625
0.76690673828125
0.75103759765625
0.73883056640625
0.732421875
0.728759765625
0.7403564453125
0.74005126953125
0.7293701171875
0.7269287109375
0.7366943359375
0.7452392578125
0.73974609375
0.73638916015625
0.7318115234375
0.731201171875
0.728759765625
0.7305908203125
0.75286865234375
0.758056640625
0.738525390625
0.7080078125
0.67535400390625
0.65765380859375
0.64300537109375
0.621337890625
0.60455322265625
0.59539794921875
0.58380126953125
0.56427001953125
0.54718017578125
0.53436279296875
0.52520751953125
0.5145263671875
0.50811767578125
0.49041748046875
0.46600341796875
0.4486083984375
0.44464111328125
0.41351318359375
0.3607177734375
0.31280517578125
0.29052734375
0.27679443359375
0.263671875
0.250244140625
0.234375
0.2239990234375
0.20782470703125
0.19287109375
0.18035888671875
0.17425537109375
0.172119140625
0.159912109375
0.12939453125
0.09979248046875
0.08148193359375
0.06195068359375
0.03662109375
0.01556396484375
0.00518798828125
0.00091552734375
-0.001220703125
0.0054931640625
-0.00885009765625
-0.0238037109375
-0.00885009765625
0.01678466796875
0.02471923828125
0.0091552734375
-0.0250244140625
-0.0628662109375
-0.0885009765625
-0.09796142578125
-0.08880615234375
-0.06439208984375
-0.04425048828125
-0.057373046875
-0.07568359375
-0.0848388671875
-0.08392333984375
-0.09033203125
-0.0860595703125
-0.07598876953125
-0.0762939453125
-0.08544921875
-0.0970458984375
-0.09857177734375
-0.098876953125
-0.09002685546875
-0.0921630859375
-0.0982666015625
-0.0994873046875
-0.10894775390625
-0.108642578125
-0.11474609375
-0.11505126953125
-0.09796142578125
-0.09368896484375
-0.08758544921875
-0.0860595703125
-0.08392333984375
-0.08819580078125
-0.08453369140625
-0.0762939453125
-0.07598876953125
-0.08331298828125
-0.10345458984375
-0.118408203125
-0.1171875
-0.11566162109375
-0.108642578125
-0.106201171875
-0.1031494140625
-0.09979248046875
-0.09552001953125
-0.09033203125
-0.087890625
-0.09124755859375
-0.09063720703125
-0.0872802734375
-0.08697509765625
-0.08514404296875
-0.07904052734375
-0.0830078125
-0.09796142578125
-0.1123046875
-0.1129150390625
-0.107421875
-0.09979248046875
-0.096435546875
-0.081787109375
-0.048828125
-0.04638671875
-0.07080078125
-0.08392333984375
-0.0823974609375
-0.074462890625
-0.0762939453125
-0.0860595703125
-0.10406494140625
-0.11962890625
-0.13153076171875
-0.13885498046875
-0.13885498046875
-0.11474609375
-0.06561279296875
-0.0518798828125
-0.0537109375
-0.03997802734375
-0.01983642578125
-0.0164794921875
-0.0225830078125
-0.02655029296875
-0.0299072265625
-0.0408935546875
-0.04547119140625
-0.0506591796875
-0.05035400390625
-0.050048828125
-0.0494384765625
-0.0494384765625
-0.05462646484375
-0.05279541015625
-0.05462646484375
-0.04058837890625
-0.03173828125
-0.0299072265625
-0.037841796875
-0.0341796875
-0.01861572265625
-0.01617431640625
-0.0201416015625
-0.03173828125
-0.04913330078125
-0.05584716796875
-0.052490234375
-0.04791259765625
-0.04852294921875
-0.0457763671875
-0.037841796875
-0.025634765625
-0.0091552734375
-0.01373291015625
-0.03082275390625
-0.04608154296875
-0.0384521484375
-0.02288818359375
-0.013427734375
-0.02166748046875
-0.04669189453125
-0.05584716796875
-0.0469970703125
-0.04302978515625
-0.0396728515625
-0.035400390625
-0.025634765625
-0.01373291015625
-0.01373291015625
-0.01800537109375
-0.01922607421875
-0.01739501953125
-0.008544921875
0.00762939453125
0.00091552734375
-0.01922607421875
-0.02655029296875
-0.0323486328125
-0.0360107421875
-0.04241943359375
-0.03448486328125
-0.03326416015625
-0.045166015625
-0.035400390625
-0.02105712890625
-0.01220703125
-0.008544921875
-0.00213623046875
0.00518798828125
0.0103759765625
0.01861572265625
0.0067138671875
-0.01251220703125
-0.02471923828125
-0.0384521484375
-0.037841796875
-0.0341796875
-0.03265380859375
-0.032958984375
-0.032958984375
-0.0225830078125
-0.0067138671875
-0.006103515625
-0.0018310546875
0.00244140625
-0.00091552734375
-0.00152587890625
-0.001220703125
-0.00701904296875
-0.0128173828125
-0.02105712890625
-0.030517578125
-0.03448486328125
-0.032958984375
-0.02716064453125
-0.023193359375
-0.0115966796875
-0.00030517578125
0.00640869140625
0.00946044921875
0.01495361328125
0.013427734375
0.00946044921875
0.006103515625
-0.0054931640625
-0.01556396484375
-0.0128173828125
-0.01861572265625
-0.01983642578125
-0.023193359375
-0.02105712890625
-0.02166748046875
-0.02532958984375
-0.02197265625
-0.0274658203125
-0.0286865234375
-0.03509521484375
-0.02410888671875
0.00213623046875
0.0445556640625
0.07415771484375
0.04669189453125
0.00396728515625
0.0018310546875
0.0067138671875
-0.00213623046875
-0.0079345703125
-0.00579833984375
-0.00213623046875
-0.0030517578125
-0.00335693359375
-0.01312255859375
-0.0189208984375
-0.03173828125
-0.0360107421875
-0.03814697265625
-0.02899169921875
-0.00335693359375
0.0225830078125
0.0494384765625
0.05706787109375
0.05401611328125
0.02685546875
0.01007080078125
0.00396728515625
-0.0030517578125
-0.00213623046875
0.02166748046875
0.03509521484375
0.0384521484375
0.03662109375
0.03265380859375
0.03082275390625
0.03509521484375
0.0250244140625
0.013427734375
0.01953125
0.0177001953125
0.00518798828125
-0.0018310546875
0.0
-0.001220703125
-0.0054931640625
-0.0030517578125
0.00274658203125
0.0201416015625
0.03662109375
0.0531005859375
0.06195068359375
0.0640869140625
0.06134033203125
0.040283203125
0.0244140625
0.00946044921875
-0.00213623046875
-0.0006103515625
0.009765625
0.01861572265625
0.01922607421875
0.0177001953125
0.02593994140625
0.0262451171875
0.03265380859375
0.0384521484375
0.04302978515625
0.0408935546875
0.03631591796875
0.03753662109375
0.0335693359375
0.03662109375
0.03204345703125
0.0274658203125
0.02471923828125
0.0250244140625
0.020751953125
0.02044677734375
0.0311279296875
0.035400390625
0.04119873046875
0.0433349609375
0.04608154296875
0.04547119140625
0.04669189453125
0.04730224609375
0.0408935546875
0.03814697265625
0.0286865234375
0.0238037109375
0.01708984375
0.01495361328125
0.0250244140625
0.0445556640625
0.06072998046875
0.06591796875
0.07598876953125
0.09735107421875
0.1043701171875
0.11566162109375
0.12451171875
0.13916015625
0.16021728515625
0.169677734375
0.17791748046875
0.181884765625
0.18951416015625
0.1873779296875
0.1861572265625
0.1934814453125
0.20751953125
0.2191162109375
0.21881103515625
0.21453857421875
0.21881103515625
0.23040771484375
0.23712158203125
0.24169921875
0.25054931640625
0.252685546875
0.245361328125
0.23406982421875
0.22613525390625
0.23101806640625
0.2337646484375
0.23895263671875
0.24017333984375
0.24078369140625
0.25604248046875
0.25848388671875
0.2520751953125
0.24322509765625
0.238037109375
0.23712158203125
0.23773193359375
0.2447509765625
0.255126953125
0.26123046875
0.2880859375
0.30548095703125
0.2783203125
0.25054931640625
0.25360107421875
0.2862548828125
0.3131103515625
0.31829833984375
0.31219482421875
0.3045654296875
0.30670166015625
0.328369140625
0.33935546875
0.33660888671875
0.3289794921875
0.31494140625
0.29388427734375
0.2679443359375
0.24566650390625
0.2197265625
0.18585205078125
0.16357421875
0.15350341796875
0.15380859375
0.16204833984375
0.15625
0.157470703125
0.1593017578125
0.1702880859375
0.17364501953125
0.16998291015625
0.15380859375
0.1397705078125
0.14068603515625
0.14129638671875
0.13031005859375
0.1226806640625
0.10894775390625
0.09490966796875
0.0885009765625
0.08575439453125
0.0927734375
0.1129150390625
0.140380859375
0.15472412109375
0.15045166015625
0.12542724609375
0.111083984375
0.1116943359375
0.1043701171875
0.0830078125
0.05767822265625
0.04364013671875
0.04058837890625
0.04364013671875
0.035400390625
0.032958984375
0.03662109375
0.04730224609375
0.0640869140625
0.06927490234375
0.062255859375
0.05615234375
0.06134033203125
0.0750732421875
0.074462890625
0.05889892578125
0.0390625
0.02685546875
0.0286865234375
0.03143310546875
0.02777099609375
0.01190185546875
0.0067138671875
0.013427734375
0.0311279296875
0.0531005859375
0.07720947265625
0.07843017578125
0.062255859375
0.0677490234375
0.0738525390625
0.07171630859375
0.068359375
0.0518798828125
0.029296875
0.01190185546875
0.00244140625
0.00640869140625
0.01312255859375
0.03570556640625
0.0640869140625
0.09521484375
0.11199951171875
0.1043701171875
0.08544921875
0.0726318359375
0.0677490234375
0.074462890625
0.0872802734375
0.08056640625
0.06072998046875
0.04425048828125
0.03326416015625
0.02685546875
0.01556396484375
-0.018310546875
-0.06500244140625
-0.115966796875
-0.14495849609375
-0.1416015625
-0.1348876953125
-0.16693115234375
-0.22064208984375
-0.2520751953125
-0.25238037109375
-0.2349853515625
-0.23345947265625
-0.2459716796875
-0.2496337890625
-0.21026611328125
-0.14862060546875
-0.08453369140625
-0.01556396484375
0.07598876953125
0.19561767578125
0.33721923828125
0.48858642578125
0.63232421875
0.784912109375
0.97991943359375
1.20880126953125
1.47247314453125
1.76910400390625
2.08526611328125
2.39501953125
2.677001953125
2.9339599609375
3.13018798828125
3.287353515625
3.41583251953125
3.50616455078125
3.57574462890625
3.61602783203125
3.5955810546875
3.50128173828125
3.3441162109375
3.15155029296875
2.9034423828125
2.64617919921875
2.40631103515625
2.16827392578125
1.94580078125
1.72271728515625
1.4813232421875
1.23046875
1.0028076171875
0.83831787109375
0.66986083984375
0.51666259765625
0.426025390625
0.38055419921875
0.35247802734375
0.33935546875
0.335693359375
0.32684326171875
0.33050537109375
0.33905029296875
0.33294677734375
0.30609130859375
0.27587890625
0.2642822265625
0.26275634765625
0.26519775390625
0.257568359375
0.2496337890625
0.25146484375
0.25543212890625
0.25970458984375
0.2655029296875
0.2886962890625
0.279541015625
0.238037109375
0.1873779296875
0.147705078125
0.118408203125
0.0982666015625
0.08636474609375
0.08819580078125
0.09246826171875
0.111083984375
0.12603759765625
0.128173828125
0.1123046875
0.09979248046875
0.08697509765625
0.0811767578125
0.09307861328125
0.09124755859375
0.09368896484375
0.08636474609375
0.064697265625
0.0506591796875
0.0445556640625
0.04730224609375
0.0390625
0.04608154296875
0.0592041015625
0.05157470703125
0.03692626953125
0.0323486328125
0.045166015625
0.0531005859375
0.05889892578125
0.07568359375
0.076904296875
0.0732421875
0.06378173828125
0.05859375
0.05706787109375
0.05523681640625
0.04730224609375
0.04150390625
0.05126953125
0.0592041015625
0.06195068359375
0.0665283203125
0.07537841796875
0.08026123046875
0.081787109375
0.087890625
0.0970458984375
0.0909423828125
0.08941650390625
0.08514404296875
0.08209228515625
0.07904052734375
0.0738525390625
0.07080078125
0.07049560546875
0.0799560546875
0.087890625
0.09185791015625
0.0958251953125
0.1116943359375
0.13885498046875
0.14251708984375
0.13275146484375
0.12451171875
0.13031005859375
0.12939453125
0.11627197265625
0.1080322265625
0.1287841796875
0.14556884765625
0.1434326171875
0.13214111328125
0.13153076171875
0.14068603515625
0.15411376953125
0.162353515625
0.15777587890625
0.15411376953125
0.15960693359375
0.16754150390625
0.16632080078125
0.166015625
0.1629638671875
0.162353515625
0.15533447265625
0.1580810546875
0.1824951171875
0.1971435546875
0.198974609375
0.20050048828125
0.196533203125
0.198974609375
0.20721435546875
0.22064208984375
0.2264404296875
0.2325439453125
0.2337646484375
0.23284912109375
0.22979736328125
0.21240234375
0.1959228515625
0.19866943359375
0.2191162109375
0.22430419921875
0.21820068359375
0.22979736328125
0.24658203125
0.2581787109375
0.2508544921875
0.23895263671875
0.2349853515625
0.25634765625
0.28961181640625
0.2923583984375
0.28594970703125
0.2801513671875
0.27191162109375
0.27069091796875
0.27984619140625
0.29327392578125
0.28961181640625
0.281982421875
0.2850341796875
0.2862548828125
0.29388427734375
0.30548095703125
0.32440185546875
0.335693359375
0.3387451171875
0.33233642578125
0.32623291015625
0.32867431640625
0.33477783203125
0.33935546875
0.35552978515625
0.3680419921875
0.369873046875
0.377197265625
0.38330078125
0.37811279296875
0.362548828125
0.38330078125
0.40496826171875
0.4083251953125
0.41961669921875
0.45440673828125
0.47332763671875
0.4632568359375
0.465087890625
0.458984375
0.45654296875
0.4571533203125
0.467529296875
0.47576904296875
0.48614501953125
0.4974365234375
0.50750732421875
0.5224609375
0.5322265625
0.5584716796875
0.58197021484375
0.58258056640625
0.57159423828125
0.5511474609375
0.5389404296875
0.5364990234375
0.53802490234375
0.54595947265625
0.5706787109375
0.5938720703125
0.62896728515625
0.65673828125
0.645751953125
0.62957763671875
0.63079833984375
0.64697265625
0.65582275390625
0.66009521484375
0.66131591796875
0.6646728515625
0.66314697265625
0.66162109375
0.66192626953125
0.66802978515625
0.67535400390625
0.679931640625
0.68145751953125
0.6884765625
0.68603515625
0.67962646484375
0.67169189453125
0.66802978515625
0.6768798828125
0.693359375
0.71258544921875
0.71868896484375
0.7196044921875
0.72540283203125
0.728759765625
0.70587158203125
0.693359375
0.68603515625
0.6854248046875
0.67138671875
0.6695556640625
0.67169189453125
0.66650390625
0.65216064453125
0.625
0.6072998046875
0.59967041015625
0.61065673828125
0.6085205078125
0.57525634765625
0.54168701171875
0.5218505859375
0.50323486328125
0.48095703125
0.45745849609375
0.4400634765625
0.4205322265625
0.40130615234375
0.3753662109375
0.35797119140625
0.34393310546875
0.32806396484375
0.31341552734375
0.29296875
0.27191162109375
0.2447509765625
0.21392822265625
0.19134521484375
0.16937255859375
0.15777587890625
0.1556396484375
0.16632080078125
0.15472412109375
0.1202392578125
0.1104736328125
0.1104736328125
0.11077880859375
0.10009765625
0.067138671875
0.0396728515625
0.0286865234375
0.029296875
0.0152587890625
-0.00335693359375
-0.00885009765625
-0.01678466796875
-0.02838134765625
-0.04119873046875
-0.05096435546875
-0.067138671875
-0.081787109375
-0.08453369140625
-0.074462890625
-0.05859375
-0.05157470703125
-0.04425048828125
-0.0433349609375
-0.0531005859375
-0.06561279296875
-0.07476806640625
-0.0714111328125
-0.076904296875
-0.0927734375
-0.11077880859375
-0.12054443359375
-0.12359619140625
-0.120849609375
-0.11932373046875
-0.11749267578125
-0.108642578125
-0.087890625
-0.0787353515625
-0.084228515625
-0.08941650390625
-0.0994873046875
-0.103759765625
-0.10772705078125
-0.103759765625
-0.1092529296875
-0.1251220703125
-0.133056640625
-0.13275146484375
-0.1336669921875
-0.13946533203125
-0.13671875
-0.1263427734375
-0.115966796875
-0.10833740234375
-0.101318359375
-0.1031494140625
-0.10009765625
-0.10101318359375
-0.1068115234375
-0.11383056640625
-0.1220703125
-0.13214111328125
-0.1336669921875
-0.13519287109375
-0.13916015625
-0.1434326171875
-0.11077880859375
-0.07415771484375
-0.0811767578125
-0.08636474609375
-0.08331298828125
-0.06744384765625
-0.06561279296875
-0.06744384765625
-0.07354736328125
-0.0799560546875
-0.0836181640625
-0.09765625
-0.11260986328125
-0.1300048828125
-0.13275146484375
-0.11810302734375
-0.1043701171875
-0.08575439453125
-0.06500244140625
-0.0537109375
-0.0506591796875
-0.0579833984375
-0.0750732421875
-0.08544921875
-0.078125
-0.06988525390625
-0.076904296875
-0.081787109375
-0.09033203125
-0.0909423828125
-0.09063720703125
-0.08636474609375
-0.081787109375
-0.0762939453125
-0.06866455078125
-0.06744384765625
-0.0775146484375
-0.08392333984375
-0.0909423828125
-0.08819580078125
-0.0738525390625
-0.0579833984375
-0.067138671875
-0.07080078125
-0.078125
-0.09613037109375
-0.12481689453125
-0.13092041015625
-0.1025390625
-0.07598876953125
-0.05645751953125
-0.0286865234375
-0.01129150390625
-0.00091552734375
-0.0054931640625
-0.01800537109375
-0.02899169921875
-0.029296875
-0.030517578125
-0.042724609375
-0.04669189453125
-0.03631591796875
-0.03326416015625
-0.0494384765625
-0.06988525390625
-0.0787353515625
-0.08087158203125
-0.064697265625
-0.04638671875
-0.04547119140625
-0.03997802734375
-0.0323486328125
-0.02655029296875
-0.03387451171875
-0.0396728515625
-0.0445556640625
-0.0457763671875
-0.04608154296875
-0.047607421875
-0.0445556640625
-0.04180908203125
-0.04302978515625
-0.05157470703125
-0.06378173828125
-0.05645751953125
-0.04974365234375
-0.0439453125
-0.03692626953125
-0.03570556640625
-0.0396728515625
-0.04180908203125
-0.03997802734375
-0.0457763671875
-0.05615234375
-0.05828857421875
-0.05645751953125
-0.06256103515625
-0.06072998046875
-0.04302978515625
-0.0341796875
-0.0323486328125
-0.02227783203125
-0.02960205078125
-0.0299072265625
-0.03875732421875
-0.0384521484375
-0.023193359375
-0.008544921875
-0.01861572265625
-0.04150390625
-0.04791259765625
-0.0494384765625
-0.05340576171875
-0.05950927734375
-0.0592041015625
-0.0616455078125
-0.064697265625
-0.06683349609375
-0.06591796875
-0.06866455078125
-0.07293701171875
-0.06622314453125
-0.03387451171875
0.00244140625
0.0103759765625
-0.0115966796875
-0.03021240234375
-0.04150390625
-0.048828125
-0.05157470703125
-0.05615234375
-0.0445556640625
-0.0341796875
-0.03631591796875
-0.035400390625
-0.02899169921875
-0.025634765625
-0.03265380859375
-0.02349853515625
-0.0177001953125
-0.01373291015625
-0.01007080078125
-0.01678466796875
-0.0244140625
-0.0360107421875
-0.04486083984375
-0.052490234375
-0.05157470703125
-0.04669189453125
-0.05035400390625
-0.0408935546875
-0.02227783203125
-0.0030517578125
0.00579833984375
-0.0018310546875
-0.01953125
-0.03875732421875
-0.0543212890625
-0.06195068359375
-0.06072998046875
-0.04974365234375
-0.035400390625
-0.0286865234375
-0.0286865234375
-0.02105712890625
-0.0054931640625
-0.0006103515625
0.00579833984375
-0.0067138671875
-0.023193359375
-0.02349853515625
-0.0177001953125
-0.01617431640625
-0.01495361328125
-0.013427734375
-0.01617431640625
-0.020751953125
-0.02349853515625
-0.02593994140625
-0.0164794921875
0.0018310546875
0.0
-0.0213623046875
-0.03387451171875
-0.03448486328125
-0.030517578125
-0.029296875
-0.0213623046875
-0.01373291015625
-0.00518798828125
-0.001220703125
-0.00579833984375
-0.00823974609375
-0.00640869140625
-0.00946044921875
-0.01129150390625
-0.02166748046875
-0.02838134765625
-0.03082275390625
-0.0335693359375
-0.02899169921875
-0.01861572265625
-0.0103759765625
-0.00701904296875
-0.010986328125
-0.00579833984375
0.00640869140625
0.02044677734375
0.01312255859375
-0.0115966796875
-0.02349853515625
-0.0311279296875
-0.03082275390625
-0.02777099609375
-0.02899169921875
-0.030517578125
-0.03143310546875
-0.02044677734375
-0.0115966796875
-0.008544921875
-0.001220703125
0.00640869140625
0.02227783203125
0.01190185546875
-0.00396728515625
-0.0054931640625
-0.00885009765625
-0.00396728515625
0.003662109375
0.0030517578125
-0.0164794921875
-0.037841796875
-0.04608154296875
-0.0469970703125
-0.032958984375
-0.01678466796875
-0.00213623046875
0.00640869140625
0.0018310546875
-0.001220703125
0.00885009765625
0.01220703125
0.01007080078125
-0.006103515625
-0.023193359375
-0.03204345703125
-0.02288818359375
-0.02166748046875
-0.01983642578125
-0.0146484375
-0.0115966796875
-0.0128173828125
-0.0128173828125
-0.00152587890625
0.01556396484375
0.02410888671875
0.02105712890625
0.02197265625
0.01861572265625
0.0103759765625
0.015869140625
0.0103759765625
0.0
-0.00640869140625
-0.01312255859375
-0.01434326171875
-0.00244140625
0.02838134765625
0.0408935546875
0.0390625
0.02105712890625
0.0067138671875
0.0115966796875
0.01068115234375
0.0128173828125
0.01068115234375
0.00885009765625
0.00518798828125
0.001220703125
0.0018310546875
0.0042724609375
0.00885009765625
0.00885009765625
0.01251220703125
0.0140380859375
0.0213623046875
0.02655029296875
0.01434326171875
0.01312255859375
0.015869140625
0.008544921875
0.0054931640625
0.01251220703125
0.0341796875
0.0311279296875
0.008544921875
-0.00213623046875
-0.0048828125
0.0006103515625
-0.00213623046875
0.0018310546875
0.0152587890625
0.0054931640625
0.0048828125
0.006103515625
0.01190185546875
0.0115966796875
0.01190185546875
0.029296875
0.03997802734375
0.0421142578125
0.0445556640625
0.048828125
0.03570556640625
0.03265380859375
0.04150390625
0.05462646484375
0.064697265625
0.062255859375
0.06561279296875
0.08880615234375
0.1263427734375
0.14862060546875
0.16143798828125
0.17333984375
0.18402099609375
0.1904296875
0.1959228515625
0.2008056640625
0.20538330078125
0.21087646484375
0.208740234375
0.208740234375
0.2117919921875
0.22918701171875
0.24261474609375
0.2392578125
0.223388671875
0.20660400390625
0.20416259765625
0.20538330078125
0.21331787109375
0.225830078125
0.23834228515625
0.2294921875
0.2130126953125
0.2105712890625
0.218505859375
0.22491455078125
0.22674560546875
0.22186279296875
0.2197265625
0.21331787109375
0.21514892578125
0.2301025390625
0.24017333984375
0.24444580078125
0.24383544921875
0.2386474609375
0.2392578125
0.2423095703125
0.25115966796875
0.25787353515625
0.27008056640625
0.29296875
0.3009033203125
0.283203125
0.27679443359375
0.27618408203125
0.291748046875
0.30792236328125
0.313720703125
0.30364990234375
0.29632568359375
0.29296875
0.272216796875
0.24627685546875
0.2130126953125
0.1806640625
0.16357421875
0.155029296875
0.1519775390625
0.14892578125
0.14739990234375
0.14678955078125
0.1495361328125
0.1611328125
0.1708984375
0.174560546875
0.166015625
0.15289306640625
0.1544189453125
0.15777587890625
0.15289306640625
0.12481689453125
0.10345458984375
0.0927734375
0.09063720703125
0.08636474609375
0.08056640625
0.08148193359375
0.0830078125
0.07781982421875
0.0738525390625
0.0701904296875
0.072021484375
0.07049560546875
0.07232666015625
0.0689697265625
0.06011962890625
0.05828857421875
0.04364013671875
0.028076171875
0.015869140625
0.0140380859375
0.01922607421875
0.03204345703125
0.03265380859375
0.0250244140625
0.0238037109375
0.03265380859375
0.04547119140625
0.04638671875
0.03936767578125
0.04669189453125
0.03326416015625
0.00823974609375
-0.0048828125
0.00885009765625
0.03326416015625
0.03753662109375
0.0299072265625
0.01373291015625
0.01708984375
0.03173828125
0.047607421875
0.057373046875
0.05035400390625
0.04119873046875
0.0396728515625
0.04486083984375
0.04730224609375
0.03631591796875
0.03143310546875
0.02532958984375
0.02716064453125
0.01739501953125
0.00823974609375
0.00030517578125
-0.01068115234375
-0.01434326171875
-0.00244140625
0.02349853515625
0.0732421875
0.09368896484375
0.081787109375
0.07232666015625
0.07568359375
0.0799560546875
0.06866455078125
0.04913330078125
0.029296875
0.0164794921875
-0.00213623046875
-0.0311279296875
-0.0579833984375
-0.08331298828125
-0.10589599609375
-0.13641357421875
-0.16387939453125
-0.18524169921875
-0.2069091796875
-0.22125244140625
-0.23345947265625
-0.2398681640625
-0.2496337890625
-0.25054931640625
-0.252685546875
-0.2386474609375
-0.18951416015625
-0.1153564453125
-0.03326416015625
0.054931640625
0.1617431640625
0.2899169921875
0.439453125
0.5889892578125
0.74462890625
0.93231201171875
1.16180419921875
1.43096923828125
1.7340087890625
2.04803466796875
2.36358642578125
2.65167236328125
2.8900146484375
3.06732177734375
3.218994140625
3.33587646484375
3.42498779296875
3.49700927734375
3.541259765625
3.53118896484375
3.42193603515625
3.23974609375
3.02703857421875
2.7691650390625
2.5164794921875
2.281494140625
2.04498291015625
1.8267822265625
1.60308837890625
1.363525390625
1.12274169921875
0.90484619140625
0.7354736328125
0.57403564453125
0.4534912109375
0.39031982421875
0.3607177734375
0.3338623046875
0.313720703125
0.3106689453125
0.31097412109375
0.31219482421875
0.30731201171875
0.289306640625
0.267333984375
0.260009765625
0.27862548828125
0.2960205078125
0.30364990234375
0.3070068359375
0.3033447265625
0.29144287109375
0.274658203125
0.2618408203125
0.2471923828125
0.228271484375
0.20751953125
0.19378662109375
0.184326171875
0.16632080078125
0.14739990234375
0.12451171875
0.1019287109375
0.0799560546875
0.05859375
0.03265380859375
0.01220703125
0.01251220703125
0.025634765625
0.0640869140625
0.1055908203125
0.1165771484375
0.10406494140625
0.108642578125
0.11962890625
0.11322021484375
0.08636474609375
0.05767822265625
0.037841796875
0.02716064453125
0.01495361328125
0.0103759765625
0.01708984375
0.01373291015625
0.01953125
0.03143310546875
0.05126953125
0.06103515625
0.047607421875
0.01708984375
0.0030517578125
0.00885009765625
0.0042724609375
0.006103515625
0.0347900390625
0.06683349609375
0.10467529296875
0.12908935546875
0.11932373046875
0.0830078125
0.0567626953125
0.04913330078125
0.04150390625
0.0457763671875
0.05828857421875
0.07476806640625
0.09613037109375
0.10986328125
0.1007080078125
0.084228515625
0.078125
0.0732421875
0.0732421875
0.07232666015625
0.07293701171875
0.07965087890625
0.087890625
0.10009765625
0.111083984375
0.115966796875
0.12725830078125
0.13092041015625
0.12176513671875
0.10772705078125
0.0933837890625
0.08697509765625
0.0921630859375
0.10498046875
0.111083984375
0.1153564453125
0.11383056640625
0.11749267578125
0.111083984375
0.11749267578125
0.137939453125
0.1495361328125
0.15869140625
0.14251708984375
0.1348876953125
0.13824462890625
0.15106201171875
0.17303466796875
0.17852783203125
0.1641845703125
0.14923095703125
0.14190673828125
0.14434814453125
0.16387939453125
0.18157958984375
0.19561767578125
0.20599365234375
0.21484375
0.20782470703125
0.201416015625
0.20416259765625
0.19317626953125
0.18524169921875
0.1904296875
0.2044677734375
0.23345947265625
0.2386474609375
0.22216796875
0.21728515625
0.2227783203125
0.22064208984375
0.223388671875
0.2239990234375
0.22735595703125
0.22735595703125
0.23529052734375
0.2459716796875
0.2435302734375
0.24688720703125
0.25299072265625
0.27313232421875
0.286865234375
0.2850341796875
0.27374267578125
0.25848388671875
0.25360107421875
0.25726318359375
0.267333984375
0.2716064453125
0.2764892578125
0.2825927734375
0.2850341796875
0.2911376953125
0.3009033203125
0.31829833984375
0.33233642578125
0.345458984375
0.350341796875
0.34637451171875
0.34912109375
0.3509521484375
0.35369873046875
0.35003662109375
0.3472900390625
0.35675048828125
0.367431640625
0.3631591796875
0.3533935546875
0.36346435546875
0.38665771484375
0.39947509765625
0.4058837890625
0.41412353515625
0.43426513671875
0.44769287109375
0.45928955078125
0.45928955078125
0.45623779296875
0.44921875
0.4473876953125
0.460205078125
0.47515869140625
0.47882080078125
0.48675537109375
0.48553466796875
0.47943115234375
0.49346923828125
0.5169677734375
0.526123046875
0.50811767578125
0.50994873046875
0.53985595703125
0.56243896484375
0.58349609375
0.5950927734375
0.59478759765625
0.59173583984375
0.5902099609375
0.59112548828125
0.59814453125
0.60638427734375
0.60943603515625
0.6243896484375
0.635986328125
0.64056396484375
0.63873291015625
0.6427001953125
0.65093994140625
0.65460205078125
0.64971923828125
0.6353759765625
0.645751953125
0.6683349609375
0.682373046875
0.69549560546875
0.7037353515625
0.70343017578125
0.68756103515625
0.693359375
0.6951904296875
0.679931640625
0.6549072265625
0.6646728515625
0.71197509765625
0.7391357421875
0.72540283203125
0.703125
0.6793212890625
0.66314697265625
0.65521240234375
0.65887451171875
0.6573486328125
0.6463623046875
0.6439208984375
0.64117431640625
0.64178466796875
0.63201904296875
0.6195068359375
0.60302734375
0.587158203125
0.57830810546875
0.572509765625
0.550537109375
0.53192138671875
0.5096435546875
0.474853515625
0.4498291015625
0.43060302734375
0.41748046875
0.40740966796875
0.38726806640625
0.35797119140625
0.35125732421875
0.35369873046875
0.34210205078125
0.313720703125
0.29022216796875
0.27191162109375
0.24658203125
0.23040771484375
0.2166748046875
0.1983642578125
0.17242431640625
0.15228271484375
0.140380859375
0.1336669921875
0.128173828125
0.1171875
0.1007080078125
0.0811767578125
0.0677490234375
0.054931640625
0.0372314453125
0.02899169921875
0.020751953125
0.00885009765625
0.00335693359375
-0.0091552734375
-0.0238037109375
-0.03509521484375
-0.0396728515625
-0.0433349609375
-0.04730224609375
-0.03570556640625
-0.0347900390625
-0.04608154296875
-0.05950927734375
-0.06256103515625
-0.059814453125
-0.059814453125
-0.05859375
-0.06561279296875
-0.07843017578125
-0.09246826171875
-0.10528564453125
-0.11962890625
-0.1312255859375
-0.13641357421875
-0.12481689453125
-0.10040283203125
-0.09368896484375
-0.09124755859375
-0.07293701171875
-0.06103515625
-0.0592041015625
-0.06195068359375
-0.06622314453125
-0.0750732421875
-0.078125
-0.08331298828125
-0.0909423828125
-0.08514404296875
-0.08544921875
-0.07293701171875
-0.05859375
-0.07537841796875
-0.0970458984375
-0.1031494140625
-0.10498046875
-0.0982666015625
-0.08880615234375
-0.0909423828125
-0.08575439453125
-0.08819580078125
-0.0994873046875
-0.11932373046875
-0.15289306640625
-0.166015625
-0.1507568359375
-0.11322021484375
-0.09857177734375
-0.09307861328125
-0.068359375
-0.04669189453125
-0.0537109375
-0.05767822265625
-0.06256103515625
-0.06744384765625
-0.067138671875
-0.07171630859375
-0.0677490234375
-0.0677490234375
-0.05706787109375
-0.0323486328125
-0.0390625
-0.06378173828125
-0.07659912109375
-0.07354736328125
-0.06378173828125
-0.0518798828125
-0.05126953125
-0.06439208984375
-0.06256103515625
-0.03448486328125
-0.01007080078125
-0.00579833984375
-0.0079345703125
-0.02197265625
-0.04547119140625
-0.06622314453125
-0.08026123046875
-0.09429931640625
-0.09613037109375
-0.08880615234375
-0.0762939453125
-0.06591796875
-0.04150390625
-0.01678466796875
-0.0115966796875
-0.02471923828125
-0.0445556640625
-0.052490234375
-0.04913330078125
-0.04302978515625
-0.04425048828125
-0.045166015625
-0.04547119140625
-0.0543212890625
-0.05828857421875
-0.06378173828125
-0.06103515625
-0.05584716796875
-0.054931640625
-0.05096435546875
-0.0433349609375
-0.03204345703125
-0.0103759765625
0.00732421875
0.0
-0.01556396484375
-0.0390625
-0.05157470703125
-0.05035400390625
-0.04638671875
-0.0433349609375
-0.04150390625
-0.04730224609375
-0.05126953125
-0.06072998046875
-0.05859375
-0.0384521484375
-0.02593994140625
-0.0164794921875
-0.02410888671875
-0.0323486328125
-0.02960205078125
-0.01373291015625
-0.00762939453125
-0.00946044921875
-0.02471923828125
-0.0439453125
-0.05157470703125
-0.05401611328125
-0.04791259765625
-0.04425048828125
-0.0469970703125
-0.02532958984375
-0.01007080078125
-0.00885009765625
-0.02166748046875
-0.02227783203125
-0.020751953125
-0.0311279296875
-0.02960205078125
-0.02166748046875
-0.03173828125
-0.03173828125
-0.0311279296875
-0.03753662109375
-0.04180908203125
-0.04730224609375
-0.04180908203125
-0.032958984375
-0.01495361328125
-0.01434326171875
-0.0091552734375
-0.00823974609375
-0.01739501953125
-0.0323486328125
-0.04730224609375
-0.03997802734375
-0.0341796875
-0.03326416015625
-0.04119873046875
-0.048828125
-0.05157470703125
-0.05218505859375
-0.04608154296875
-0.0469970703125
-0.0494384765625
-0.05340576171875
-0.04486083984375
-0.03875732421875
-0.04608154296875
-0.06072998046875
-0.0775146484375
-0.08331298828125
-0.07476806640625
-0.05645751953125
-0.03570556640625
-0.02227783203125
0.00091552734375
0.0140380859375
0.0048828125
-0.010986328125
-0.02288818359375
-0.03875732421875
-0.045166015625
-0.04364013671875
-0.0347900390625
-0.0030517578125
0.03082275390625
0.0225830078125
-0.00030517578125
-0.0140380859375
-0.01495361328125
-0.018310546875
-0.0244140625
-0.01983642578125
-0.02349853515625
-0.02593994140625
-0.03204345703125
-0.0372314453125
-0.02655029296875
-0.0048828125
0.0164794921875
0.0164794921875
-0.00732421875
-0.0201416015625
-0.013427734375
-0.00640869140625
-0.01312255859375
-0.01708984375
-0.0225830078125
-0.02899169921875
-0.02471923828125
-0.0146484375
-0.0103759765625
-0.018310546875
-0.02349853515625
-0.0152587890625
-0.01190185546875
-0.00701904296875
0.0128173828125
0.0128173828125
0.01129150390625
0.00640869140625
-0.00152587890625
-0.01129150390625
-0.0152587890625
-0.02197265625
-0.0299072265625
-0.035400390625
-0.035400390625
-0.035400390625
-0.03143310546875
0.00244140625
0.0140380859375
0.0054931640625
-0.008544921875
-0.01251220703125
-0.01373291015625
-0.01495361328125
-0.00946044921875
-0.0006103515625
0.00335693359375
-0.00244140625
-0.01373291015625
-0.02105712890625
-0.02471923828125
-0.023193359375
-0.02349853515625
-0.0213623046875
-0.01708984375
-0.0189208984375
-0.010986328125
0.00030517578125
0.00244140625
0.00244140625
0.00396728515625
0.00244140625
-0.00274658203125
0.00274658203125
0.01708984375
0.0201416015625
-0.00213623046875
-0.02838134765625
-0.03204345703125
-0.0311279296875
-0.0347900390625
-0.0323486328125
-0.015869140625
0.0067138671875
0.01953125
0.01983642578125
0.01312255859375
0.00396728515625
-0.00518798828125
-0.0152587890625
-0.01434326171875
-0.01983642578125
-0.02838134765625
-0.03021240234375
-0.02471923828125
-0.02349853515625
-0.030517578125
-0.03692626953125
-0.0421142578125
-0.03204345703125
-0.01983642578125
-0.00244140625
0.0067138671875
0.02655029296875
0.025634765625
0.00396728515625
-0.0103759765625
-0.0177001953125
-0.02899169921875
-0.04547119140625
-0.0653076171875
-0.07781982421875
-0.0787353515625
-0.05279541015625
-0.02197265625
-0.00335693359375
0.01312255859375
0.035400390625
0.0616455078125
0.07110595703125
0.04608154296875
0.00213623046875
-0.01190185546875
0.01556396484375
0.032958984375
0.02685546875
0.01434326171875
0.0042724609375
0.0054931640625
0.00518798828125
0.01251220703125
0.0042724609375
-0.0006103515625
0.006103515625
0.02044677734375
0.02410888671875
0.013427734375
0.01190185546875
0.01068115234375
0.009765625
0.009765625
-0.00152587890625
-0.0177001953125
-0.01739501953125
-0.0189208984375
-0.02685546875
-0.02960205078125
-0.02105712890625
-0.00518798828125
0.015869140625
0.040283203125
0.0469970703125
0.0323486328125
0.02227783203125
0.01953125
0.0164794921875
0.0244140625
0.0408935546875
0.04180908203125
0.01983642578125
0.00885009765625
0.00823974609375
0.0067138671875
0.013427734375
0.042724609375
0.06591796875
0.0738525390625
0.068359375
0.07232666015625
0.09307861328125
0.10406494140625
0.1031494140625
0.09765625
0.09674072265625
0.10589599609375
0.11199951171875
0.120849609375
0.1416015625
0.14801025390625
0.152587890625
0.16754150390625
0.1885986328125
0.20599365234375
0.20416259765625
0.20843505859375
0.2117919921875
0.21575927734375
0.218505859375
0.2099609375
0.198974609375
0.184326171875
0.1708984375
0.147705078125
0.1275634765625
0.13397216796875
0.1702880859375
0.20294189453125
0.2288818359375
0.2337646484375
0.2337646484375
0.223388671875
0.21392822265625
0.21728515625
0.216064453125
0.208740234375
0.20782470703125
0.21392822265625
0.22064208984375
0.24871826171875
0.26611328125
0.26336669921875
0.269775390625
0.2752685546875
0.2630615234375
0.24932861328125
0.24749755859375
0.24444580078125
0.2166748046875
0.1837158203125
0.1605224609375
0.14495849609375
0.1214599609375
0.08270263671875
0.08056640625
0.1080322265625
0.12542724609375
0.1239013671875
0.1092529296875
0.09307861328125
0.10101318359375
0.13458251953125
0.14556884765625
0.1409912109375
0.13275146484375
0.120849609375
0.11688232421875
0.1153564453125
0.118408203125
0.126953125
0.1324462890625
0.1239013671875
0.101318359375
0.091552734375
0.093994140625
0.09796142578125
0.0836181640625
0.072021484375
0.06439208984375
0.057373046875
0.0537109375
0.05340576171875
0.05126953125
0.0494384765625
0.05584716796875
0.0750732421875
0.07049560546875
0.050048828125
0.02349853515625
-0.00152587890625
-0.01739501953125
-0.01708984375
-0.009765625
-0.01251220703125
-0.01800537109375
-0.02227783203125
-0.02777099609375
-0.006103515625
0.01251220703125
0.01495361328125
0.00457763671875
-0.01312255859375
-0.0262451171875
-0.07080078125
-0.04669189453125
-0.00152587890625
0.0189208984375
0.0360107421875
0.04241943359375
0.0347900390625
0.0140380859375
0.00885009765625
0.009765625
0.00640869140625
0.00640869140625
0.01739501953125
0.02716064453125
0.03692626953125
0.04547119140625
0.03631591796875
0.03021240234375
0.0323486328125
0.0286865234375
0.0177001953125
0.01129150390625
0.01190185546875
0.01251220703125
0.0238037109375
0.03173828125
0.03631591796875
0.04180908203125
0.0396728515625
0.0457763671875
0.0445556640625
0.02899169921875
0.02197265625
0.01312255859375
0.0
-0.0244140625
-0.04974365234375
-0.08087158203125
-0.1251220703125
-0.17669677734375
-0.2227783203125
-0.24505615234375
-0.26153564453125
-0.27862548828125
-0.28228759765625
-0.26885986328125
-0.24627685546875
-0.23406982421875
-0.23590087890625
-0.218505859375
-0.177001953125
-0.1068115234375
-0.03631591796875
0.04241943359375
0.13092041015625
0.2484130859375
0.3912353515625
0.531005859375
0.68634033203125
0.885009765625
1.12762451171875
1.39007568359375
1.67999267578125
1.98883056640625
2.30010986328125
2.59918212890625
2.867431640625
3.07281494140625
3.2232666015625
3.33404541015625
3.42529296875
3.49456787109375
3.53302001953125
3.50616455078125
3.4088134765625
3.23822021484375
3.03863525390625
2.80181884765625
2.5640869140625
2.34619140625
2.13134765625
1.9207763671875
1.70196533203125
1.43951416015625
1.168212890625
0.9283447265625
0.74066162109375
0.55633544921875
0.38360595703125
0.2825927734375
0.24871826171875
0.24810791015625
0.2642822265625
0.2850341796875
0.31524658203125
0.3363037109375
0.31707763671875
0.28228759765625
0.25909423828125
0.25390625
0.25390625
0.25390625
0.25909423828125
0.27313232421875
0.26611328125
0.2435302734375
0.21942138671875
0.201416015625
0.1922607421875
0.16937255859375
0.15380859375
0.14434814453125
0.13397216796875
0.1177978515625
0.1007080078125
0.09429931640625
0.07537841796875
0.0640869140625
0.0543212890625
0.04058837890625
0.03265380859375
0.03631591796875
0.0360107421875
0.02471923828125
0.01678466796875
0.013427734375
0.01922607421875
0.0323486328125
0.040283203125
0.0323486328125
0.020751953125
0.01190185546875
0.0238037109375
0.03570556640625
0.0274658203125
0.0
-0.02227783203125
-0.03082275390625
-0.0323486328125
-0.0323486328125
-0.02044677734375
-0.00732421875
-0.00732421875
-0.00579833984375
0.00213623046875
0.00335693359375
0.00579833984375
0.0079345703125
0.0079345703125
0.01312255859375
0.00335693359375
-0.0042724609375
0.00152587890625
0.009765625
0.0079345703125
0.00823974609375
0.009765625
0.008544921875
0.0048828125
0.00152587890625
0.00335693359375
0.00823974609375
0.0274658203125
0.03692626953125
0.04638671875
0.06378173828125
0.0714111328125
0.068359375
0.0537109375
0.0311279296875
0.01922607421875
0.01983642578125
0.0341796875
0.03509521484375
0.03753662109375
0.05950927734375
0.07537841796875
0.08941650390625
0.09033203125
0.08880615234375
0.087890625
0.07904052734375
0.07659912109375
0.0738525390625
0.07080078125
0.07965087890625
0.0897216796875
0.091552734375
0.0885009765625
0.086669921875
0.07415771484375
0.07171630859375
0.0799560546875
0.09368896484375
0.1251220703125
0.13671875
0.11688232421875
0.1055908203125
0.113525390625
0.11993408203125
0.13092041015625
0.142822265625
0.125732421875
0.096435546875
0.0799560546875
0.07781982421875
0.07476806640625
0.08758544921875
0.11749267578125
0.142822265625
0.1702880859375
0.19256591796875
0.1971435546875
0.18646240234375
0.1776123046875
0.185546875
0.1953125
0.1971435546875
0.1904296875
0.177001953125
0.16998291015625
0.1715087890625
0.17608642578125
0.18035888671875
0.18524169921875
0.1824951171875
0.1837158203125
0.19500732421875
0.20843505859375
0.22216796875
0.22216796875
0.20965576171875
0.21453857421875
0.2325439453125
0.2508544921875
0.2490234375
0.2276611328125
0.20904541015625
0.21331787109375
0.23345947265625
0.245361328125
0.2587890625
0.26397705078125
0.2557373046875
0.26885986328125
0.2880859375
0.299072265625
0.30029296875
0.2947998046875
0.289306640625
0.28076171875
0.294189453125
0.2899169921875
0.2850341796875
0.2911376953125
0.3057861328125
0.3070068359375
0.31585693359375
0.350341796875
0.3680419921875
0.37200927734375
0.39581298828125
0.4229736328125
0.4156494140625
0.396728515625
0.39703369140625
0.3912353515625
0.37750244140625
0.3759765625
0.38665771484375
0.40252685546875
0.42327880859375
0.44921875
0.4559326171875
0.4522705078125
0.44921875
0.46173095703125
0.48858642578125
0.51513671875
0.5230712890625
0.5194091796875
0.5224609375
0.5303955078125
0.52947998046875
0.53619384765625
0.531005859375
0.52703857421875
0.5279541015625
0.537109375
0.55023193359375
0.56396484375
0.574951171875
0.58502197265625
0.5877685546875
0.5889892578125
0.60272216796875
0.615234375
0.6219482421875
0.6304931640625
0.62286376953125
0.6109619140625
0.6109619140625
0.61187744140625
0.601806640625
0.59906005859375
0.5950927734375
0.58990478515625
0.57952880859375
0.5804443359375
0.59539794921875
0.62713623046875
0.65032958984375
0.65277099609375
0.66009521484375
0.67474365234375
0.69610595703125
0.67901611328125
0.6427001953125
0.6121826171875
0.59112548828125
0.59295654296875
0.601806640625
0.60028076171875
0.58319091796875
0.5609130859375
0.54779052734375
0.5322265625
0.517578125
0.50262451171875
0.4949951171875
0.4766845703125
0.467529296875
0.45257568359375
0.42083740234375
0.39093017578125
0.350341796875
0.323486328125
0.30517578125
0.28839111328125
0.28167724609375
0.27923583984375
0.26458740234375
0.2374267578125
0.20599365234375
0.20233154296875
0.20843505859375
0.20050048828125
0.17486572265625
0.15777587890625
0.133056640625
0.10589599609375
0.09796142578125
0.0823974609375
0.07049560546875
0.0469970703125
0.0311279296875
0.0372314453125
0.03692626953125
0.02166748046875
0.003662109375
-0.00823974609375
-0.0225830078125
-0.04119873046875
-0.0555419921875
-0.0634765625
-0.06011962890625
-0.06256103515625
-0.0714111328125
-0.0860595703125
-0.0970458984375
-0.09674072265625
-0.09368896484375
-0.10162353515625
-0.11260986328125
-0.11627197265625
-0.11383056640625
-0.11474609375
-0.11138916015625
-0.10986328125
-0.1104736328125
-0.11199951171875
-0.113525390625
-0.1165771484375
-0.1263427734375
-0.126953125
-0.130615234375
-0.1416015625
-0.15533447265625
-0.157470703125
-0.15411376953125
-0.15838623046875
-0.15380859375
-0.14862060546875
-0.1531982421875
-0.150146484375
-0.14739990234375
-0.150146484375
-0.1458740234375
-0.13336181640625
-0.12847900390625
-0.13458251953125
-0.1458740234375
-0.15106201171875
-0.1556396484375
-0.16387939453125
-0.15716552734375
-0.1416015625
-0.1373291015625
-0.13580322265625
-0.13275146484375
-0.1361083984375
-0.14251708984375
-0.13397216796875
-0.1190185546875
-0.1104736328125
-0.11505126953125
-0.11016845703125
-0.106201171875
-0.1116943359375
-0.1177978515625
-0.11474609375
-0.1202392578125
-0.12908935546875
-0.14434814453125
-0.14434814453125
-0.13275146484375
-0.12359619140625
-0.1239013671875
-0.1336669921875
-0.14129638671875
-0.15594482421875
-0.1702880859375
-0.1763916015625
-0.1776123046875
-0.16754150390625
-0.16754150390625
-0.16143798828125
-0.13458251953125
-0.11932373046875
-0.13946533203125
-0.15045166015625
-0.1190185546875
-0.06378173828125
-0.02166748046875
-0.0048828125
-0.008544921875
-0.035400390625
-0.07537841796875
-0.098876953125
-0.09796142578125
-0.08544921875
-0.08392333984375
-0.093994140625
-0.10345458984375
-0.10772705078125
-0.10894775390625
-0.1007080078125
-0.08514404296875
-0.07476806640625
-0.08758544921875
-0.0860595703125
-0.0775146484375
-0.0714111328125
-0.07171630859375
-0.07659912109375
-0.0750732421875
-0.07232666015625
-0.06378173828125
-0.0640869140625
-0.07904052734375
-0.09796142578125
-0.10284423828125
-0.10528564453125
-0.1104736328125
-0.09613037109375
-0.0726318359375
-0.06072998046875
-0.0640869140625
-0.0714111328125
-0.06805419921875
-0.0732421875
-0.07171630859375
-0.0616455078125
-0.06866455078125
-0.08331298828125
-0.0970458984375
-0.09674072265625
-0.087890625
-0.08636474609375
-0.09307861328125
-0.0927734375
-0.078125
-0.0579833984375
-0.0408935546875
-0.02838134765625
-0.025634765625
-0.035400390625
-0.047607421875
-0.05096435546875
-0.05615234375
-0.054931640625
-0.06011962890625
-0.069580078125
-0.0775146484375
-0.0860595703125
-0.08758544921875
-0.07537841796875
-0.0653076171875
-0.067138671875
-0.07659912109375
-0.07232666015625
-0.0531005859375
-0.04608154296875
-0.05828857421875
-0.0762939453125
-0.074462890625
-0.07476806640625
-0.076904296875
-0.08148193359375
-0.08056640625
-0.06988525390625
-0.052490234375
-0.04150390625
-0.04425048828125
-0.04852294921875
-0.05340576171875
-0.062255859375
-0.05584716796875
-0.0469970703125
-0.04913330078125
-0.08148193359375
-0.1055908203125
-0.0885009765625
-0.06134033203125
-0.067138671875
-0.09521484375
-0.08636474609375
-0.04791259765625
-0.00885009765625
0.008544921875
0.0067138671875
-0.02288818359375
-0.0531005859375
-0.03631591796875
-0.00579833984375
0.00213623046875
-0.01678466796875
-0.0384521484375
-0.0506591796875
-0.05645751953125
-0.062255859375
-0.0616455078125
-0.04974365234375
-0.04791259765625
-0.05645751953125
-0.062255859375
-0.0653076171875
-0.07476806640625
-0.078125
-0.074462890625
-0.052490234375
-0.03814697265625
-0.03082275390625
-0.03265380859375
-0.045166015625
-0.03814697265625
-0.0384521484375
-0.03814697265625
-0.035400390625
-0.03021240234375
-0.02777099609375
-0.03082275390625
-0.03814697265625
-0.04791259765625
-0.04608154296875
-0.042724609375
-0.032958984375
-0.030517578125
-0.0244140625
-0.01495361328125
-0.0189208984375
-0.025634765625
-0.03448486328125
-0.06011962890625
-0.06500244140625
-0.05584716796875
-0.05096435546875
-0.04302978515625
-0.03143310546875
-0.01922607421875
-0.01953125
-0.02410888671875
-0.03570556640625
-0.0439453125
-0.0439453125
-0.0396728515625
-0.03662109375
-0.04119873046875
-0.03387451171875
-0.0299072265625
-0.01190185546875
0.0103759765625
0.010986328125
-0.0079345703125
-0.02532958984375
-0.03509521484375
-0.03875732421875
-0.03509521484375
-0.0274658203125
-0.0250244140625
-0.020751953125
-0.01434326171875
0.0054931640625
0.009765625
-0.0091552734375
-0.03082275390625
-0.0390625
-0.03173828125
-0.03509521484375
-0.0445556640625
-0.0494384765625
-0.0494384765625
-0.05889892578125
-0.037841796875
-0.0103759765625
-0.025634765625
-0.04974365234375
-0.05706787109375
-0.048828125
-0.047607421875
-0.04547119140625
-0.0390625
-0.03021240234375
-0.0152587890625
0.0018310546875
-0.00823974609375
-0.02960205078125
-0.0335693359375
-0.0262451171875
-0.02655029296875
-0.0372314453125
-0.03326416015625
-0.02716064453125
-0.01068115234375
0.00213623046875
0.00213623046875
0.00701904296875
0.0067138671875
0.0054931640625
0.0018310546875
-0.0030517578125
0.009765625
0.018310546875
0.006103515625
-0.008544921875
-0.0103759765625
-0.003662109375
0.0042724609375
0.01495361328125
0.02227783203125
0.03509521484375
0.04180908203125
0.04119873046875
0.03662109375
0.0372314453125
0.0531005859375
0.08056640625
0.089111328125
0.074462890625
0.0677490234375
0.0732421875
0.081787109375
0.09552001953125
0.1153564453125
0.1348876953125
0.14984130859375
0.155029296875
0.1495361328125
0.14678955078125
0.14678955078125
0.15289306640625
0.169677734375
0.186767578125
0.18280029296875
0.17547607421875
0.15777587890625
0.146484375
0.13641357421875
0.12603759765625
0.11749267578125
0.12054443359375
0.13671875
0.14678955078125
0.150146484375
0.16082763671875
0.191650390625
0.21820068359375
0.211181640625
0.21636962890625
0.21514892578125
0.2099609375
0.2197265625
0.2349853515625
0.2301025390625
0.21575927734375
0.2203369140625
0.2447509765625
0.264892578125
0.26702880859375
0.24139404296875
0.2069091796875
0.1751708984375
0.15777587890625
0.1470947265625
0.12847900390625
0.11077880859375
0.09063720703125
0.106201171875
0.1446533203125
0.13702392578125
0.10345458984375
0.07049560546875
0.0634765625
0.0665283203125
0.0689697265625
0.0640869140625
0.0567626953125
0.06561279296875
0.09307861328125
0.11810302734375
0.13397216796875
0.13763427734375
0.12908935546875
0.12359619140625
0.11566162109375
0.09735107421875
0.0726318359375
0.05706787109375
0.05096435546875
0.0537109375
0.05126953125
0.0445556640625
0.04058837890625
0.037841796875
0.04119873046875
0.04119873046875
0.03143310546875
0.01953125
0.023193359375
0.029296875
0.03143310546875
0.01861572265625
0.00213623046875
-0.01495361328125
-0.0274658203125
-0.030517578125
-0.02532958984375
-0.02044677734375
-0.01983642578125
-0.030517578125
-0.02899169921875
-0.0250244140625
-0.0140380859375
0.0042724609375
0.01922607421875
0.02777099609375
0.02685546875
0.0103759765625
-0.00396728515625
-0.01220703125
-0.023193359375
-0.02899169921875
-0.02105712890625
-0.01556396484375
-0.0079345703125
-0.0128173828125
-0.02197265625
-0.02532958984375
-0.01373291015625
0.018310546875
0.035400390625
0.0213623046875
0.010986328125
0.01251220703125
0.02197265625
0.01068115234375
0.00244140625
0.008544921875
0.01617431640625
0.0152587890625
0.01739501953125
0.01678466796875
0.015869140625
0.0299072265625
0.02105712890625
0.00274658203125
0.01068115234375
0.0311279296875
0.02716064453125
0.0115966796875
0.00579833984375
0.02197265625
0.009765625
-0.025634765625
-0.0665283203125
-0.1141357421875
-0.15289306640625
-0.18798828125
-0.2215576171875
-0.25970458984375
-0.26947021484375
-0.26763916015625
-0.26031494140625
-0.2581787109375
-0.2752685546875
-0.2789306640625
-0.27435302734375
-0.2325439453125
-0.181884765625
-0.14892578125
-0.1068115234375
-0.0347900390625
0.05584716796875
0.1544189453125
0.2911376953125
0.45135498046875
0.611572265625
0.77880859375
0.97564697265625
1.22283935546875
1.50054931640625
1.79718017578125
2.1038818359375
2.4188232421875
2.7105712890625
2.958984375
3.16925048828125
3.33404541015625
3.43109130859375
3.49578857421875
3.5577392578125
3.57086181640625
3.5211181640625
3.38165283203125
3.1951904296875
2.97607421875
2.724609375
2.48443603515625
2.29888916015625
2.1112060546875
1.89605712890625
1.64154052734375
1.36688232421875
1.09100341796875
0.85235595703125
0.67718505859375
0.47088623046875
0.262451171875
0.13641357421875
0.0811767578125
0.08575439453125
0.10955810546875
0.155029296875
0.189208984375
0.21240234375
0.2386474609375
0.24658203125
0.25726318359375
0.25421142578125
0.2392578125
0.22735595703125
0.2252197265625
0.228271484375
0.233154296875
0.23468017578125
0.23101806640625
0.21759033203125
0.20263671875
0.184326171875
0.15838623046875
0.142822265625
0.12481689453125
0.10772705078125
0.0946044921875
0.07049560546875
0.05889892578125
0.062255859375
0.0543212890625
0.03448486328125
0.0115966796875
-0.00091552734375
-0.00213623046875
-0.0006103515625
0.01312255859375
0.0396728515625
0.0531005859375
0.03662109375
0.01129150390625
0.0079345703125
0.015869140625
0.0372314453125
0.02899169921875
-0.003662109375
-0.0225830078125
-0.02410888671875
-0.01861572265625
-0.01861572265625
-0.00946044921875
-0.01373291015625
-0.0238037109375
-0.0225830078125
-0.0152587890625
-0.0042724609375
0.01312255859375
0.03570556640625
0.0396728515625
0.013427734375
-0.0152587890625
-0.04058837890625
-0.0555419921875
-0.05828857421875
-0.05157470703125
-0.03936767578125
-0.00579833984375
0.03997802734375
0.05157470703125
0.03662109375
0.0274658203125
0.0244140625
0.0347900390625
0.0439453125
0.05126953125
0.0457763671875
0.04608154296875
0.0445556640625
0.0433349609375
0.03631591796875
0.02288818359375
0.02197265625
0.0286865234375
0.0445556640625
0.0592041015625
0.0537109375
0.05584716796875
0.048828125
0.035400390625
0.03021240234375
0.0433349609375
0.06072998046875
0.06805419921875
0.0909423828125
0.10040283203125
0.0970458984375
0.09002685546875
0.08575439453125
0.0726318359375
0.06622314453125
0.07049560546875
0.08087158203125
0.10040283203125
0.11016845703125
0.1092529296875
0.10223388671875
0.10406494140625
0.10589599609375
0.0946044921875
0.09521484375
0.10833740234375
0.10589599609375
0.08209228515625
0.07598876953125
0.087890625
0.11138916015625
0.12939453125
0.14251708984375
0.159912109375
0.1708984375
0.17242431640625
0.17242431640625
0.1654052734375
0.1556396484375
0.155029296875
0.15899658203125
0.166015625
0.1690673828125
0.16632080078125
0.16143798828125
0.15350341796875
0.1544189453125
0.159912109375
0.16632080078125
0.16845703125
0.15625
0.17303466796875
0.2093505859375
0.23590087890625
0.2288818359375
0.2081298828125
0.18768310546875
0.1715087890625
0.184326171875
0.23162841796875
0.262451171875
0.234375
0.203857421875
0.22613525390625
0.24261474609375
0.24261474609375
0.23773193359375
0.242919921875
0.2685546875
0.2880859375
0.28900146484375
0.2850341796875
0.3070068359375
0.33721923828125
0.34149169921875
0.33294677734375
0.330810546875
0.3338623046875
0.3375244140625
0.33782958984375
0.34454345703125
0.352783203125
0.360107421875
0.36376953125
0.37445068359375
0.384521484375
0.3887939453125
0.37994384765625
0.36163330078125
0.34942626953125
0.3436279296875
0.34027099609375
0.34576416015625
0.377197265625
0.4302978515625
0.48797607421875
0.51300048828125
0.50048828125
0.49530029296875
0.48736572265625
0.4718017578125
0.47454833984375
0.48553466796875
0.498046875
0.52520751953125
0.54595947265625
0.5615234375
0.570068359375
0.58563232421875
0.58837890625
0.56915283203125
0.54931640625
0.5572509765625
0.5718994140625
0.5706787109375
0.5731201171875
0.59051513671875
0.615234375
0.62225341796875
0.625
0.6341552734375
0.64361572265625
0.648193359375
0.64788818359375
0.6494140625
0.65338134765625
0.6512451171875
0.64849853515625
0.63690185546875
0.62255859375
0.633544921875
0.64361572265625
0.65887451171875
0.68145751953125
0.6976318359375
0.69000244140625
0.67413330078125
0.6597900390625
0.65399169921875
0.6591796875
0.65887451171875
0.65643310546875
0.6451416015625
0.62164306640625
0.61004638671875
0.61248779296875
0.61798095703125
0.6256103515625
0.6219482421875
0.6005859375
0.572509765625
0.5572509765625
0.556640625
0.550537109375
0.52276611328125
0.489501953125
0.462646484375
0.44189453125
0.4229736328125
0.41259765625
0.396728515625
0.37506103515625
0.3302001953125
0.296630859375
0.27099609375
0.25970458984375
0.25360107421875
0.25238037109375
0.23590087890625
0.20782470703125
0.18768310546875
0.1727294921875
0.16510009765625
0.14678955078125
0.11932373046875
0.1043701171875
0.07598876953125
0.0482177734375
0.02685546875
0.01251220703125
0.0079345703125
0.00396728515625
0.00030517578125
-0.00823974609375
-0.0048828125
-0.00640869140625
-0.0152587890625
-0.015869140625
-0.03509521484375
-0.084228515625
-0.1287841796875
-0.1458740234375
-0.155029296875
-0.1519775390625
-0.1446533203125
-0.152587890625
-0.14373779296875
-0.108642578125
-0.078125
-0.07598876953125
-0.0885009765625
-0.09979248046875
-0.10986328125
-0.12298583984375
-0.13275146484375
-0.1300048828125
-0.1220703125
-0.12420654296875
-0.12664794921875
-0.13519287109375
-0.13763427734375
-0.13671875
-0.14007568359375
-0.15106201171875
-0.16082763671875
-0.1654052734375
-0.16021728515625
-0.1470947265625
-0.13885498046875
-0.14434814453125
-0.15625
-0.1507568359375
-0.113525390625
-0.1104736328125
-0.1385498046875
-0.1629638671875
-0.1702880859375
-0.16326904296875
-0.1617431640625
-0.1580810546875
-0.162353515625
-0.16632080078125
-0.167236328125
-0.16387939453125
-0.15380859375
-0.15228271484375
-0.1544189453125
-0.157470703125
-0.1617431640625
-0.1519775390625
-0.146484375
-0.14617919921875
-0.150146484375
-0.1519775390625
-0.14007568359375
-0.1348876953125
-0.15594482421875
-0.18646240234375
-0.19683837890625
-0.17852783203125
-0.16448974609375
-0.1446533203125
-0.10986328125
-0.09124755859375
-0.10467529296875
-0.11322021484375
-0.1123046875
-0.11932373046875
-0.1220703125
-0.1171875
-0.1019287109375
-0.09307861328125
-0.09674072265625
-0.1141357421875
-0.11871337890625
-0.11505126953125
-0.11199951171875
-0.1190185546875
-0.11077880859375
-0.09796142578125
-0.09765625
-0.10772705078125
-0.11322021484375
-0.11444091796875
-0.1129150390625
-0.11260986328125
-0.1129150390625
-0.11260986328125
-0.11871337890625
-0.128173828125
-0.1361083984375
-0.125732421875
-0.11138916015625
-0.09857177734375
-0.09185791015625
-0.0982666015625
-0.1031494140625
-0.10650634765625
-0.10772705078125
-0.10040283203125
-0.0921630859375
-0.0799560546875
-0.0738525390625
-0.0811767578125
-0.10345458984375
-0.11474609375
-0.1177978515625
-0.1214599609375
-0.12542724609375
-0.11199951171875
-0.08697509765625
-0.05889892578125
-0.0408935546875
-0.02166748046875
-0.02197265625
-0.04119873046875
-0.05859375
-0.0714111328125
-0.0811767578125
-0.1007080078125
-0.1104736328125
-0.1055908203125
-0.0970458984375
-0.09185791015625
-0.084228515625
-0.07171630859375
-0.050048828125
-0.0384521484375
-0.0518798828125
-0.0634765625
-0.0732421875
-0.07232666015625
-0.0665283203125
-0.05126953125
-0.04974365234375
-0.06500244140625
-0.076904296875
-0.07659912109375
-0.0775146484375
-0.07476806640625
-0.0732421875
-0.0762939453125
-0.081787109375
-0.0970458984375
-0.10284423828125
-0.08819580078125
-0.07171630859375
-0.0653076171875
-0.0628662109375
-0.074462890625
-0.09521484375
-0.0958251953125
-0.08148193359375
-0.06866455078125
-0.06134033203125
-0.05035400390625
-0.0482177734375
-0.062255859375
-0.0738525390625
-0.08056640625
-0.08026123046875
-0.0738525390625
-0.0579833984375
-0.045166015625
-0.03204345703125
-0.0262451171875
-0.01617431640625
-0.0286865234375
-0.06011962890625
-0.10650634765625
-0.10955810546875
-0.07232666015625
-0.05706787109375
-0.06195068359375
-0.06744384765625
-0.0714111328125
-0.0616455078125
-0.04547119140625
-0.0421142578125
-0.04608154296875
-0.0518798828125
-0.05462646484375
-0.05035400390625
-0.04425048828125
-0.0543212890625
-0.059814453125
-0.07293701171875
-0.076904296875
-0.0775146484375
-0.06561279296875
-0.0634765625
-0.076904296875
-0.08636474609375
-0.1031494140625
-0.0897216796875
-0.062255859375
-0.0323486328125
-0.0146484375
0.0042724609375
0.02899169921875
0.023193359375
-0.00244140625
-0.035400390625
-0.0531005859375
-0.0750732421875
-0.08331298828125
-0.09490966796875
-0.10009765625
-0.0927734375
-0.09246826171875
-0.08087158203125
-0.0689697265625
-0.04913330078125
-0.0128173828125
0.0103759765625
0.00701904296875
-0.01678466796875
-0.03997802734375
-0.0518798828125
-0.05401611328125
-0.04486083984375
-0.02105712890625
-0.003662109375
-0.0274658203125
-0.05615234375
-0.072021484375
-0.059814453125
-0.0323486328125
-0.00946044921875
-0.01373291015625
-0.02471923828125
-0.02777099609375
-0.02410888671875
-0.02349853515625
-0.02471923828125
-0.0213623046875
-0.02197265625
-0.02105712890625
-0.02899169921875
-0.0299072265625
-0.0347900390625
-0.0433349609375
-0.04791259765625
-0.0555419921875
-0.050048828125
-0.04852294921875
-0.048828125
-0.05340576171875
-0.05096435546875
-0.03387451171875
-0.028076171875
-0.0146484375
0.00274658203125
0.00823974609375
0.0030517578125
-0.01739501953125
-0.03936767578125
-0.04364013671875
-0.0335693359375
-0.0341796875
-0.02655029296875
-0.010986328125
-0.00030517578125
-0.00579833984375
-0.0177001953125
0.01617431640625
0.04364013671875
0.0616455078125
0.04852294921875
0.0445556640625
0.05706787109375
0.069580078125
0.07080078125
0.07965087890625
0.09979248046875
0.12237548828125
0.145263671875
0.1519775390625
0.1434326171875
0.14068603515625
0.1409912109375
0.1507568359375
0.16265869140625
0.185546875
0.1959228515625
0.179443359375
0.15411376953125
0.1348876953125
0.1220703125
0.11383056640625
0.10833740234375
0.1336669921875
0.16845703125
0.1971435546875
0.22003173828125
0.23712158203125
0.2392578125
0.21820068359375
0.19927978515625
0.19927978515625
0.20263671875
0.203857421875
0.18646240234375
0.17059326171875
0.16937255859375
0.19378662109375
0.196533203125
0.19256591796875
0.2154541015625
0.225830078125
0.22430419921875
0.2337646484375
0.24688720703125
0.25115966796875
0.26702880859375
0.2947998046875
0.29510498046875
0.27801513671875
0.274658203125
0.2685546875
0.27069091796875
0.28472900390625
0.28717041015625
0.2740478515625
0.2447509765625
0.2191162109375
0.19744873046875
0.17181396484375
0.15838623046875
0.145263671875
0.12786865234375
0.11627197265625
0.11444091796875
0.10498046875
0.1025390625
0.10162353515625
0.106201171875
0.108642578125
0.103759765625
0.08941650390625
0.07781982421875
0.0830078125
0.09185791015625
0.09063720703125
0.06988525390625
0.06439208984375
0.06561279296875
0.06927490234375
0.07720947265625
0.09368896484375
0.0836181640625
0.067138671875
0.048828125
0.0274658203125
0.00732421875
-0.00152587890625
-0.009765625
-0.0103759765625
-0.0030517578125
0.00396728515625
0.001220703125
-0.0054931640625
0.00213623046875
0.00946044921875
0.00640869140625
0.00396728515625
-0.00701904296875
-0.01373291015625
-0.02349853515625
-0.02960205078125
-0.03143310546875
-0.01678466796875
-0.0091552734375
-0.01800537109375
-0.02899169921875
-0.02288818359375
-0.018310546875
-0.0146484375
-0.0042724609375
-0.001220703125
-0.0067138671875
-0.01922607421875
-0.02532958984375
-0.0225830078125
-0.0177001953125
-0.01739501953125
-0.01922607421875
-0.01922607421875
-0.02105712890625
-0.0225830078125
-0.02593994140625
-0.01983642578125
-0.00732421875
-0.01617431640625
-0.03631591796875
-0.0482177734375
-0.05462646484375
-0.047607421875
-0.03265380859375
-0.00152587890625
0.0146484375
0.0262451171875
0.03204345703125
0.029296875
0.01129150390625
0.00030517578125
-0.00274658203125
-0.01007080078125
-0.0103759765625
0.0030517578125
0.01068115234375
0.00885009765625
-0.0006103515625
-0.0189208984375
-0.05767822265625
-0.089111328125
-0.11810302734375
-0.1702880859375
-0.238037109375
-0.2899169921875
-0.30853271484375
-0.2886962890625
-0.26519775390625
-0.26702880859375
-0.2825927734375
-0.281982421875
-0.2886962890625
-0.2947998046875
-0.27099609375
-0.22491455078125
-0.1702880859375
-0.10223388671875
-0.01220703125
0.0909423828125
0.2069091796875
0.3515625
0.5096435546875
0.6805419921875
0.87127685546875
1.10076904296875
1.3702392578125
1.64154052734375
1.94000244140625
2.26348876953125
2.5909423828125
2.88970947265625
3.1231689453125
3.28704833984375
3.3990478515625
3.47930908203125
3.56109619140625
3.607177734375
3.575439453125
3.46588134765625
3.309326171875
3.1207275390625
2.88238525390625
2.62725830078125
2.4017333984375
2.18536376953125
1.976318359375
1.75018310546875
1.5057373046875
1.24420166015625
0.99395751953125
0.81756591796875
0.6329345703125
0.41778564453125
0.2740478515625
0.203857421875
0.17333984375
0.16448974609375
0.17120361328125
0.18646240234375
0.1910400390625
0.2166748046875
0.24505615234375
0.2490234375
0.2362060546875
0.22430419921875
0.22979736328125
0.25421142578125
0.2545166015625
0.22064208984375
0.19073486328125
0.18707275390625
0.18707275390625
0.18157958984375
0.179443359375
0.184326171875
0.18768310546875
0.172119140625
0.14251708984375
0.12359619140625
0.10833740234375
0.0933837890625
0.0775146484375
0.06744384765625
0.05950927734375
0.0537109375
0.05279541015625
0.048828125
0.032958984375
0.01708984375
0.01373291015625
0.00640869140625
-0.00335693359375
-0.00762939453125
-0.0054931640625
-0.01129150390625
-0.00457763671875
0.00732421875
0.003662109375
0.00244140625
0.0079345703125
0.03021240234375
0.04180908203125
0.03143310546875
0.00396728515625
-0.01556396484375
-0.0225830078125
-0.0323486328125
-0.03631591796875
-0.03387451171875
-0.0189208984375
-0.00579833984375
-0.0042724609375
0.003662109375
0.02105712890625
0.02716064453125
0.0225830078125
0.010986328125
0.00762939453125
0.01007080078125
0.0372314453125
0.0555419921875
0.0421142578125
0.01708984375
0.0067138671875
0.0048828125
0.00732421875
0.03143310546875
0.0439453125
0.05126953125
0.0421142578125
0.03814697265625
0.03814697265625
0.0323486328125
0.04150390625
0.05157470703125
0.0439453125
0.040283203125
0.05126953125
0.06683349609375
0.07476806640625
0.07568359375
0.0701904296875
0.06805419921875
0.0799560546875
0.0897216796875
0.09613037109375
0.08697509765625
0.09124755859375
0.09918212890625
0.10009765625
0.1104736328125
0.11871337890625
0.1251220703125
0.12542724609375
0.125732421875
0.120849609375
0.0933837890625
0.08087158203125
0.09490966796875
0.1165771484375
0.1226806640625
0.12359619140625
0.14007568359375
0.14556884765625
0.13336181640625
0.12054443359375
0.12115478515625
0.1318359375
0.13153076171875
0.1324462890625
0.14190673828125
0.1519775390625
0.174560546875
0.19683837890625
0.1953125
0.1751708984375
0.1617431640625
0.162353515625
0.16754150390625
0.18035888671875
0.18341064453125
0.17486572265625
0.157470703125
0.16265869140625
0.1885986328125
0.23956298828125
0.2655029296875
0.2386474609375
0.211181640625
0.2056884765625
0.21636962890625
0.2142333984375
0.198974609375
0.19866943359375
0.2191162109375
0.2410888671875
0.26336669921875
0.28106689453125
0.29815673828125
0.30914306640625
0.29632568359375
0.2801513671875
0.2874755859375
0.30426025390625
0.2960205078125
0.27740478515625
0.27313232421875
0.28289794921875
0.28656005859375
0.29144287109375
0.29754638671875
0.2947998046875
0.3070068359375
0.3271484375
0.34698486328125
0.3643798828125
0.37353515625
0.37567138671875
0.3656005859375
0.3729248046875
0.37811279296875
0.3912353515625
0.41259765625
0.416259765625
0.39031982421875
0.364990234375
0.372314453125
0.37261962890625
0.374755859375
0.404052734375
0.4510498046875
0.48126220703125
0.48736572265625
0.49072265625
0.49346923828125
0.49285888671875
0.49591064453125
0.49957275390625
0.51727294921875
0.52154541015625
0.50262451171875
0.5047607421875
0.51361083984375
0.5206298828125
0.54229736328125
0.58197021484375
0.611572265625
0.621337890625
0.6219482421875
0.60028076171875
0.58258056640625
0.57464599609375
0.5889892578125
0.60791015625
0.609130859375
0.61065673828125
0.635986328125
0.64697265625
0.62164306640625
0.61767578125
0.62835693359375
0.64208984375
0.65704345703125
0.672607421875
0.69244384765625
0.69610595703125
0.6884765625
0.6805419921875
0.66986083984375
0.665283203125
0.675048828125
0.687255859375
0.689697265625
0.6817626953125
0.67352294921875
0.6646728515625
0.6622314453125
0.65826416015625
0.65338134765625
0.66070556640625
0.66680908203125
0.66162109375
0.6494140625
0.64361572265625
0.6414794921875
0.65277099609375
0.625
0.56640625
0.52703857421875
0.50872802734375
0.49835205078125
0.494384765625
0.49102783203125
0.48858642578125
0.46875
0.443115234375
0.42083740234375
0.3936767578125
0.36468505859375
0.34088134765625
0.328369140625
0.3106689453125
0.2874755859375
0.264892578125
0.23956298828125
0.233154296875
0.23681640625
0.225830078125
0.191650390625
0.1629638671875
0.14739990234375
0.14556884765625
0.1519775390625
0.1416015625
0.10498046875
0.069580078125
0.06103515625
0.04913330078125
0.02899169921875
0.01434326171875
0.01129150390625
0.0006103515625
-0.01617431640625
-0.030517578125
-0.03692626953125
-0.0494384765625
-0.05523681640625
-0.06866455078125
-0.08575439453125
-0.09918212890625
-0.12115478515625
-0.13916015625
-0.13397216796875
-0.087890625
-0.06866455078125
-0.08026123046875
-0.0701904296875
-0.0775146484375
-0.10894775390625
-0.14801025390625
-0.16448974609375
-0.16693115234375
-0.16876220703125
-0.1513671875
-0.12237548828125
-0.09857177734375
-0.093994140625
-0.09918212890625
-0.0946044921875
-0.09246826171875
-0.1007080078125
-0.1190185546875
-0.13092041015625
-0.1318359375
-0.1318359375
-0.13885498046875
-0.14251708984375
-0.1416015625
-0.13824462890625
-0.1373291015625
-0.14007568359375
-0.142822265625
-0.13641357421875
-0.1336669921875
-0.14007568359375
-0.1483154296875
-0.1373291015625
-0.12725830078125
-0.13580322265625
-0.13671875
-0.11444091796875
-0.08148193359375
-0.08331298828125
-0.107421875
-0.13427734375
-0.1617431640625
-0.167236328125
-0.16082763671875
-0.15045166015625
-0.13458251953125
-0.1312255859375
-0.1318359375
-0.133056640625
-0.1324462890625
-0.1385498046875
-0.1495361328125
-0.14404296875
-0.1312255859375
-0.1025390625
-0.09429931640625
-0.1202392578125
-0.142822265625
-0.13641357421875
-0.11383056640625
-0.11260986328125
-0.10711669921875
-0.098876953125
-0.10406494140625
-0.1202392578125
-0.12786865234375
-0.107421875
-0.10040283203125
-0.10223388671875
-0.098876953125
-0.09124755859375
-0.09307861328125
-0.108642578125
-0.126953125
-0.14068603515625
-0.137939453125
-0.1409912109375
-0.1348876953125
-0.11871337890625
-0.107421875
-0.10223388671875
-0.10345458984375
-0.0933837890625
-0.08819580078125
-0.06134033203125
-0.04608154296875
-0.05096435546875
-0.08453369140625
-0.09735107421875
-0.07965087890625
-0.0726318359375
-0.08758544921875
-0.10040283203125
-0.10162353515625
-0.0799560546875
-0.042724609375
-0.02655029296875
-0.04364013671875
-0.0604248046875
-0.064697265625
-0.06011962890625
-0.05706787109375
-0.04730224609375
-0.05340576171875
-0.07354736328125
-0.08544921875
-0.08331298828125
-0.0830078125
-0.08209228515625
-0.07904052734375
-0.0811767578125
-0.07904052734375
-0.084228515625
-0.0762939453125
-0.06378173828125
-0.0714111328125
-0.06317138671875
-0.0457763671875
-0.03692626953125
-0.04150390625
-0.0439453125
-0.05401611328125
-0.06317138671875
-0.07232666015625
-0.0933837890625
-0.08056640625
-0.0653076171875
-0.08026123046875
-0.10345458984375
-0.09521484375
-0.06500244140625
-0.02593994140625
-0.00640869140625
-0.01983642578125
-0.04241943359375
-0.05279541015625
-0.06561279296875
-0.08270263671875
-0.0958251953125
-0.09765625
-0.09368896484375
-0.08758544921875
-0.0714111328125
-0.0665283203125
-0.0506591796875
-0.0384521484375
-0.0518798828125
-0.078125
-0.0799560546875
-0.06591796875
-0.0634765625
-0.0640869140625
-0.0616455078125
-0.07659912109375
-0.09002685546875
-0.0982666015625
-0.10162353515625
-0.1007080078125
-0.0897216796875
-0.0738525390625
-0.068359375
-0.0640869140625
-0.072021484375
-0.079345703125
-0.0927734375
-0.101318359375
-0.0811767578125
-0.05615234375
-0.02716064453125
-0.0164794921875
-0.03021240234375
-0.04730224609375
-0.04150390625
-0.0396728515625
-0.04486083984375
-0.0555419921875
-0.069580078125
-0.05859375
-0.04364013671875
-0.0384521484375
-0.04791259765625
-0.047607421875
-0.0439453125
-0.04730224609375
-0.05584716796875
-0.05157470703125
-0.05035400390625
-0.059814453125
-0.06805419921875
-0.07354736328125
-0.07110595703125
-0.07476806640625
-0.07232666015625
-0.06439208984375
-0.05218505859375
-0.04119873046875
-0.03814697265625
-0.0433349609375
-0.0396728515625
-0.01617431640625
-0.00701904296875
-0.02838134765625
-0.05401611328125
-0.0799560546875
-0.089111328125
-0.0872802734375
-0.08392333984375
-0.09002685546875
-0.081787109375
-0.06500244140625
-0.05401611328125
-0.02532958984375
0.00946044921875
0.0146484375
-0.00640869140625
-0.0433349609375
-0.06256103515625
-0.05767822265625
-0.05767822265625
-0.06622314453125
-0.07415771484375
-0.08056640625
-0.0787353515625
-0.0677490234375
-0.089111328125
-0.09674072265625
-0.079345703125
-0.045166015625
-0.02532958984375
-0.02838134765625
-0.0372314453125
-0.02471923828125
-0.008544921875
-0.008544921875
-0.02227783203125
-0.0372314453125
-0.05218505859375
-0.05615234375
-0.04730224609375
-0.0262451171875
-0.01861572265625
-0.0347900390625
-0.04058837890625
-0.04241943359375
-0.03448486328125
-0.04150390625
-0.05126953125
-0.0360107421875
-0.01007080078125
-0.009765625
-0.04852294921875
-0.0750732421875
-0.08514404296875
-0.084228515625
-0.076904296875
-0.05584716796875
-0.03631591796875
-0.015869140625
0.00335693359375
-0.00091552734375
-0.03692626953125
-0.050048828125
-0.042724609375
-0.0250244140625
-0.023193359375
-0.03082275390625
-0.03997802734375
-0.0469970703125
-0.018310546875
0.0054931640625
-0.00244140625
-0.0177001953125
-0.02471923828125
-0.02288818359375
-0.03692626953125
-0.0592041015625
-0.068359375
-0.05584716796875
-0.02716064453125
-0.001220703125
0.0067138671875
0.0067138671875
0.01678466796875
0.03448486328125
0.05340576171875
0.06378173828125
0.05126953125
0.04852294921875
0.04180908203125
0.04241943359375
0.045166015625
0.0738525390625
0.08880615234375
0.0946044921875
0.11077880859375
0.1263427734375
0.1434326171875
0.17333984375
0.19622802734375
0.19256591796875
0.16204833984375
0.1416015625
0.13702392578125
0.14251708984375
0.1513671875
0.16265869140625
0.17303466796875
0.18707275390625
0.1947021484375
0.19012451171875
0.1849365234375
0.1849365234375
0.18310546875
0.18951416015625
0.19256591796875
0.16571044921875
0.14923095703125
0.155029296875
0.1446533203125
0.1019287109375
0.0750732421875
0.07659912109375
0.11077880859375
0.146484375
0.1715087890625
0.1922607421875
0.2105712890625
0.23468017578125
0.250244140625
0.25787353515625
0.2593994140625
0.25115966796875
0.2593994140625
0.26397705078125
0.25634765625
0.24139404296875
0.22186279296875
0.22125244140625
0.228271484375
0.2276611328125
0.2099609375
0.20416259765625
0.19287109375
0.1715087890625
0.1617431640625
0.15045166015625
0.1239013671875
0.08819580078125
0.05340576171875
0.0457763671875
0.0579833984375
0.06988525390625
0.07720947265625
0.07476806640625
0.0732421875
0.0732421875
0.06744384765625
0.054931640625
0.0543212890625
0.07659912109375
0.0823974609375
0.0665283203125
0.0390625
0.02960205078125
0.0347900390625
0.03936767578125
0.04547119140625
0.03753662109375
0.03143310546875
0.02349853515625
0.0128173828125
-0.00396728515625
-0.01800537109375
-0.023193359375
-0.0225830078125
-0.02227783203125
-0.02655029296875
-0.0299072265625
-0.0323486328125
-0.03875732421875
-0.04425048828125
-0.05035400390625
-0.04608154296875
-0.05126953125
-0.0494384765625
-0.037841796875
-0.03509521484375
-0.03753662109375
-0.0433349609375
-0.05035400390625
-0.05157470703125
-0.05157470703125
-0.04547119140625
-0.04913330078125
-0.04547119140625
-0.04730224609375
-0.04974365234375
-0.05126953125
-0.04638671875
-0.03265380859375
-0.0250244140625
-0.0299072265625
-0.03448486328125
-0.05218505859375
-0.09002685546875
-0.115966796875
-0.11566162109375
-0.09918212890625
-0.07568359375
-0.050048828125
-0.0311279296875
-0.00946044921875
-0.00244140625
-0.01129150390625
-0.01800537109375
-0.0213623046875
-0.02044677734375
-0.0189208984375
-0.0238037109375
-0.0457763671875
-0.06683349609375
-0.07476806640625
-0.07232666015625
-0.06744384765625
-0.04791259765625
-0.0201416015625
-0.01708984375
-0.02960205078125
-0.0311279296875
-0.0323486328125
-0.0433349609375
-0.06561279296875
-0.09735107421875
-0.14373779296875
-0.198974609375
-0.25604248046875
-0.303955078125
-0.335693359375
-0.352783203125
-0.3619384765625
-0.36651611328125
-0.35797119140625
-0.33599853515625
-0.32073974609375
-0.30975341796875
-0.29327392578125
-0.25390625
-0.1959228515625
-0.12176513671875
-0.02685546875
0.0732421875
0.19683837890625
0.338134765625
0.4779052734375
0.62896728515625
0.8343505859375
1.0906982421875
1.36962890625
1.67022705078125
1.981201171875
2.28790283203125
2.58270263671875
2.85980224609375
3.0670166015625
3.2183837890625
3.33038330078125
3.41461181640625
3.4765625
3.5162353515625
3.50250244140625
3.40789794921875
3.23883056640625
3.04229736328125
2.799072265625
2.53448486328125
2.305908203125
2.078857421875
1.8548583984375
1.64276123046875
1.41357421875
1.173095703125
0.947265625
0.7684326171875
0.57830810546875
0.39764404296875
0.29449462890625
0.24932861328125
0.245361328125
0.25909423828125
0.264892578125
0.2630615234375
0.250244140625
0.23040771484375
0.21209716796875
0.203857421875
0.20050048828125
0.20538330078125
0.20416259765625
0.2032470703125
0.20050048828125
0.19317626953125
0.18798828125
0.1708984375
0.15411376953125
0.1605224609375
0.15594482421875
0.12054443359375
0.07659912109375
0.06195068359375
0.06195068359375
0.05615234375
0.05340576171875
0.045166015625
0.02410888671875
-0.010986328125
-0.0469970703125
-0.07354736328125
-0.0872802734375
-0.07232666015625
-0.05950927734375
-0.042724609375
-0.001220703125
0.04180908203125
0.0323486328125
-0.0140380859375
-0.02105712890625
-0.032958984375
-0.0445556640625
-0.04241943359375
-0.030517578125
-0.01739501953125
-0.01922607421875
-0.01983642578125
-0.02349853515625
-0.0421142578125
-0.05096435546875
-0.062255859375
-0.0775146484375
-0.0823974609375
-0.06561279296875
-0.0543212890625
-0.04608154296875
-0.03448486328125
-0.0445556640625
-0.0506591796875
-0.05615234375
-0.05859375
-0.05035400390625
-0.04486083984375
-0.03875732421875
-0.02410888671875
-0.01861572265625
-0.02777099609375
-0.05096435546875
-0.0726318359375
-0.0616455078125
-0.0469970703125
-0.03631591796875
-0.0238037109375
-0.0103759765625
-0.0042724609375
0.00396728515625
0.00885009765625
-0.00335693359375
-0.01861572265625
-0.02960205078125
-0.01312255859375
0.02044677734375
0.0408935546875
0.01800537109375
-0.00152587890625
-0.00244140625
0.0
-0.0054931640625
-0.006103515625
0.00579833984375
0.0299072265625
0.06683349609375
0.089111328125
0.089111328125
0.08087158203125
0.06683349609375
0.0537109375
0.0335693359375
0.0250244140625
0.02838134765625
0.0421142578125
0.05279541015625
0.05218505859375
0.04730224609375
0.04547119140625
0.062255859375
0.0787353515625
0.08880615234375
0.08087158203125
0.0665283203125
0.05126953125
0.04150390625
0.0347900390625
0.03753662109375
0.06256103515625
0.10467529296875
0.13153076171875
0.13458251953125
0.1300048828125
0.1263427734375
0.1239013671875
0.11383056640625
0.10040283203125
0.11810302734375
0.13031005859375
0.12176513671875
0.12420654296875
0.1361083984375
0.135498046875
0.13671875
0.14892578125
0.15533447265625
0.166015625
0.177001953125
0.177001953125
0.16326904296875
0.15716552734375
0.157470703125
0.15869140625
0.1617431640625
0.17181396484375
0.18402099609375
0.1922607421875
0.196533203125
0.19683837890625
0.1910400390625
0.19561767578125
0.18798828125
0.18768310546875
0.2032470703125
0.2105712890625
0.2069091796875
0.19805908203125
0.1995849609375
0.20599365234375
0.22003173828125
0.223388671875
0.23162841796875
0.2532958984375
0.26580810546875
0.27313232421875
0.2764892578125
0.27862548828125
0.28076171875
0.27618408203125
0.27313232421875
0.2777099609375
0.279541015625
0.28228759765625
0.296630859375
0.3094482421875
0.32257080078125
0.33782958984375
0.35125732421875
0.355224609375
0.3631591796875
0.3656005859375
0.3680419921875
0.3680419921875
0.3839111328125
0.4095458984375
0.43548583984375
0.44403076171875
0.421142578125
0.39337158203125
0.390625
0.3985595703125
0.39459228515625
0.3924560546875
0.40191650390625
0.40802001953125
0.41473388671875
0.43975830078125
0.467529296875
0.49072265625
0.51025390625
0.51055908203125
0.49530029296875
0.48553466796875
0.4876708984375
0.51025390625
0.5462646484375
0.5682373046875
0.5755615234375
0.5718994140625
0.56854248046875
0.565185546875
0.5584716796875
0.55419921875
0.5609130859375
0.5706787109375
0.57403564453125
0.57830810546875
0.59417724609375
0.604248046875
0.60302734375
0.592041015625
0.57861328125
0.5706787109375
0.5682373046875
0.56854248046875
0.5657958984375
0.56365966796875
0.55877685546875
0.552978515625
0.55755615234375
0.5621337890625
0.57464599609375
0.57830810546875
0.56976318359375
0.5511474609375
0.53314208984375
0.53955078125
0.5352783203125
0.5096435546875
0.4669189453125
0.44219970703125
0.4229736328125
0.39794921875
0.3857421875
0.38360595703125
0.38299560546875
0.3668212890625
0.3424072265625
0.3143310546875
0.29998779296875
0.29266357421875
0.2752685546875
0.24627685546875
0.21392822265625
0.1837158203125
0.1568603515625
0.13397216796875
0.133056640625
0.1318359375
0.13031005859375
0.11810302734375
0.10498046875
0.09979248046875
0.10009765625
0.07537841796875
0.0372314453125
0.00762939453125
0.0
0.001220703125
-0.0067138671875
-0.02349853515625
-0.04608154296875
-0.05859375
-0.07110595703125
-0.081787109375
-0.09124755859375
-0.0933837890625
-0.09674072265625
-0.106201171875
-0.10986328125
-0.13031005859375
-0.1580810546875
-0.1702880859375
-0.167236328125
-0.16571044921875
-0.16204833984375
-0.15167236328125
-0.16143798828125
-0.1678466796875
-0.17425537109375
-0.174560546875
-0.19439697265625
-0.2239990234375
-0.2294921875
-0.224609375
-0.19439697265625
-0.16204833984375
-0.12237548828125
-0.1104736328125
-0.1165771484375
-0.113525390625
-0.12786865234375
-0.1617431640625
-0.1837158203125
-0.19317626953125
-0.2008056640625
-0.1983642578125
-0.19012451171875
-0.19317626953125
-0.1959228515625
-0.1983642578125
-0.1947021484375
-0.18157958984375
-0.17547607421875
-0.17974853515625
-0.186767578125
-0.19073486328125
-0.1861572265625
-0.1800537109375
-0.17303466796875
-0.18035888671875
-0.19775390625
-0.201416015625
-0.20263671875
-0.201416015625
-0.206298828125
-0.203857421875
-0.19287109375
-0.17822265625
-0.1611328125
-0.15777587890625
-0.16754150390625
-0.17730712890625
-0.1812744140625
-0.18341064453125
-0.1873779296875
-0.1837158203125
-0.184326171875
-0.17669677734375
-0.15838623046875
-0.137939453125
-0.1397705078125
-0.15533447265625
-0.16326904296875
-0.16265869140625
-0.1593017578125
-0.16387939453125
-0.167236328125
-0.16845703125
-0.1739501953125
-0.1776123046875
-0.186767578125
-0.19134521484375
-0.17730712890625
-0.15777587890625
-0.14312744140625
-0.13092041015625
-0.11688232421875
-0.12542724609375
-0.1446533203125
-0.1727294921875
-0.17852783203125
-0.17120361328125
-0.1727294921875
-0.15228271484375
-0.13092041015625
-0.126953125
-0.1251220703125
-0.13519287109375
-0.15594482421875
-0.17120361328125
-0.185546875
-0.19012451171875
-0.181884765625
-0.15869140625
-0.135498046875
-0.11505126953125
-0.12725830078125
-0.14984130859375
-0.15228271484375
-0.1409912109375
-0.13092041015625
-0.120849609375
-0.11016845703125
-0.111083984375
-0.118408203125
-0.1116943359375
-0.115966796875
-0.1220703125
-0.1385498046875
-0.150146484375
-0.1593017578125
-0.1617431640625
-0.15838623046875
-0.1629638671875
-0.16357421875
-0.14068603515625
-0.1202392578125
-0.098876953125
-0.0836181640625
-0.08453369140625
-0.10650634765625
-0.115966796875
-0.113525390625
-0.1129150390625
-0.1251220703125
-0.13031005859375
-0.133056640625
-0.14923095703125
-0.15838623046875
-0.14129638671875
-0.1092529296875
-0.0738525390625
-0.06439208984375
-0.0823974609375
-0.09521484375
-0.09429931640625
-0.10284423828125
-0.108642578125
-0.10833740234375
-0.10772705078125
-0.10833740234375
-0.11871337890625
-0.13275146484375
-0.140380859375
-0.142822265625
-0.13671875
-0.12786865234375
-0.12481689453125
-0.11810302734375
-0.11199951171875
-0.11199951171875
-0.118408203125
-0.10650634765625
-0.09002685546875
-0.09521484375
-0.1116943359375
-0.12420654296875
-0.12908935546875
-0.13031005859375
-0.12847900390625
-0.13031005859375
-0.12603759765625
-0.11322021484375
-0.11383056640625
-0.12939453125
-0.1470947265625
-0.1531982421875
-0.15960693359375
-0.1507568359375
-0.11138916015625
-0.08544921875
-0.06683349609375
-0.07568359375
-0.07843017578125
-0.0994873046875
-0.115966796875
-0.1165771484375
-0.126953125
-0.1348876953125
-0.13153076171875
-0.125732421875
-0.11444091796875
-0.11016845703125
-0.1116943359375
-0.1116943359375
-0.11199951171875
-0.107421875
-0.11260986328125
-0.12542724609375
-0.14495849609375
-0.1519775390625
-0.1556396484375
-0.15289306640625
-0.145263671875
-0.14190673828125
-0.11871337890625
-0.1165771484375
-0.120849609375
-0.13427734375
-0.14923095703125
-0.162353515625
-0.15350341796875
-0.1153564453125
-0.081787109375
-0.0628662109375
-0.05523681640625
-0.07568359375
-0.096435546875
-0.111083984375
-0.10528564453125
-0.09735107421875
-0.1007080078125
-0.098876953125
-0.09246826171875
-0.0762939453125
-0.07049560546875
-0.08331298828125
-0.08880615234375
-0.08331298828125
-0.08026123046875
-0.08758544921875
-0.08087158203125
-0.07354736328125
-0.0799560546875
-0.0909423828125
-0.106201171875
-0.1239013671875
-0.14129638671875
-0.1251220703125
-0.0982666015625
-0.0994873046875
-0.1129150390625
-0.11260986328125
-0.09429931640625
-0.09063720703125
-0.09429931640625
-0.09674072265625
-0.09613037109375
-0.0909423828125
-0.08392333984375
-0.0909423828125
-0.098876953125
-0.10498046875
-0.10467529296875
-0.10101318359375
-0.09552001953125
-0.08941650390625
-0.07415771484375
-0.0518798828125
-0.0482177734375
-0.06256103515625
-0.08056640625
-0.08880615234375
-0.10284423828125
-0.1019287109375
-0.1141357421875
-0.1348876953125
-0.16021728515625
-0.16265869140625
-0.1446533203125
-0.133056640625
-0.120849609375
-0.08331298828125
-0.0482177734375
-0.037841796875
-0.05706787109375
-0.07232666015625
-0.07354736328125
-0.05035400390625
-0.04119873046875
-0.0616455078125
-0.07598876953125
-0.07904052734375
-0.09490966796875
-0.1129150390625
-0.11383056640625
-0.1031494140625
-0.09796142578125
-0.09552001953125
-0.09246826171875
-0.07720947265625
-0.06317138671875
-0.06805419921875
-0.08392333984375
-0.0970458984375
-0.1031494140625
-0.107421875
-0.11077880859375
-0.1043701171875
-0.08544921875
-0.05615234375
-0.0323486328125
-0.03753662109375
-0.04669189453125
-0.06561279296875
-0.08148193359375
-0.08544921875
-0.07354736328125
-0.057373046875
-0.0518798828125
-0.0506591796875
-0.05279541015625
-0.062255859375
-0.06805419921875
-0.0732421875
-0.07049560546875
-0.0714111328125
-0.0787353515625
-0.0860595703125
-0.0811767578125
-0.0775146484375
-0.0677490234375
-0.06103515625
-0.0579833984375
-0.0531005859375
-0.0531005859375
-0.047607421875
-0.03875732421875
-0.00823974609375
0.042724609375
0.06103515625
0.03265380859375
0.01708984375
0.02105712890625
0.05584716796875
0.1007080078125
0.12054443359375
0.103759765625
0.09857177734375
0.09735107421875
0.101318359375
0.11260986328125
0.115966796875
0.11505126953125
0.1092529296875
0.1116943359375
0.107421875
0.098876953125
0.0970458984375
0.08087158203125
0.0634765625
0.06195068359375
0.07568359375
0.096435546875
0.1177978515625
0.13519287109375
0.13336181640625
0.1385498046875
0.167236328125
0.16876220703125
0.1446533203125
0.12176513671875
0.12176513671875
0.12420654296875
0.13153076171875
0.1446533203125
0.140380859375
0.1348876953125
0.128173828125
0.12664794921875
0.12542724609375
0.1373291015625
0.16082763671875
0.19378662109375
0.21728515625
0.21636962890625
0.19561767578125
0.1702880859375
0.16845703125
0.17791748046875
0.18585205078125
0.18096923828125
0.16204833984375
0.152587890625
0.142822265625
0.13519287109375
0.11138916015625
0.06256103515625
0.018310546875
0.006103515625
0.0030517578125
0.008544921875
0.02838134765625
0.04730224609375
0.0665283203125
0.09613037109375
0.1025390625
0.07598876953125
0.06103515625
0.05157470703125
0.02960205078125
0.015869140625
0.0244140625
0.023193359375
0.00244140625
-0.01373291015625
-0.0250244140625
-0.03021240234375
-0.03387451171875
-0.020751953125
0.0
0.0018310546875
-0.00762939453125
-0.0262451171875
-0.0408935546875
-0.04425048828125
-0.04852294921875
-0.03875732421875
-0.04913330078125
-0.072021484375
-0.08514404296875
-0.07476806640625
-0.05767822265625
-0.0518798828125
-0.03875732421875
-0.04058837890625
-0.0518798828125
-0.07415771484375
-0.0872802734375
-0.09765625
-0.1025390625
-0.09979248046875
-0.11016845703125
-0.11688232421875
-0.11016845703125
-0.09552001953125
-0.0799560546875
-0.05157470703125
-0.0250244140625
-0.02288818359375
-0.03997802734375
-0.07080078125
-0.08544921875
-0.086669921875
-0.081787109375
-0.0726318359375
-0.06378173828125
-0.07568359375
-0.08392333984375
-0.09063720703125
-0.09857177734375
-0.09765625
-0.0897216796875
-0.08270263671875
-0.0823974609375
-0.0634765625
-0.0262451171875
-0.01800537109375
-0.04058837890625
-0.0592041015625
-0.0732421875
-0.07659912109375
-0.07598876953125
-0.08087158203125
-0.07720947265625
-0.07568359375
-0.07354736328125
-0.0830078125
-0.0958251953125
-0.1116943359375
-0.13702392578125
-0.13641357421875
-0.1129150390625
-0.096435546875
-0.0946044921875
-0.08819580078125
-0.0933837890625
-0.15838623046875
-0.245361328125
-0.31158447265625
-0.3466796875
-0.36285400390625
-0.3765869140625
-0.377197265625
-0.38421630859375
-0.35675048828125
-0.3179931640625
-0.29937744140625
-0.2825927734375
-0.24322509765625
-0.17822265625
-0.08758544921875
0.01739501953125
0.1153564453125
0.228271484375
0.36468505859375
0.51361083984375
0.67047119140625
0.87310791015625
1.09710693359375
1.36444091796875
1.673583984375
1.9921875
2.30010986328125
2.579345703125
2.82806396484375
3.0078125
3.1610107421875
3.27606201171875
3.3575439453125
3.41094970703125
3.4326171875
3.41064453125
3.306884765625
3.12286376953125
2.8765869140625
2.61505126953125
2.38494873046875
2.1527099609375
1.9073486328125
1.67572021484375
1.46270751953125
1.2408447265625
0.98785400390625
0.775146484375
0.614013671875
0.47027587890625
0.35736083984375
0.29510498046875
0.26275634765625
0.2325439453125
0.2099609375
0.1995849609375
0.206298828125
0.218505859375
0.203857421875
0.174560546875
0.1483154296875
0.15472412109375
0.1678466796875
0.16754150390625
0.15472412109375
0.1519775390625
0.15106201171875
0.14892578125
0.13824462890625
0.12451171875
0.1251220703125
0.10894775390625
0.08270263671875
0.054931640625
0.02838134765625
0.01220703125
0.00640869140625
-0.0018310546875
-0.01220703125
-0.0103759765625
-0.0042724609375
-0.01922607421875
-0.037841796875
-0.05157470703125
-0.0634765625
-0.06072998046875
-0.040283203125
-0.02288818359375
-0.030517578125
-0.030517578125
-0.01953125
-0.0244140625
-0.04058837890625
-0.05767822265625
-0.06866455078125
-0.072021484375
-0.062255859375
-0.04974365234375
-0.04638671875
-0.0537109375
-0.068359375
-0.06591796875
-0.06805419921875
-0.0799560546875
-0.08575439453125
-0.093994140625
-0.09490966796875
-0.086669921875
-0.0750732421875
-0.0579833984375
-0.057373046875
-0.06439208984375
-0.0592041015625
-0.04638671875
-0.02471923828125
-0.00701904296875
-0.0225830078125
-0.04486083984375
-0.0469970703125
-0.052490234375
-0.05828857421875
-0.05218505859375
-0.04425048828125
-0.0469970703125
-0.05279541015625
-0.0494384765625
-0.047607421875
-0.04364013671875
-0.0341796875
-0.03082275390625
-0.0213623046875
-0.0048828125
0.00335693359375
-0.0042724609375
-0.01312255859375
-0.01190185546875
-0.01129150390625
-0.0006103515625
-0.00213623046875
-0.0140380859375
-0.0238037109375
-0.0311279296875
-0.0262451171875
-0.01953125
-0.00823974609375
-0.00030517578125
0.0048828125
0.0189208984375
0.02685546875
0.028076171875
0.0115966796875
0.00946044921875
0.030517578125
0.04852294921875
0.0531005859375
0.03875732421875
0.028076171875
0.020751953125
0.013427734375
0.0079345703125
-0.00457763671875
0.0042724609375
0.0390625
0.07904052734375
0.08148193359375
0.0714111328125
0.07110595703125
0.045166015625
0.01983642578125
0.01129150390625
0.013427734375
0.05950927734375
0.10955810546875
0.135498046875
0.1617431640625
0.16937255859375
0.14984130859375
0.1190185546875
0.1019287109375
0.09613037109375
0.1043701171875
0.11566162109375
0.12115478515625
0.12481689453125
0.1348876953125
0.155029296875
0.1483154296875
0.137939453125
0.13031005859375
0.12451171875
0.1263427734375
0.12725830078125
0.13031005859375
0.12847900390625
0.133056640625
0.1385498046875
0.147705078125
0.1617431640625
0.17669677734375
0.1837158203125
0.17486572265625
0.167236328125
0.17547607421875
0.191650390625
0.18951416015625
0.17913818359375
0.1873779296875
0.21026611328125
0.24078369140625
0.24627685546875
0.235595703125
0.23956298828125
0.24688720703125
0.25115966796875
0.2703857421875
0.29205322265625
0.2899169921875
0.272216796875
0.24810791015625
0.24505615234375
0.26458740234375
0.27801513671875
0.283203125
0.2813720703125
0.28228759765625
0.2911376953125
0.2996826171875
0.3057861328125
0.31524658203125
0.330810546875
0.3460693359375
0.3546142578125
0.3594970703125
0.36376953125
0.38055419921875
0.41351318359375
0.43182373046875
0.42510986328125
0.4034423828125
0.38970947265625
0.3973388671875
0.404052734375
0.41656494140625
0.43060302734375
0.4510498046875
0.4608154296875
0.4644775390625
0.4791259765625
0.49713134765625
0.50537109375
0.499267578125
0.49163818359375
0.48004150390625
0.4693603515625
0.457763671875
0.45257568359375
0.474853515625
0.501708984375
0.5096435546875
0.52337646484375
0.5462646484375
0.56854248046875
0.5633544921875
0.5706787109375
0.58837890625
0.59844970703125
0.599365234375
0.58441162109375
0.5706787109375
0.56427001953125
0.565185546875
0.57281494140625
0.5816650390625
0.58624267578125
0.57342529296875
0.5804443359375
0.57861328125
0.5670166015625
0.56243896484375
0.562744140625
0.5743408203125
0.56793212890625
0.55267333984375
0.53497314453125
0.5206298828125
0.5059814453125
0.48828125
0.47149658203125
0.4473876953125
0.4327392578125
0.4278564453125
0.41229248046875
0.3814697265625
0.3472900390625
0.33172607421875
0.313720703125
0.30487060546875
0.318603515625
0.32684326171875
0.3021240234375
0.26214599609375
0.23040771484375
0.2081298828125
0.18585205078125
0.169677734375
0.14617919921875
0.12359619140625
0.11016845703125
0.1031494140625
0.09429931640625
0.08575439453125
0.0775146484375
0.050048828125
0.028076171875
0.01800537109375
0.0177001953125
0.01922607421875
0.00732421875
-0.01678466796875
-0.04058837890625
-0.05401611328125
-0.076904296875
-0.09552001953125
-0.11505126953125
-0.1171875
-0.10650634765625
-0.10772705078125
-0.10894775390625
-0.11932373046875
-0.1287841796875
-0.1239013671875
-0.11688232421875
-0.13031005859375
-0.15289306640625
-0.16357421875
-0.16204833984375
-0.1666259765625
-0.18096923828125
-0.20233154296875
-0.2178955078125
-0.22216796875
-0.21575927734375
-0.2081298828125
-0.18707275390625
-0.16754150390625
-0.146484375
-0.12786865234375
-0.13641357421875
-0.13885498046875
-0.13458251953125
-0.1507568359375
-0.15899658203125
-0.17547607421875
-0.186767578125
-0.19287109375
-0.1995849609375
-0.1995849609375
-0.1898193359375
-0.17974853515625
-0.18280029296875
-0.19073486328125
-0.1861572265625
-0.19012451171875
-0.19439697265625
-0.1947021484375
-0.1934814453125
-0.19775390625
-0.18707275390625
-0.16265869140625
-0.166015625
-0.185546875
-0.1934814453125
-0.19622802734375
-0.18646240234375
-0.1666259765625
-0.167236328125
-0.18341064453125
-0.18280029296875
-0.1715087890625
-0.16448974609375
-0.15411376953125
-0.15655517578125
-0.16754150390625
-0.17333984375
-0.1641845703125
-0.164794921875
-0.16693115234375
-0.162353515625
-0.16845703125
-0.1812744140625
-0.18951416015625
-0.18768310546875
-0.1873779296875
-0.1666259765625
-0.1446533203125
-0.15045166015625
-0.15045166015625
-0.14923095703125
-0.1513671875
-0.14556884765625
-0.142822265625
-0.14129638671875
-0.14495849609375
-0.14892578125
-0.1519775390625
-0.16510009765625
-0.17303466796875
-0.17181396484375
-0.16510009765625
-0.1629638671875
-0.157470703125
-0.1495361328125
-0.1495361328125
-0.13763427734375
-0.1336669921875
-0.133056640625
-0.135498046875
-0.13458251953125
-0.12451171875
-0.13916015625
-0.16632080078125
-0.1885986328125
-0.19744873046875
-0.19134521484375
-0.18035888671875
-0.172119140625
-0.1470947265625
-0.11138916015625
-0.10345458984375
-0.1043701171875
-0.1031494140625
-0.10223388671875
-0.10406494140625
-0.10711669921875
-0.115966796875
-0.1226806640625
-0.11444091796875
-0.10894775390625
-0.11932373046875
-0.13397216796875
-0.13580322265625
-0.1287841796875
-0.12847900390625
-0.13885498046875
-0.1312255859375
-0.1190185546875
-0.1153564453125
-0.115966796875
-0.1190185546875
-0.11322021484375
-0.1043701171875
-0.10101318359375
-0.1031494140625
-0.1177978515625
-0.1214599609375
-0.12481689453125
-0.1409912109375
-0.15106201171875
-0.13702392578125
-0.13275146484375
-0.10345458984375
-0.08697509765625
-0.098876953125
-0.10650634765625
-0.09979248046875
-0.10223388671875
-0.10498046875
-0.10955810546875
-0.1092529296875
-0.11627197265625
-0.1177978515625
-0.1153564453125
-0.1116943359375
-0.111083984375
-0.11016845703125
-0.11505126953125
-0.12298583984375
-0.118408203125
-0.10467529296875
-0.0885009765625
-0.079345703125
-0.0799560546875
-0.0909423828125
-0.1068115234375
-0.11444091796875
-0.11077880859375
-0.11505126953125
-0.12481689453125
-0.1177978515625
-0.09979248046875
-0.12054443359375
-0.1507568359375
-0.16143798828125
-0.16021728515625
-0.130615234375
-0.0872802734375
-0.06256103515625
-0.072021484375
-0.08880615234375
-0.0885009765625
-0.084228515625
-0.076904296875
-0.08148193359375
-0.0823974609375
-0.08453369140625
-0.1007080078125
-0.11627197265625
-0.12359619140625
-0.11993408203125
-0.12054443359375
-0.1177978515625
-0.10833740234375
-0.11871337890625
-0.1397705078125
-0.1513671875
-0.14495849609375
-0.12420654296875
-0.1068115234375
-0.0823974609375
-0.05950927734375
-0.06622314453125
-0.0872802734375
-0.10986328125
-0.1220703125
-0.126953125
-0.1251220703125
-0.11322021484375
-0.1019287109375
-0.091552734375
-0.08148193359375
-0.0653076171875
-0.0665283203125
-0.08758544921875
-0.10833740234375
-0.10284423828125
-0.0921630859375
-0.09429931640625
-0.0885009765625
-0.084228515625
-0.07659912109375
-0.07843017578125
-0.081787109375
-0.0946044921875
-0.09796142578125
-0.08819580078125
-0.08453369140625
-0.08026123046875
-0.0738525390625
-0.0677490234375
-0.07537841796875
-0.079345703125
-0.07965087890625
-0.07965087890625
-0.0811767578125
-0.08392333984375
-0.08514404296875
-0.09368896484375
-0.09979248046875
-0.09521484375
-0.0982666015625
-0.08148193359375
-0.0604248046875
-0.074462890625
-0.098876953125
-0.09429931640625
-0.078125
-0.064697265625
-0.05523681640625
-0.03936767578125
-0.05157470703125
-0.087890625
-0.11322021484375
-0.10833740234375
-0.11016845703125
-0.111083984375
-0.0982666015625
-0.08056640625
-0.06561279296875
-0.07354736328125
-0.0799560546875
-0.06866455078125
-0.0616455078125
-0.06500244140625
-0.07598876953125
-0.0848388671875
-0.086669921875
-0.08941650390625
-0.0958251953125
-0.103759765625
-0.09429931640625
-0.07904052734375
-0.0811767578125
-0.07843017578125
-0.0787353515625
-0.0701904296875
-0.0469970703125
-0.0384521484375
-0.04608154296875
-0.0579833984375
-0.0579833984375
-0.06378173828125
-0.06439208984375
-0.0689697265625
-0.08087158203125
-0.084228515625
-0.0848388671875
-0.07232666015625
-0.05767822265625
-0.05828857421875
-0.05279541015625
-0.04302978515625
-0.04119873046875
-0.062255859375
-0.0830078125
-0.10284423828125
-0.1141357421875
-0.1202392578125
-0.111083984375
-0.08056640625
-0.057373046875
-0.03936767578125
-0.02349853515625
-0.023193359375
-0.02777099609375
-0.03662109375
-0.04730224609375
-0.0531005859375
-0.05157470703125
-0.04364013671875
-0.03326416015625
-0.01800537109375
-0.01068115234375
-0.01922607421875
-0.03387451171875
-0.0494384765625
-0.07476806640625
-0.09246826171875
-0.079345703125
-0.048828125
-0.0372314453125
-0.0457763671875
-0.05523681640625
-0.0732421875
-0.08819580078125
-0.0726318359375
-0.0347900390625
-0.01007080078125
-0.0115966796875
-0.0164794921875
-0.01190185546875
-0.01129150390625
-0.0164794921875
-0.0213623046875
-0.02105712890625
-0.02410888671875
-0.03753662109375
-0.0567626953125
-0.05706787109375
-0.05035400390625
-0.0494384765625
-0.04241943359375
-0.0469970703125
-0.05126953125
-0.0537109375
-0.048828125
-0.03875732421875
-0.02471923828125
-0.00823974609375
0.0018310546875
-0.00030517578125
0.02197265625
0.03265380859375
0.00885009765625
0.00518798828125
0.0177001953125
0.03387451171875
0.03753662109375
0.04486083984375
0.06011962890625
0.07965087890625
0.1025390625
0.118408203125
0.1336669921875
0.1361083984375
0.1434326171875
0.14312744140625
0.14434814453125
0.1446533203125
0.13916015625
0.1348876953125
0.13763427734375
0.14129638671875
0.14404296875
0.13336181640625
0.13092041015625
0.135498046875
0.13885498046875
0.1470947265625
0.15167236328125
0.15533447265625
0.15411376953125
0.155029296875
0.15655517578125
0.14801025390625
0.13824462890625
0.12420654296875
0.13671875
0.1507568359375
0.16876220703125
0.1788330078125
0.18524169921875
0.1751708984375
0.1629638671875
0.17242431640625
0.1885986328125
0.20263671875
0.2093505859375
0.21820068359375
0.2203369140625
0.21881103515625
0.216064453125
0.216064453125
0.2166748046875
0.205078125
0.20538330078125
0.21240234375
0.220947265625
0.234375
0.2374267578125
0.23651123046875
0.22308349609375
0.20416259765625
0.17913818359375
0.1416015625
0.11962890625
0.0946044921875
0.07293701171875
0.06622314453125
0.078125
0.1129150390625
0.13824462890625
0.1416015625
0.12939453125
0.1068115234375
0.0885009765625
0.07720947265625
0.074462890625
0.08392333984375
0.0836181640625
0.0787353515625
0.07232666015625
0.06622314453125
0.052490234375
0.045166015625
0.0408935546875
0.03173828125
0.02166748046875
0.0103759765625
0.00457763671875
0.0018310546875
0.00518798828125
0.00457763671875
0.00518798828125
-0.0018310546875
-0.008544921875
-0.018310546875
-0.02471923828125
-0.02166748046875
-0.010986328125
-0.013427734375
-0.02288818359375
-0.04791259765625
-0.06927490234375
-0.07354736328125
-0.05615234375
-0.0482177734375
-0.059814453125
-0.04913330078125
-0.010986328125
0.0115966796875
0.01007080078125
-0.00213623046875
-0.0079345703125
-0.0091552734375
-0.00274658203125
-0.015869140625
-0.032958984375
-0.03753662109375
-0.04364013671875
-0.042724609375
-0.03875732421875
-0.035400390625
-0.03662109375
-0.0372314453125
-0.03173828125
-0.03997802734375
-0.04852294921875
-0.0640869140625
-0.07080078125
-0.07598876953125
-0.07171630859375
-0.05126953125
-0.02899169921875
-0.00396728515625
0.01434326171875
0.01190185546875
-0.00213623046875
-0.01556396484375
-0.0213623046875
-0.03448486328125
-0.04669189453125
-0.0341796875
-0.0164794921875
0.006103515625
0.01861572265625
0.01953125
0.00701904296875
0.00091552734375
-0.0146484375
-0.04547119140625
-0.078125
-0.10894775390625
-0.1422119140625
-0.18463134765625
-0.23284912109375
-0.272216796875
-0.2880859375
-0.2874755859375
-0.2996826171875
-0.31158447265625
-0.32257080078125
-0.3302001953125
-0.32562255859375
-0.29510498046875
-0.23101806640625
-0.16265869140625
-0.10955810546875
-0.04608154296875
0.0555419921875
0.179443359375
0.30303955078125
0.41900634765625
0.5523681640625
0.72479248046875
0.94635009765625
1.1968994140625
1.47247314453125
1.7706298828125
2.083740234375
2.38555908203125
2.6629638671875
2.9022216796875
3.0816650390625
3.2196044921875
3.31512451171875
3.377685546875
3.4210205078125
3.43017578125
3.37890625
3.2354736328125
3.05328369140625
2.83447265625
2.58514404296875
2.35992431640625
2.13897705078125
1.91070556640625
1.69677734375
1.48040771484375
1.23382568359375
0.980224609375
0.78155517578125
0.62164306640625
0.4547119140625
0.34088134765625
0.29022216796875
0.27099609375
0.24658203125
0.2374267578125
0.24322509765625
0.2606201171875
0.263671875
0.247802734375
0.230712890625
0.21209716796875
0.2001953125
0.19866943359375
0.2227783203125
0.2435302734375
0.2362060546875
0.21575927734375
0.17547607421875
0.13885498046875
0.11383056640625
0.09429931640625
0.0836181640625
0.0927734375
0.1226806640625
0.1605224609375
0.18341064453125
0.16937255859375
0.13092041015625
0.09185791015625
0.06072998046875
0.03936767578125
0.020751953125
0.01373291015625
0.01708984375
0.018310546875
0.00762939453125
-0.00701904296875
-0.00762939453125
-0.009765625
0.0103759765625
0.03753662109375
0.045166015625
0.02288818359375
-0.0079345703125
-0.0146484375
-0.01007080078125
-0.01434326171875
-0.02105712890625
-0.03021240234375
-0.0469970703125
-0.06072998046875
-0.05279541015625
-0.04119873046875
-0.037841796875
-0.0189208984375
-0.008544921875
0.00274658203125
0.02716064453125
0.0408935546875
0.03387451171875
0.01861572265625
0.00335693359375
-0.00732421875
-0.01312255859375
-0.01617431640625
-0.02349853515625
-0.02655029296875
-0.01190185546875
0.00244140625
-0.00030517578125
-0.00579833984375
-0.00335693359375
0.003662109375
0.01495361328125
0.02685546875
0.03448486328125
0.0335693359375
0.03448486328125
0.03204345703125
0.03204345703125
0.03082275390625
0.0347900390625
0.03173828125
0.02899169921875
0.0225830078125
0.0189208984375
0.02655029296875
0.03265380859375
0.03997802734375
0.0555419921875
0.062255859375
0.0732421875
0.07659912109375
0.07354736328125
0.078125
0.08056640625
0.0701904296875
0.06927490234375
0.0640869140625
0.0640869140625
0.06805419921875
0.06500244140625
0.057373046875
0.0579833984375
0.08148193359375
0.10345458984375
0.111083984375
0.11138916015625
0.1141357421875
0.11627197265625
0.11688232421875
0.12237548828125
0.11871337890625
0.1177978515625
0.1226806640625
0.13427734375
0.13702392578125
0.12481689453125
0.11474609375
0.09796142578125
0.07568359375
0.06744384765625
0.0701904296875
0.0799560546875
0.1031494140625
0.1312255859375
0.1708984375
0.20904541015625
0.23529052734375
0.2252197265625
0.19134521484375
0.17059326171875
0.16693115234375
0.1727294921875
0.1904296875
0.21148681640625
0.20477294921875
0.194091796875
0.19744873046875
0.2044677734375
0.213623046875
0.22552490234375
0.22857666015625
0.21728515625
0.201416015625
0.1885986328125
0.19195556640625
0.20751953125
0.2130126953125
0.2178955078125
0.234375
0.24322509765625
0.2423095703125
0.2606201171875
0.2838134765625
0.28900146484375
0.29296875
0.28411865234375
0.28289794921875
0.29266357421875
0.306396484375
0.3009033203125
0.2862548828125
0.28839111328125
0.3082275390625
0.31951904296875
0.31097412109375
0.29693603515625
0.301513671875
0.3228759765625
0.32684326171875
0.32257080078125
0.3369140625
0.3546142578125
0.364990234375
0.3790283203125
0.38482666015625
0.3936767578125
0.408935546875
0.41046142578125
0.4071044921875
0.4052734375
0.4052734375
0.4095458984375
0.40985107421875
0.41961669921875
0.4388427734375
0.45379638671875
0.45654296875
0.46173095703125
0.46966552734375
0.48004150390625
0.48095703125
0.49102783203125
0.50018310546875
0.5169677734375
0.54229736328125
0.5548095703125
0.54840087890625
0.53955078125
0.5352783203125
0.5413818359375
0.548095703125
0.55633544921875
0.560302734375
0.560302734375
0.5645751953125
0.56915283203125
0.5670166015625
0.562744140625
0.56304931640625
0.5706787109375
0.57098388671875
0.5859375
0.5841064453125
0.5706787109375
0.58319091796875
0.609130859375
0.62713623046875
0.650634765625
0.65948486328125
0.63720703125
0.611572265625
0.6182861328125
0.62835693359375
0.6268310546875
0.61248779296875
0.606689453125
0.6231689453125
0.6341552734375
0.63232421875
0.61614990234375
0.5908203125
0.5645751953125
0.56121826171875
0.55572509765625
0.53924560546875
0.52093505859375
0.5059814453125
0.4937744140625
0.49102783203125
0.4949951171875
0.49591064453125
0.48309326171875
0.46051025390625
0.42724609375
0.39215087890625
0.36468505859375
0.335693359375
0.31707763671875
0.31341552734375
0.30548095703125
0.27587890625
0.23529052734375
0.206298828125
0.18402099609375
0.1776123046875
0.16998291015625
0.1617431640625
0.1544189453125
0.13641357421875
0.11474609375
0.09307861328125
0.086669921875
0.0799560546875
0.07080078125
0.054931640625
0.032958984375
0.01800537109375
0.003662109375
-0.003662109375
-0.01373291015625
-0.01983642578125
-0.01617431640625
-0.015869140625
-0.02410888671875
-0.0457763671875
-0.06378173828125
-0.07598876953125
-0.08941650390625
-0.09429931640625
-0.0982666015625
-0.0830078125
-0.0567626953125
-0.06500244140625
-0.09918212890625
-0.12359619140625
-0.1287841796875
-0.12359619140625
-0.11627197265625
-0.1165771484375
-0.11932373046875
-0.1263427734375
-0.13946533203125
-0.13580322265625
-0.1275634765625
-0.12725830078125
-0.12542724609375
-0.13397216796875
-0.14739990234375
-0.152587890625
-0.15350341796875
-0.1513671875
-0.150146484375
-0.15228271484375
-0.15045166015625
-0.13427734375
-0.1239013671875
-0.11474609375
-0.10772705078125
-0.1129150390625
-0.1226806640625
-0.1422119140625
-0.15289306640625
-0.14801025390625
-0.150146484375
-0.15289306640625
-0.169677734375
-0.1947021484375
-0.2166748046875
-0.23101806640625
-0.22705078125
-0.18524169921875
-0.13397216796875
-0.1092529296875
-0.08392333984375
-0.0738525390625
-0.09124755859375
-0.11962890625
-0.1251220703125
-0.11505126953125
-0.1153564453125
-0.111083984375
-0.11444091796875
-0.12176513671875
-0.12664794921875
-0.1251220703125
-0.093994140625
-0.08636474609375
-0.11322021484375
-0.1226806640625
-0.12451171875
-0.12969970703125
-0.13671875
-0.12603759765625
-0.09063720703125
-0.04730224609375
-0.0469970703125
-0.072021484375
-0.07904052734375
-0.0799560546875
-0.08697509765625
-0.1220703125
-0.15289306640625
-0.16204833984375
-0.15106201171875
-0.1220703125
-0.10833740234375
-0.1055908203125
-0.10955810546875
-0.11199951171875
-0.10284423828125
-0.0982666015625
-0.09979248046875
-0.10498046875
-0.11260986328125
-0.11627197265625
-0.11383056640625
-0.10711669921875
-0.108642578125
-0.11138916015625
-0.11016845703125
-0.101318359375
-0.10040283203125
-0.09979248046875
-0.09185791015625
-0.0872802734375
-0.0958251953125
-0.09490966796875
-0.076904296875
-0.0714111328125
-0.07965087890625
-0.06591796875
-0.05157470703125
-0.0628662109375
-0.08087158203125
-0.09185791015625
-0.08270263671875
-0.0653076171875
-0.064697265625
-0.0714111328125
-0.07354736328125
-0.07781982421875
-0.08636474609375
-0.09124755859375
-0.09185791015625
-0.07965087890625
-0.0677490234375
-0.07415771484375
-0.07659912109375
-0.074462890625
-0.07476806640625
-0.08056640625
-0.08209228515625
-0.07568359375
-0.07965087890625
-0.08544921875
-0.08575439453125
-0.07843017578125
-0.07568359375
-0.081787109375
-0.084228515625
-0.09124755859375
-0.0909423828125
-0.09124755859375
-0.1007080078125
-0.101318359375
-0.08453369140625
-0.0665283203125
-0.06500244140625
-0.062255859375
-0.0518798828125
-0.05828857421875
-0.0811767578125
-0.09735107421875
-0.11627197265625
-0.130615234375
-0.13671875
-0.1422119140625
-0.13824462890625
-0.1080322265625
-0.07843017578125
-0.0543212890625
-0.0299072265625
-0.02166748046875
-0.02899169921875
-0.03326416015625
-0.03997802734375
-0.05340576171875
-0.05401611328125
-0.057373046875
-0.07720947265625
-0.08880615234375
-0.096435546875
-0.09429931640625
-0.0958251953125
-0.09552001953125
-0.0958251953125
-0.1025390625
-0.10833740234375
-0.10101318359375
-0.07476806640625
-0.05828857421875
-0.07659912109375
-0.089111328125
-0.08697509765625
-0.08544921875
-0.08697509765625
-0.087890625
-0.08819580078125
-0.08941650390625
-0.078125
-0.07720947265625
-0.08026123046875
-0.0885009765625
-0.08758544921875
-0.05859375
-0.0238037109375
-0.01983642578125
-0.04608154296875
-0.06805419921875
-0.0750732421875
-0.08056640625
-0.084228515625
-0.08331298828125
-0.06317138671875
-0.042724609375
-0.03143310546875
-0.048828125
-0.06072998046875
-0.0537109375
