-7.8639615e-02
-1.3250641e-01
-1.7222225e-01
-1.9386863e-01
-2.0086687e-01
-2.1390654e-01
-2.4443881e-01
-2.6956050e-01
-2.7240593e-01
-2.5252757e-01
-2.2208047e-01
-2.0134047e-01
-1.9085098e-01
-1.7921752e-01
-1.6178288e-01
-1.4721190e-01
-1.4387342e-01
-1.4686971e-01
-1.5113979e-01
-1.5132400e-01
-1.4287881e-01
-1.2433517e-01
-9.9347749e-02
-7.5052479e-02
-5.0137137e-02
-2.9002678e-02
-1.9756147e-02
-1.3927460e-02
-7.6083836e-04
2.7142213e-02
6.9408672e-02
1.1780815e-01
1.7299861e-01
2.3430414e-01
2.8765244e-01
3.0488725e-01
2.7338994e-01
2.0899341e-01
1.3220512e-01
6.5995178e-02
1.9071026e-02
-1.5585156e-02
-4.1168378e-02
-5.9943967e-02
-7.2276931e-02
-8.4255904e-02
-1.0156973e-01
-1.2487412e-01
-1.5688779e-01
-1.8886708e-01
-2.1711043e-01
-2.4505019e-01
-2.6370090e-01
-2.6384352e-01
-2.4367871e-01
-2.0678333e-01
-1.5582728e-01
-9.3710375e-02
-2.4641566e-02
4.9459281e-02
1.2474169e-01
2.0345566e-01
2.8421679e-01
3.5175736e-01
3.9278513e-01
3.9216545e-01
3.4065851e-01
2.5052329e-01
1.4773342e-01
5.7771422e-02
-1.7113683e-02
-8.5113632e-02
-1.4059142e-01
-1.7645125e-01
-1.9149454e-01
-1.8599127e-01
-1.6105964e-01
-1.1932645e-01
-6.3679227e-02
7.5892741e-04
6.0979688e-02
1.0673412e-01
1.3552389e-01
1.4187490e-01
1.2230940e-01
7.8387879e-02
2.2614492e-02
-2.8312749e-02
-6.8386130e-02
-9.1224687e-02
-1.0101035e-01
-1.1034893e-01
-1.1952306e-01
-1.2829609e-01
-1.3309731e-01
-1.2489820e-01
-1.0110823e-01
-6.7085514e-02
-2.7639471e-02
2.1749405e-02
7.6314435e-02
1.2435203e-01
1.5818682e-01
1.6440198e-01
1.4124612e-01
1.0504926e-01
7.2564657e-02
5.2936361e-02
5.0144413e-02
6.3836984e-02
7.8630599e-02
7.9370989e-02
6.7339622e-02
4.3445207e-02
1.1093925e-02
-1.4852388e-02
-2.7633502e-02
-3.6807836e-02
-4.4925151e-02
-4.6705455e-02
-5.3180869e-02
-7.7607217e-02
-1.1851958e-01
-1.6777709e-01
-2.1152087e-01
-2.4092917e-01
-2.5639092e-01
-2.6091494e-01
-2.5851637e-01
-2.4979025e-01
-2.3578238e-01
-2.1656585e-01
-1.8754309e-01
-1.4682558e-01
-9.5908684e-02
-3.3830616e-02
3.4735726e-02
9.5353061e-02
1.5142254e-01
2.2321736e-01
3.0844541e-01
3.8907681e-01
4.4755996e-01
4.6138146e-01
4.2179616e-01
3.5162954e-01
2.7537491e-01
1.9043427e-01
1.0450431e-01
4.3847103e-02
1.4295314e-02
6.9225957e-03
1.2269528e-02
1.6580325e-02
1.0543045e-02
2.6345253e-03
5.9292738e-03
9.9239810e-03
4.7914085e-03
-6.6208537e-03
-2.3905697e-02
-3.1335075e-02
-1.8155123e-02
4.2176729e-03
1.3027518e-02
-1.7084896e-03
-2.4281596e-02
-4.6849393e-02
-6.8723194e-02
-8.4393617e-02
-9.3679685e-02
-9.7615959e-02
-9.5731294e-02
-9.0436401e-02
-8.8113397e-02
-9.1906737e-02
-9.5725608e-02
-9.5439001e-02
-9.3444505e-02
-9.0623293e-02
-8.7614378e-02
-8.5162441e-02
-8.5188075e-02
-9.2680339e-02
-1.0975252e-01
-1.3110216e-01
-1.4796621e-01
-1.5525609e-01
-1.4799745e-01
-1.2476277e-01
-9.2280130e-02
-5.3882316e-02
-1.0445451e-02
3.5465968e-02
8.0375810e-02
1.2227638e-01
1.5508715e-01
1.6787841e-01
1.6898504e-01
1.5683024e-01
1.1867619e-01
7.6432547e-02
4.8427313e-02
3.0473940e-02
5.5365845e-04
-5.8961374e-02
-1.3002300e-01
-1.9614772e-01
-2.4806228e-01
-2.7622759e-01
-2.7997519e-01
-2.6148534e-01
-2.2577905e-01
-1.7514620e-01
-1.1554509e-01
-5.2358971e-02
7.7294837e-03
4.8395117e-02
7.5823764e-02
1.0244041e-01
1.3222353e-01
1.7897200e-01
2.3684690e-01
2.7755219e-01
2.8063274e-01
2.5951393e-01
2.4355340e-01
2.3419722e-01
2.1843396e-01
1.7923362e-01
1.1628591e-01
6.0500984e-02
2.5103633e-02
-4.5421457e-03
-4.4145298e-02
-8.6878423e-02
-1.1071009e-01
-1.1097805e-01
-9.3664701e-02
-7.7623629e-02
-6.9959613e-02
-4.4092536e-02
6.4693215e-03
5.9841228e-02
9.1464095e-02
9.9304338e-02
1.0352078e-01
1.1433883e-01
1.2924790e-01
1.2293703e-01
8.9228876e-02
6.4655456e-02
6.3299883e-02
6.8476982e-02
5.6793738e-02
2.5013707e-02
-4.4998181e-03
-2.0946931e-02
-2.6407375e-02
-3.9738822e-02
-7.0783961e-02
-9.5580428e-02
-1.0408672e-01
-1.0458577e-01
-1.0148519e-01
-9.1211393e-02
-6.5449693e-02
-2.4390173e-02
2.4359045e-02
6.0656579e-02
7.5075450e-02
8.6165990e-02
1.0064937e-01
1.0008167e-01
6.1742599e-02
-8.1448110e-03
-8.2590155e-02
-1.5294520e-01
-2.1534853e-01
-2.6625941e-01
-3.0706881e-01
-3.3175420e-01
-3.3449256e-01
-3.1241278e-01
-2.6418151e-01
-1.9182149e-01
-1.1423500e-01
-5.2661144e-02
-6.2460406e-03
2.4501875e-02
4.8992763e-02
9.0961458e-02
1.5847653e-01
2.4748638e-01
3.3827737e-01
4.0300531e-01
4.2601864e-01
4.1164846e-01
3.7063356e-01
2.9785177e-01
2.0653200e-01
1.2743719e-01
6.7614761e-02
2.0213881e-02
-2.1843289e-02
-5.6930683e-02
-8.9514521e-02
-1.3149322e-01
-1.7962409e-01
-2.3037819e-01
-2.7202064e-01
-2.8818718e-01
-2.7561643e-01
-2.3403092e-01
-1.6858692e-01
-8.5402266e-02
-2.8992810e-03
6.1025979e-02
1.0408707e-01
1.2130102e-01
1.2528221e-01
1.2925678e-01
1.3593771e-01
1.5399499e-01
1.8530901e-01
2.1697864e-01
2.1827139e-01
1.7695673e-01
1.0728567e-01
2.4672175e-02
-4.7518864e-02
-9.5659618e-02
-1.2075771e-01
-1.2162157e-01
-9.6938200e-02
-5.7309897e-02
-2.9115035e-02
-1.9551737e-02
-2.4123558e-02
-4.9181872e-02
-8.4470905e-02
-1.1844658e-01
-1.5230662e-01
-1.8570939e-01
-2.1629261e-01
-2.3652896e-01
-2.4212069e-01
-2.3278115e-01
-2.1049046e-01
-1.8282142e-01
-1.4828819e-01
-1.0116775e-01
-4.2402315e-02
3.0698650e-02
1.1727037e-01
1.9328277e-01
2.2292004e-01
2.0767604e-01
1.6802811e-01
1.1127225e-01
5.4950075e-02
1.7890703e-03
-5.1194655e-02
-8.3333111e-02
-8.0242723e-02
-4.1363042e-02
2.0835760e-02
8.9402598e-02
1.4762136e-01
1.8468021e-01
2.0551190e-01
2.0011013e-01
1.6715860e-01
1.3613642e-01
1.2921761e-01
1.4499098e-01
1.6022707e-01
1.5498223e-01
1.2676722e-01
8.9650905e-02
5.5347391e-02
1.2712316e-03
-7.8593526e-02
-1.4706890e-01
-1.8094721e-01
-1.8285106e-01
-1.6578697e-01
-1.3874682e-01
-1.1596576e-01
-1.1236767e-01
-1.1690492e-01
-1.2570964e-01
-1.3459611e-01
-1.2067820e-01
-7.3943780e-02
-9.3412715e-03
4.5801034e-02
8.7552287e-02
1.1577737e-01
1.2635798e-01
1.2846342e-01
1.0448412e-01
5.0729434e-02
7.1713330e-03
-2.8698219e-03
8.1022829e-03
2.2737882e-02
4.7681506e-02
7.6700421e-02
9.4386047e-02
1.0014617e-01
7.0767991e-02
5.0233107e-03
-5.4648180e-02
-8.5720427e-02
-9.3813881e-02
-8.8285752e-02
-7.3410990e-02
-6.8120339e-02
-8.4830981e-02
-1.0760919e-01
-1.3291031e-01
-1.5645220e-01
-1.5970964e-01
-1.3471548e-01
-9.3695840e-02
-5.7505548e-02
-3.1237497e-02
-1.3088948e-02
8.7555200e-04
9.4785884e-03
-3.6242529e-03
-3.0487246e-02
-3.7598125e-02
-8.5201960e-03
5.1746854e-02
1.3093772e-01
2.1323922e-01
2.7236332e-01
3.0311693e-01
3.1639240e-01
2.9100258e-01
2.2357144e-01
1.5255208e-01
1.0538697e-01
8.4068819e-02
8.4234648e-02
1.0247268e-01
1.1206199e-01
9.7303648e-02
7.3264474e-02
2.9127013e-02
-3.9094057e-02
-1.0018225e-01
-1.3532624e-01
-1.5550257e-01
-1.7426958e-01
-1.8127714e-01
-1.7571152e-01
-1.6873216e-01
-1.6113173e-01
-1.6251289e-01
-1.7144160e-01
-1.6759426e-01
-1.4232161e-01
-1.0370416e-01
-5.9502094e-02
-1.9796082e-02
-1.4672712e-02
-4.9356421e-02
-9.2883600e-02
-1.3071322e-01
-1.5762101e-01
-1.6487123e-01
-1.4968070e-01
-1.2823328e-01
-1.1994846e-01
-1.1186674e-01
-8.8569752e-02
-4.8219728e-02
1.0190089e-03
3.2503951e-02
4.5268894e-02
7.1523229e-02
1.3055016e-01
2.0963284e-01
2.9176902e-01
3.6669713e-01
4.0367585e-01
3.8694864e-01
3.3190862e-01
2.4670755e-01
1.4553971e-01
6.1200905e-02
1.3314774e-02
-7.8738585e-03
-1.4552224e-02
-4.5030024e-03
1.3903706e-02
2.8604858e-02
3.1787068e-02
8.9541548e-03
-3.2516170e-02
-6.4341400e-02
-7.0359951e-02
-5.2504603e-02
-1.7791464e-02
2.7723081e-02
7.1252827e-02
1.0099140e-01
1.0890901e-01
8.5873413e-02
3.8338557e-02
-1.6164133e-02
-6.8152233e-02
-1.2282424e-01
-1.8444210e-01
-2.3708545e-01
-2.6772473e-01
-2.7717399e-01
-2.7059213e-01
-2.5545916e-01
-2.3242492e-01
-1.9672396e-01
-1.4657580e-01
-9.4765508e-02
-5.4532537e-02
-1.6132164e-02
3.2272626e-02
9.0808267e-02
1.4657976e-01
1.7931279e-01
1.8335975e-01
1.6702085e-01
1.4136811e-01
1.1278677e-01
8.7757527e-02
7.8007974e-02
8.8985782e-02
1.1710073e-01
1.4180387e-01
1.4099096e-01
1.2460285e-01
1.1198060e-01
1.0788845e-01
1.0185517e-01
8.3732525e-02
6.0095354e-02
3.9185866e-02
2.7964692e-02
1.9139862e-02
-5.3659430e-03
-3.8140744e-02
-5.7522014e-02
-5.6452680e-02
-4.7366586e-02
-4.2781202e-02
-4.3025690e-02
-4.7336368e-02
-4.9839389e-02
-5.5878827e-02
-7.9248349e-02
-1.1062618e-01
-1.3535648e-01
-1.5028985e-01
-1.5667739e-01
-1.5544244e-01
-1.4760355e-01
-1.3480948e-01
-1.1834656e-01
-1.0455790e-01
-9.7683841e-02
-9.1608768e-02
-8.1066550e-02
-6.7005947e-02
-5.2366769e-02
-3.7339217e-02
-1.9946403e-02
-2.7011249e-06
1.9481703e-02
3.6484364e-02
5.5956906e-02
8.1939337e-02
1.1425816e-01
1.4871297e-01
1.7658325e-01
1.9463711e-01
1.9718038e-01
1.8139896e-01
1.5282342e-01
1.1048509e-01
6.2040022e-02
1.9506983e-02
-1.4809755e-02
-4.0642383e-02
-5.9464340e-02
-7.4235617e-02
-9.0575959e-02
-1.1109007e-01
-1.2841282e-01
-1.3690747e-01
-1.3611932e-01
-1.2447152e-01
-1.0268230e-01
-7.4119847e-02
-4.4005953e-02
-1.4773639e-02
1.2172823e-02
3.6214667e-02
6.2788974e-02
8.9775463e-02
1.1358892e-01
1.3308024e-01
1.3556425e-01
1.1086994e-01
6.6542596e-02
2.1542211e-02
-1.1440896e-02
-3.2009189e-02
-4.3035814e-02
-4.6216477e-02
-4.0557932e-02
-2.5432981e-02
-3.1853809e-03
2.3041123e-02
4.7128997e-02
6.0722862e-02
5.7477632e-02
4.0472695e-02
2.3950761e-02
1.1994075e-02
-2.0722737e-04
-8.6350940e-03
-1.2600357e-02
-1.9799163e-02
-3.4303286e-02
-5.1484768e-02
-6.5772436e-02
-7.3757834e-02
-7.2899162e-02
-6.7092193e-02
-5.9910475e-02
-5.2000218e-02
-4.6979446e-02
-4.4212570e-02
-3.8865531e-02
-2.9518872e-02
-2.1108439e-02
-1.5707943e-02
-9.4451254e-03
-4.0645698e-03
-4.5949636e-04
9.7872054e-04
-1.3592786e-03
-5.2322016e-03
-7.2749262e-03
-2.7089210e-03
7.3718658e-03
2.0467765e-02
3.6099703e-02
5.1242222e-02
6.7431585e-02
8.0132824e-02
7.7123441e-02
5.4798866e-02
2.0141148e-02
-1.6358974e-02
-4.9019071e-02
-7.1918056e-02
-8.0101717e-02
-7.7601681e-02
-6.8170626e-02
-5.5938631e-02
-5.2093308e-02
-6.3067640e-02
-8.0416729e-02
-8.8326872e-02
-8.0683267e-02
-5.9621370e-02
-2.5998835e-02
1.8034540e-02
7.1910157e-02
1.3185123e-01
1.8431771e-01
2.0735191e-01
1.9719453e-01
1.7086247e-01
1.2719882e-01
7.1142873e-02
2.4968000e-02
-3.8825054e-03
-1.7427777e-02
-2.0186634e-02
-1.9074822e-02
-2.2069855e-02
-2.9523812e-02
-3.0689860e-02
-2.5016429e-02
-1.4055965e-02
-4.3281100e-03
-8.0606252e-03
-1.2660791e-02
-9.1987443e-03
-7.4579396e-03
-1.8381031e-02
-4.4307832e-02
-6.8280593e-02
-7.5448418e-02
-6.1572769e-02
-3.7279582e-02
-1.9366934e-02
-6.1981263e-04
2.5516382e-02
4.8717922e-02
5.2108089e-02
3.1527746e-02
1.1403159e-02
8.1418185e-03
2.2821492e-02
5.3653534e-02
9.3453987e-02
1.4020132e-01
1.8767646e-01
2.1404748e-01
1.9459921e-01
1.3592285e-01
7.1573736e-02
1.7616738e-02
-2.4641241e-02
-5.4326644e-02
-7.2687557e-02
-8.0290677e-02
-8.0999480e-02
-8.0175904e-02
-8.4934821e-02
-9.8291355e-02
-1.1498716e-01
-1.3332312e-01
-1.4980277e-01
-1.6480295e-01
-1.8163367e-01
-1.9295776e-01
-1.9411940e-01
-1.8606470e-01
-1.6952444e-01
-1.4397568e-01
-1.1541533e-01
-9.4964392e-02
-8.1499614e-02
-7.7873990e-02
-8.6920929e-02
-9.0646424e-02
-7.8295067e-02
-5.2584087e-02
-2.2774385e-02
4.7942128e-03
3.6573232e-02
7.3802944e-02
1.1076755e-01
1.3829345e-01
1.5910830e-01
1.8790930e-01
2.2318877e-01
2.4490193e-01
2.3022320e-01
1.8939508e-01
1.5494430e-01
1.3702019e-01
1.2883166e-01
1.0435003e-01
5.6286723e-02
1.4834404e-02
-1.3239029e-02
-4.8256931e-02
-1.1203620e-01
-1.9694873e-01
-2.6110119e-01
-2.8113815e-01
-2.6097115e-01
-2.1494122e-01
-1.5532225e-01
-7.8299170e-02
1.2311317e-02
9.5258083e-02
1.4923033e-01
1.7625006e-01
1.8662305e-01
1.8296469e-01
1.7685998e-01
1.5687934e-01
1.1629104e-01
8.4433060e-02
7.4472351e-02
7.7961723e-02
8.3502935e-02
9.3215066e-02
1.0835172e-01
1.2054980e-01
1.2946668e-01
1.1762490e-01
8.3058913e-02
5.3432880e-02
3.4328767e-02
1.4417307e-02
-1.6382965e-02
-5.1377156e-02
-8.3504170e-02
-1.1825485e-01
-1.5400559e-01
-1.9079919e-01
-2.1607439e-01
-2.1404259e-01
-1.8881217e-01
-1.4838762e-01
-1.0268391e-01
-5.4930597e-02
-1.3697313e-02
1.0681737e-02
2.5436904e-02
3.5026514e-02
5.5410969e-02
9.9732841e-02
1.5737221e-01
2.1449271e-01
2.5143914e-01
2.6566160e-01
2.6180480e-01
2.3345319e-01
1.8645152e-01
1.2619110e-01
5.8244714e-02
-1.1309248e-02
-8.0212375e-02
-1.3786407e-01
-1.7168127e-01
-1.7534881e-01
-1.6903066e-01
-1.7627989e-01
-1.9741403e-01
-2.2904828e-01
-2.5242845e-01
-2.5001140e-01
-2.2083811e-01
-1.6505496e-01
-8.6115393e-02
1.0672102e-02
1.0066631e-01
1.6565460e-01
2.0751735e-01
2.1336773e-01
1.8928350e-01
1.4801063e-01
9.1724171e-02
4.3329960e-02
1.8163849e-02
1.6404400e-02
1.9731867e-02
6.1234569e-03
-2.7039225e-02
-7.7960401e-02
-1.2553299e-01
-1.5499445e-01
-1.7119478e-01
-1.7137587e-01
-1.5381152e-01
-1.1683445e-01
-7.0663741e-02
-3.0109263e-02
-1.3718034e-03
1.3628812e-02
2.5897427e-02
2.5499878e-02
2.6278499e-03
-1.9231267e-02
-2.5241383e-02
-1.4282953e-02
1.6194776e-03
9.1135079e-03
5.6660677e-03
-7.5202189e-03
-1.9207205e-02
-3.3566140e-02
-4.9099384e-02
-3.9464688e-02
6.7720415e-03
7.5597521e-02
1.3277929e-01
1.6644602e-01
1.8677852e-01
1.9255040e-01
1.8505743e-01
1.5047149e-01
9.0508535e-02
4.3180503e-02
3.0030389e-02
4.4878942e-02
5.8978289e-02
5.8615541e-02
4.9559173e-02
3.1484118e-02
9.5859810e-03
-2.8057999e-02
-8.0629860e-02
-1.1367236e-01
-1.0908969e-01
-7.2403949e-02
-3.0108428e-02
-1.9778603e-03
7.7142725e-03
-2.0791688e-03
-1.8870682e-02
-5.1010735e-02
-1.0154449e-01
-1.3976521e-01
-1.4810179e-01
-1.2766719e-01
-9.9492740e-02
-8.1142742e-02
-7.2696911e-02
-7.4461247e-02
-7.8229221e-02
-9.3056120e-02
-1.2007377e-01
-1.2628622e-01
-9.4112683e-02
-3.3631866e-02
3.1220082e-02
9.0232833e-02
1.3880350e-01
1.7216732e-01
1.9963197e-01
2.0447905e-01
1.7017705e-01
1.2295768e-01
9.6999764e-02
1.0193595e-01
1.2083628e-01
1.4264792e-01
1.5863324e-01
1.5828245e-01
1.4696004e-01
1.1098647e-01
4.5578630e-02
-1.2757955e-02
-3.7637823e-02
-3.3734106e-02
-2.7093646e-02
-2.8686104e-02
-3.8769813e-02
-6.2845778e-02
-8.7900490e-02
-1.1973341e-01
-1.6343132e-01
-1.9040480e-01
-1.8614816e-01
-1.5926976e-01
-1.2274921e-01
-8.1618101e-02
-5.1031643e-02
-4.2648033e-02
-4.2909982e-02
-5.6978761e-02
-8.5245079e-02
-9.7590559e-02
-7.7987047e-02
-3.8058263e-02
3.1557052e-03
3.7193086e-02
4.8811989e-02
3.7206636e-02
2.7666671e-02
1.8438893e-02
8.8099923e-03
2.3676760e-02
7.5309633e-02
1.4232569e-01
1.8456472e-01
1.9235941e-01
1.7376636e-01
1.4225971e-01
1.1715625e-01
8.3848368e-02
3.6864163e-02
8.5088848e-03
1.7497473e-02
4.6074535e-02
7.3912088e-02
1.0909773e-01
1.3910642e-01
1.4788869e-01
1.4434850e-01
1.0815644e-01
3.4667121e-02
-3.5812546e-02
-7.7279647e-02
-9.7082779e-02
-1.0742606e-01
-1.0259060e-01
-9.2104012e-02
-9.1043467e-02
-9.7099604e-02
-1.2449217e-01
-1.7281763e-01
-2.1093618e-01
-2.2269332e-01
-2.1404354e-01
-1.9277888e-01
-1.5803990e-01
-1.1643359e-01
-7.2528893e-02
-3.0077936e-02
-8.4786122e-03
-9.8943029e-04
2.2397172e-02
7.3977905e-02
1.4172994e-01
2.0833629e-01
2.6063193e-01
2.7233879e-01
2.4206726e-01
1.9775082e-01
1.4579859e-01
9.3377930e-02
6.1398763e-02
5.8826499e-02
6.8347808e-02
6.7055675e-02
6.0805979e-02
5.7996590e-02
6.1557517e-02
6.8390045e-02
5.2624270e-02
9.7844291e-03
-3.2664762e-02
-5.6273983e-02
-6.8601570e-02
-8.2379576e-02
-9.4319376e-02
-1.0878189e-01
-1.3264906e-01
-1.6332259e-01
-2.0397527e-01
-2.4840169e-01
-2.8091939e-01
-2.9612695e-01
-2.9695583e-01
-2.8577144e-01
-2.6165292e-01
-2.2394192e-01
-1.7228927e-01
-1.1661863e-01
-7.7460830e-02
-5.1242924e-02
-1.4309636e-02
4.3691769e-02
1.1166563e-01
1.7895510e-01
2.4367132e-01
2.8803743e-01
2.9862975e-01
2.7909679e-01
2.3229174e-01
1.7388721e-01
1.3039595e-01
1.1577076e-01
1.1911818e-01
1.2549859e-01
1.3671667e-01
1.4924090e-01
1.5774857e-01
1.5570853e-01
1.2644926e-01
7.7745607e-02
3.8945403e-02
2.4273000e-02
1.0842496e-02
-2.5330171e-02
-6.2443556e-02
-7.9004694e-02
-7.8009488e-02
-7.2369651e-02
-7.6727223e-02
-8.4479648e-02
-7.9403880e-02
-5.7583773e-02
-3.8815941e-02
-4.1697444e-02
-5.7311581e-02
-7.6066564e-02
-9.2327993e-02
-1.0376766e-01
-1.1232558e-01
-1.1312521e-01
-1.0306392e-01
-8.4385392e-02
-7.2038156e-02
-7.6739600e-02
-8.2284108e-02
-7.5248676e-02
-5.4643545e-02
-2.8042936e-02
-6.9614907e-03
1.3124397e-02
4.0556158e-02
7.6759661e-02
1.0464686e-01
1.0821202e-01
1.0014813e-01
9.2041781e-02
9.1377879e-02
9.7979582e-02
9.9770428e-02
9.7210469e-02
9.7460603e-02
1.0203137e-01
9.2228561e-02
5.1682217e-02
-2.7869541e-03
-5.4320473e-02
-9.7379210e-02
-1.3137990e-01
-1.5647196e-01
-1.6898155e-01
-1.6948356e-01
-1.6052254e-01
-1.5020104e-01
-1.4434750e-01
-1.3595380e-01
-1.1888450e-01
-9.7439254e-02
-7.6210607e-02
-4.8215407e-02
-6.6704981e-03
4.2861846e-02
8.8275305e-02
1.0822218e-01
9.6958075e-02
7.7884599e-02
6.5651410e-02
5.9072003e-02
5.4845486e-02
5.7098176e-02
7.3832356e-02
1.0280853e-01
1.2872880e-01
1.2439862e-01
8.7044389e-02
4.6234734e-02
1.7928005e-02
3.2803233e-03
6.9614260e-04
8.5510851e-03
2.9234980e-02
5.6591192e-02
7.6024106e-02
6.9187008e-02
3.5710627e-02
-9.6698419e-05
-2.4105213e-02
-3.3636806e-02
-2.8982777e-02
-1.1674268e-02
1.8911117e-02
5.7548122e-02
9.5393478e-02
1.0856016e-01
8.2680070e-02
3.9563271e-02
-3.5612682e-03
-4.2711646e-02
-7.6038091e-02
-1.0502727e-01
-1.3093559e-01
-1.5347602e-01
-1.7127889e-01
-1.8751190e-01
-2.0341644e-01
-2.1444800e-01
-2.1825306e-01
-2.1504498e-01
-2.0304839e-01
-1.7963747e-01
-1.4333217e-01
-9.2761807e-02
-3.4944830e-02
9.1037840e-03
3.2308150e-02
4.7294661e-02
6.2531017e-02
8.3557643e-02
1.1350516e-01
1.5340145e-01
2.0252814e-01
2.5415533e-01
2.9592476e-01
3.0686150e-01
2.8024696e-01
2.2184232e-01
1.3795069e-01
5.2651525e-02
-1.7261584e-02
-6.5692703e-02
-8.2390813e-02
-6.6894592e-02
-2.7747461e-02
2.3142788e-02
7.3441492e-02
1.0396808e-01
1.0558060e-01
8.3078198e-02
3.8470548e-02
-9.9718020e-03
-4.5563175e-02
-7.0908485e-02
-8.9966237e-02
-1.0604152e-01
-1.1936951e-01
-1.2750214e-01
-1.2725619e-01
-1.1484701e-01
-9.1386249e-02
-5.9503463e-02
-2.3571836e-02
8.1757445e-03
2.7199801e-02
3.1250026e-02
3.2476534e-02
3.9459688e-02
4.9629893e-02
6.2614790e-02
7.9667032e-02
1.0450895e-01
1.3410526e-01
1.5241903e-01
1.4174062e-01
1.0027675e-01
4.8731164e-02
1.5233439e-03
-4.0136547e-02
-7.4856815e-02
-1.0403481e-01
-1.2728365e-01
-1.4115302e-01
-1.4694680e-01
-1.5174509e-01
-1.5656364e-01
-1.5628728e-01
-1.5153509e-01
-1.4187226e-01
-1.2388458e-01
-9.9009316e-02
-7.0886038e-02
-4.2340675e-02
-1.7372978e-02
-5.6581239e-03
-7.5653828e-03
-9.7995328e-03
-9.8712371e-03
-7.0247787e-03
7.4840863e-03
3.5735631e-02
7.5541083e-02
1.1959792e-01
1.5480847e-01
1.6834348e-01
1.5973802e-01
1.4424492e-01
1.2214942e-01
9.0816022e-02
6.7048275e-02
5.6871008e-02
5.2991955e-02
4.8728324e-02
3.5905972e-02
1.0026985e-02
-2.2176595e-02
-4.6158861e-02
-5.8902749e-02
-6.5216141e-02
-6.3032187e-02
-5.0725661e-02
-2.7816532e-02
2.1120350e-03
2.8540682e-02
3.4693438e-02
1.5978250e-02
-1.1047602e-02
-3.8648457e-02
-6.3233392e-02
-7.8378717e-02
-8.4500857e-02
-8.1534054e-02
-7.4408063e-02
-7.2400753e-02
-8.0044767e-02
-9.3596804e-02
-1.0389433e-01
-1.0707874e-01
-9.9400085e-02
-7.9840539e-02
-5.3559654e-02
-1.8198701e-02
2.5640235e-02
6.3006375e-02
7.6701344e-02
7.0405514e-02
6.2385093e-02
5.9162379e-02
6.6725865e-02
8.2937493e-02
9.7033010e-02
1.1633894e-01
1.3961801e-01
1.4604393e-01
1.1900242e-01
6.5178352e-02
1.4277413e-02
-1.7263226e-02
-2.7063577e-02
-1.8904794e-02
-2.5570252e-03
2.4330685e-02
6.0819520e-02
9.0663972e-02
9.1580896e-02
5.9881700e-02
2.2206928e-02
-5.9331126e-03
-2.8475994e-02
-5.5791868e-02
-9.4948156e-02
-1.3255443e-01
-1.5882144e-01
-1.7449040e-01
-1.7896402e-01
-1.7194632e-01
-1.5123816e-01
-1.1676561e-01
-7.3824619e-02
-4.0624729e-02
-2.5799756e-02
-9.1168638e-03
1.8962134e-02
4.9395712e-02
7.3616626e-02
9.2871150e-02
1.1430102e-01
1.3773196e-01
1.6304091e-01
1.6985071e-01
1.4289352e-01
1.1005436e-01
8.6454806e-02
5.8378018e-02
1.4713970e-02
-3.9090677e-02
-8.9459475e-02
-1.3214958e-01
-1.6345190e-01
-1.8874810e-01
-2.1370790e-01
-2.2608876e-01
-2.2105524e-01
-2.0532741e-01
-1.8640535e-01
-1.6374167e-01
-1.2862719e-01
-8.0089912e-02
-1.7319646e-02
5.7236540e-02
1.3758286e-01
2.2539013e-01
3.1075321e-01
3.6620192e-01
3.6911625e-01
3.3720667e-01
3.0307919e-01
2.6977447e-01
2.3428346e-01
1.8956397e-01
1.3907564e-01
1.0647861e-01
9.5132649e-02
8.8810758e-02
6.9730538e-02
3.8295874e-02
7.3105571e-03
-2.1761203e-02
-5.4310959e-02
-1.0427335e-01
-1.6552056e-01
-2.1241367e-01
-2.3520360e-01
-2.3469586e-01
-2.1537226e-01
-1.7996619e-01
-1.3272100e-01
-7.9697561e-02
-3.0337094e-02
-6.4057327e-03
-8.7717641e-03
-1.2246920e-02
-6.4999123e-03
-6.0662346e-04
-7.6043691e-03
-2.4759993e-02
-3.8188947e-02
-4.3321955e-02
-4.6227337e-02
-5.6278611e-02
-6.7199561e-02
-6.5106181e-02
-4.8176333e-02
-2.2477295e-02
-1.6958285e-03
9.8281801e-03
2.1814249e-02
3.6625752e-02
5.1693336e-02
6.0622573e-02
6.5585093e-02
7.7522575e-02
9.2508921e-02
9.9919657e-02
8.8536794e-02
5.7100267e-02
1.9036708e-02
-1.5827305e-02
-4.3363651e-02
-6.2576174e-02
-6.8090353e-02
-5.5442780e-02
-2.7770622e-02
1.1403356e-02
5.1730290e-02
8.5453609e-02
1.0142147e-01
8.8133573e-02
4.9624589e-02
-9.4962139e-03
-7.0613380e-02
-1.1488108e-01
-1.3982507e-01
-1.4318987e-01
-1.2591837e-01
-9.1055672e-02
-5.8068794e-02
-4.4837084e-02
-5.1143923e-02
-8.0927812e-02
-1.1765683e-01
-1.3698037e-01
-1.3461675e-01
-1.1150268e-01
-7.1437235e-02
-1.8912226e-02
2.4887481e-02
4.1403998e-02
3.3169309e-02
3.8744071e-03
-2.9024589e-02
-5.4922307e-02
-7.0564471e-02
-6.0326764e-02
-1.8375119e-02
5.1843880e-02
1.2962505e-01
1.9514194e-01
2.4527763e-01
2.7778007e-01
2.9689486e-01
2.8609604e-01
2.3910460e-01
1.9181332e-01
1.6900525e-01
1.6769063e-01
1.5938654e-01
1.2480637e-01
7.0616636e-02
4.9848748e-03
-5.5983675e-02
-1.1038722e-01
-1.6076632e-01
-1.8904507e-01
-1.8613770e-01
-1.5619213e-01
-1.1651511e-01
-8.3857338e-02
-6.8079322e-02
-7.3887723e-02
-8.5514063e-02
-1.0797292e-01
-1.4883372e-01
-1.7978681e-01
-1.8315703e-01
-1.6166575e-01
-1.3429875e-01
-1.1449196e-01
-1.0141855e-01
-9.7789756e-02
-9.3293729e-02
-9.4225502e-02
-1.0652400e-01
-1.0180552e-01
-6.2411467e-02
2.1038333e-03
6.7863090e-02
1.2400568e-01
1.6709004e-01
1.9679997e-01
2.2014453e-01
2.1653475e-01
1.7634484e-01
1.3556151e-01
1.3034320e-01
1.6100703e-01
2.0143151e-01
2.3013751e-01
2.3351862e-01
2.1559472e-01
1.8854991e-01
1.3668702e-01
5.1516805e-02
-3.6989693e-02
-9.5143461e-02
-1.1825435e-01
-1.2316365e-01
-1.1715460e-01
-1.0782238e-01
-1.0065390e-01
-9.0152323e-02
-9.4950547e-02
-1.1934089e-01
-1.2773085e-01
-9.8560305e-02
-3.9797287e-02
2.3971340e-02
7.3750729e-02
9.5381932e-02
8.9453645e-02
7.4201973e-02
4.2757389e-02
-3.3224547e-03
-3.1542553e-02
-2.4912600e-02
7.4000883e-03
4.9353781e-02
9.1682056e-02
1.1323814e-01
1.0750011e-01
9.3401585e-02
5.9552190e-02
3.1139874e-03
-4.2346582e-02
-5.7118465e-02
-4.6303640e-02
-2.1414577e-02
7.1137535e-03
1.4485166e-02
-8.6688935e-03
-4.3683374e-02
-9.6498988e-02
-1.6870408e-01
-2.2937361e-01
-2.6051727e-01
-2.6586078e-01
-2.5116511e-01
-2.2350102e-01
-2.0611022e-01
-2.0667089e-01
-2.0388343e-01
-1.9024324e-01
-1.5996579e-01
-9.9007985e-02
-3.3888405e-03
1.0714600e-01
2.0079768e-01
2.6458981e-01
2.9794803e-01
3.1193719e-01
3.1123757e-01
2.7614192e-01
2.1104300e-01
1.5563500e-01
1.3768204e-01
1.5113140e-01
1.8170522e-01
2.2085896e-01
2.4110955e-01
2.3680863e-01
2.2561446e-01
1.8801512e-01
1.1525790e-01
3.8014038e-02
-1.8673162e-02
-5.9394006e-02
-9.5975740e-02
-1.1416322e-01
-1.0447078e-01
-7.2830661e-02
-3.6165745e-02
-3.0838030e-02
-5.9053042e-02
-8.5547429e-02
-9.3168789e-02
-9.8440965e-02
-1.1846049e-01
-1.3669490e-01
-1.3894640e-01
-1.2881288e-01
-1.1649729e-01
-1.2172447e-01
-1.4104591e-01
-1.5099358e-01
-1.4199198e-01
-1.2657760e-01
-1.1703903e-01
-1.0473762e-01
-8.5730373e-02
-6.5477752e-02
-5.3527361e-02
-5.9688479e-02
-7.0215868e-02
-6.4380752e-02
-3.6936391e-02
-5.5717545e-03
1.4408224e-02
3.2709082e-02
5.3091111e-02
7.1309142e-02
7.8270018e-02
6.5197070e-02
4.5085817e-02
3.8382075e-02
5.4785597e-02
7.5312418e-02
7.9261527e-02
8.2293388e-02
9.7705216e-02
1.2753728e-01
1.5938799e-01
1.6130321e-01
1.2949225e-01
9.0678350e-02
6.7273744e-02
5.1314066e-02
2.6631949e-02
3.1148767e-03
-7.9083213e-03
-8.3706605e-05
1.7154336e-02
1.8135610e-02
3.4998823e-03
-1.0556932e-02
-1.5056745e-02
-1.8575232e-02
-3.3123409e-02
-4.6995244e-02
-4.8818487e-02
-3.6667442e-02
-1.9426642e-02
-1.2067896e-02
-1.0320088e-02
-1.9026355e-03
1.9059229e-02
4.1519835e-02
5.2660731e-02
5.3813723e-02
4.5047346e-02
2.8176701e-02
2.3124647e-04
-3.3854195e-02
-5.8285272e-02
-6.7793687e-02
-6.2754238e-02
-5.6516261e-02
-6.1867328e-02
-7.2268309e-02
-8.0769069e-02
-8.2939526e-02
-7.8812640e-02
-7.0849859e-02
-5.3664587e-02
-2.4910554e-02
1.2694469e-02
3.9693264e-02
3.9483113e-02
2.6626491e-02
1.5388779e-02
9.4778663e-03
8.7119096e-03
1.2466963e-02
2.3512970e-02
4.1537369e-02
6.0902496e-02
6.2371204e-02
3.6191783e-02
3.6445537e-03
-1.7191680e-02
-2.3382861e-02
-2.0438532e-02
-1.8541483e-02
-1.6960573e-02
-1.1418658e-02
-6.2178463e-04
1.1385289e-02
1.8303021e-02
2.1014860e-02
2.3572347e-02
2.9571422e-02
3.5916631e-02
3.9407690e-02
4.3636163e-02
4.9441689e-02
5.4498699e-02
5.0068814e-02
3.1653631e-02
8.4082218e-03
-1.4210765e-02
-3.2974100e-02
-4.6485570e-02
-5.6310819e-02
-6.1104843e-02
-6.1872746e-02
-6.1307115e-02
-6.1880702e-02
-6.1768531e-02
-6.2578359e-02
-7.1117920e-02
-8.2364111e-02
-8.8523305e-02
-8.7639237e-02
-7.9037416e-02
-6.4683627e-02
-4.9701819e-02
-4.1040275e-02
-3.7670827e-02
-3.9663048e-02
-5.0789948e-02
-6.2034065e-02
-6.4846935e-02
-5.7344888e-02
-4.1765798e-02
-2.6290768e-02
-1.8642589e-02
-1.8555940e-02
-1.3248588e-02
3.9799741e-03
3.0714937e-02
6.8659205e-02
1.1497772e-01
1.6553420e-01
2.1344276e-01
2.3893179e-01
2.2528461e-01
1.8088003e-01
1.3661904e-01
1.0813470e-01
9.1046768e-02
8.1440450e-02
7.5466968e-02
7.5231857e-02
8.0392355e-02
8.0579161e-02
6.2766551e-02
2.6011839e-02
-1.0798432e-02
-3.4238556e-02
-4.5614449e-02
-5.2514672e-02
-6.2192462e-02
-7.1406103e-02
-7.7207620e-02
-8.3385207e-02
-9.3613828e-02
-1.0955547e-01
-1.2755805e-01
-1.4204462e-01
-1.5170813e-01
-1.6011799e-01
-1.7118359e-01
-1.8350193e-01
-1.9479527e-01
-2.0508993e-01
-2.1407985e-01
-2.1965459e-01
-2.1721384e-01
-2.0364794e-01
-1.7851720e-01
-1.4392436e-01
-1.0206918e-01
-5.0464255e-02
1.1392492e-02
7.9179520e-02
1.4543250e-01
2.0763411e-01
2.6011025e-01
2.7888377e-01
2.6525151e-01
2.5147575e-01
2.4876257e-01
2.5422728e-01
2.6185527e-01
2.5523212e-01
2.2631420e-01
1.8778277e-01
1.5494475e-01
1.1679553e-01
6.6764379e-02
2.5394663e-02
-8.5328341e-04
-1.8384786e-02
-3.1289142e-02
-4.5180875e-02
-6.4657139e-02
-8.8515036e-02
-1.1464902e-01
-1.4709691e-01
-1.7659865e-01
-1.9059185e-01
-1.9015069e-01
-1.7615832e-01
-1.5174975e-01
-1.2748123e-01
-1.1414389e-01
-1.0924532e-01
-9.6344485e-02
-6.9201624e-02
-3.3916969e-02
6.0612723e-03
5.0182918e-02
1.0123905e-01
1.5350201e-01
1.8773531e-01
1.8500173e-01
1.4875228e-01
1.0305714e-01
5.8839902e-02
2.2798503e-02
2.1738117e-03
-6.3133923e-03
-1.5133685e-03
1.5894619e-02
3.8130047e-02
5.5600287e-02
6.5823819e-02
6.8743191e-02
5.5669442e-02
3.5982234e-02
1.4068687e-02
-2.2018044e-02
-5.9121781e-02
-8.4867146e-02
-1.0347303e-01
-1.2276335e-01
-1.4691868e-01
-1.6642609e-01
-1.7459913e-01
-1.6941379e-01
-1.5090827e-01
-1.2467729e-01
-9.0267373e-02
-4.9072820e-02
-1.0832588e-02
7.1913066e-03
6.3673980e-05
-8.5404435e-03
-2.1086128e-03
2.1854752e-02
6.3296800e-02
1.1848308e-01
1.8446938e-01
2.4591456e-01
2.7315440e-01
2.4320888e-01
1.7142026e-01
9.9523763e-02
4.6524336e-02
1.2277080e-02
-1.2316432e-02
-3.3660062e-02
-4.1233205e-02
-3.4308591e-02
-2.7095397e-02
-4.0536870e-02
-7.7626213e-02
-1.1647001e-01
-1.4597626e-01
-1.5986875e-01
-1.5597269e-01
-1.3756981e-01
-1.0080122e-01
-4.8915833e-02
5.1863538e-03
4.3358594e-02
6.3074121e-02
7.7780957e-02
9.3357818e-02
1.1147474e-01
1.1258202e-01
8.6086984e-02
5.6577878e-02
3.4570675e-02
1.2811736e-02
-2.0104928e-02
-6.4480431e-02
-1.0175731e-01
-1.2456472e-01
-1.3389732e-01
-1.3713178e-01
-1.3807931e-01
-1.2094738e-01
-8.4045246e-02
-4.3700017e-02
-1.3959450e-02
8.4100544e-03
3.0694484e-02
4.9469347e-02
7.1390750e-02
8.9429390e-02
9.6413024e-02
1.1064927e-01
1.3457570e-01
1.4364000e-01
1.1051411e-01
4.8407838e-02
2.8493762e-03
-1.1365610e-02
-8.0095709e-03
-2.5809709e-03
3.5103490e-03
2.4595436e-02
6.0378560e-02
9.2361331e-02
1.0052402e-01
9.0662876e-02
9.0267061e-02
1.1043308e-01
1.3862897e-01
1.4631289e-01
1.3289262e-01
1.2991775e-01
1.4555439e-01
1.6323766e-01
1.6068240e-01
1.3429014e-01
9.2521530e-02
3.7955423e-02
-1.6639513e-02
-7.1829505e-02
-1.3076603e-01
-1.7932602e-01
-2.1186236e-01
-2.2900863e-01
-2.3193554e-01
-2.2144619e-01
-2.0277416e-01
-1.8360562e-01
-1.6459075e-01
-1.5377708e-01
-1.5250836e-01
-1.4861304e-01
-1.4079940e-01
-1.3136965e-01
-1.1929462e-01
-1.0047689e-01
-7.3890735e-02
-4.3401097e-02
-7.5444792e-03
3.5894035e-02
9.1535671e-02
1.6317932e-01
2.4472710e-01
3.1094123e-01
3.2862338e-01
3.0046532e-01
2.4642569e-01
1.7432233e-01
9.6369563e-02
2.3068280e-02
-3.6930049e-02
-7.9250832e-02
-1.0557262e-01
-1.1534080e-01
-1.0969070e-01
-8.7668463e-02
-6.3246482e-02
-5.4468347e-02
-6.4425950e-02
-9.4442262e-02
-1.2568574e-01
-1.3764807e-01
-1.2629699e-01
-9.0376863e-02
-3.3453658e-02
4.2882879e-02
1.1628491e-01
1.6389429e-01
1.8520882e-01
1.7401937e-01
1.4487879e-01
1.1077889e-01
6.7525134e-02
2.9568148e-02
7.4329347e-03
1.2678890e-03
-2.5766937e-03
-1.9421110e-02
-4.9191726e-02
-9.1492114e-02
-1.3140697e-01
-1.5478636e-01
-1.6220669e-01
-1.5357075e-01
-1.3046595e-01
-9.4535340e-02
-6.1156507e-02
-4.4642010e-02
-4.4452645e-02
-6.0260363e-02
-7.7608017e-02
-8.7091512e-02
-8.9398925e-02
-7.6595989e-02
-4.5024448e-02
-5.9275906e-03
1.5472368e-02
1.3809130e-02
6.7507682e-03
7.4606846e-03
1.8082795e-02
2.4849645e-02
2.4700494e-02
3.5619771e-02
6.7463697e-02
1.0997220e-01
1.3522213e-01
1.3518951e-01
1.1763099e-01
8.1376676e-02
3.9397723e-02
-4.4969776e-03
-4.8755027e-02
-7.3520360e-02
-6.8867097e-02
-3.9073960e-02
-7.0068537e-03
1.2448225e-02
1.7454117e-02
5.0037851e-03
-1.2337197e-02
-3.6903190e-02
-6.8560652e-02
-8.3021132e-02
-6.7802007e-02
-3.0311105e-02
-2.6549520e-03
-9.3066648e-04
-1.1944189e-02
-2.9145941e-02
-4.2460277e-02
-5.7511391e-02
-7.9771484e-02
-8.3842646e-02
-5.2497466e-02
6.6469347e-03
6.4543210e-02
1.0832318e-01
1.4430107e-01
1.7356217e-01
2.0334770e-01
2.1542711e-01
1.9781539e-01
1.7965417e-01
1.8483408e-01
2.0759894e-01
2.1199051e-01
1.8658523e-01
1.4951537e-01
1.0630547e-01
6.1679785e-02
5.2075686e-03
-6.3612301e-02
-1.1269390e-01
-1.2495054e-01
-1.0943521e-01
-8.5372559e-02
-5.5919629e-02
-2.7040955e-02
-1.2747129e-02
-6.2814553e-03
-2.3496447e-02
-7.2730462e-02
-1.1734061e-01
-1.3590288e-01
-1.3082611e-01
-1.1342916e-01
-9.1343155e-02
-7.4711204e-02
-7.4980559e-02
-7.8992061e-02
-8.9470668e-02
-1.1218329e-01
-1.2271809e-01
-1.0685606e-01
-7.4867187e-02
-4.4088426e-02
-1.7344031e-02
-4.5885739e-03
-1.5345469e-02
-3.0825961e-02
-5.0582177e-02
-7.6780711e-02
-8.5272807e-02
-6.3805471e-02
-2.4819970e-02
1.6757065e-02
6.5384839e-02
1.1090604e-01
1.3584335e-01
1.4749016e-01
1.3984277e-01
1.1689412e-01
1.1255277e-01
1.4386663e-01
1.8830323e-01
2.0158752e-01
1.8172823e-01
1.5300174e-01
1.2403420e-01
9.5706132e-02
4.4483497e-02
-2.8506227e-02
-8.3373926e-02
-1.0228261e-01
-9.5897283e-02
-7.9691710e-02
-5.6233460e-02
-4.0554603e-02
-4.5191101e-02
-5.4648927e-02
-7.6366674e-02
-1.1438833e-01
-1.3783349e-01
-1.2969771e-01
-1.0407247e-01
-7.9485539e-02
-4.9395017e-02
-2.2222438e-02
-1.7146044e-02
-1.9047317e-02
-2.7530465e-02
-4.6739761e-02
-5.1763286e-02
-2.7738661e-02
1.0243289e-02
4.4707866e-02
8.1164720e-02
1.0895965e-01
1.1664414e-01
1.1683612e-01
9.4213455e-02
4.3331801e-02
3.3274272e-04
-1.2125644e-02
-3.8117609e-03
1.2794076e-02
3.6407123e-02
4.4620163e-02
2.7556766e-02
5.7327515e-03
-2.5922984e-02
-6.4646295e-02
-8.0872375e-02
-6.2088275e-02
-2.8376805e-02
-4.4483137e-03
1.6639561e-02
3.9105291e-02
6.0409786e-02
7.8769131e-02
6.4090759e-02
1.3970359e-02
-2.8995282e-02
-4.0667188e-02
-2.5408853e-02
9.2315597e-03
5.5158131e-02
8.2040119e-02
7.8323448e-02
6.3612523e-02
3.0278276e-02
-2.0427175e-02
-5.7070502e-02
-6.4274272e-02
-5.0042432e-02
-2.4784243e-02
1.3369562e-02
4.7263969e-02
5.9204549e-02
6.0182563e-02
4.2131155e-02
4.2800797e-03
-2.4256497e-02
-3.0166539e-02
-1.9358911e-02
3.2472535e-03
3.8823463e-02
6.8943818e-02
7.7951065e-02
7.5351283e-02
4.9416624e-02
-2.3867545e-03
-4.7090790e-02
-6.7251553e-02
-6.9186801e-02
-5.8221864e-02
-3.4693271e-02
-1.9761682e-02
-3.0921201e-02
-5.6959927e-02
-9.5182545e-02
-1.3972971e-01
-1.7263093e-01
-1.8694703e-01
-1.8902941e-01
-1.8467308e-01
-1.6666411e-01
-1.3123306e-01
-8.1011105e-02
-2.7071997e-02
8.6956807e-03
2.8838689e-02
5.8733755e-02
1.1099956e-01
1.6672779e-01
2.0517989e-01
2.3143401e-01
2.3782154e-01
2.1402551e-01
1.7035567e-01
1.1544954e-01
6.1456126e-02
2.6864647e-02
1.9328315e-02
2.5865235e-02
3.2946614e-02
3.6105640e-02
2.8404160e-02
2.0513682e-02
1.6774098e-02
-3.5735782e-03
-3.8304977e-02
-6.2866572e-02
-6.4397257e-02
-5.6976804e-02
-5.7318506e-02
-6.3425271e-02
-7.4839641e-02
-8.2626277e-02
-8.1206225e-02
-8.8294081e-02
-1.0554418e-01
-1.1472913e-01
-1.0817449e-01
-9.8820960e-02
-9.8084058e-02
-9.5048406e-02
-8.2336336e-02
-5.8979352e-02
-2.8919290e-02
-9.7977725e-03
-1.0715556e-03
1.6628294e-02
5.1878635e-02
9.2331644e-02
1.2568959e-01
1.5176547e-01
1.6305823e-01
1.6026363e-01
1.5215709e-01
1.3405102e-01
1.0735006e-01
8.7696385e-02
8.5352897e-02
8.1694228e-02
5.6790965e-02
2.5401656e-02
1.0675997e-03
-2.3698514e-02
-5.8589396e-02
-9.5923966e-02
-1.2079749e-01
-1.3076502e-01
-1.2831753e-01
-1.2949816e-01
-1.4727802e-01
-1.6778461e-01
-1.7797222e-01
-1.7179082e-01
-1.5239301e-01
-1.3124297e-01
-1.0523505e-01
-6.5023608e-02
-1.1864551e-02
2.7425618e-02
3.5508804e-02
3.1737319e-02
3.1232184e-02
4.5314653e-02
7.0418918e-02
9.0962256e-02
1.1552500e-01
1.5251668e-01
2.0115838e-01
2.4247184e-01
2.5800570e-01
2.5812513e-01
2.5125136e-01
2.3110954e-01
1.7965095e-01
1.0001107e-01
1.9103949e-02
-4.5571959e-02
-8.7421256e-02
-1.1303777e-01
-1.3056405e-01
-1.3568292e-01
-1.2455301e-01
-9.7626776e-02
-5.9874766e-02
-2.2613288e-02
1.0536125e-02
4.2640624e-02
7.2492045e-02
8.5642924e-02
7.5229214e-02
6.0216150e-02
5.4049188e-02
5.5839645e-02
5.4378469e-02
3.4085016e-02
-3.9439584e-03
-4.9090966e-02
-9.3757437e-02
-1.3334791e-01
-1.6501822e-01
-1.8641650e-01
-1.9639524e-01
-1.9537184e-01
-1.8763268e-01
-1.7670908e-01
-1.6090756e-01
-1.4027263e-01
-1.1805180e-01
-9.9251252e-02
-8.3975686e-02
-6.7654009e-02
-4.7960628e-02
-2.1812574e-02
1.2232464e-02
5.5702348e-02
1.0992878e-01
1.6945296e-01
2.1849334e-01
2.4169901e-01
2.4550705e-01
2.4205450e-01
2.3243300e-01
2.1377179e-01
1.7913353e-01
1.3183348e-01
8.1394735e-02
3.0563849e-02
-1.5821699e-02
-5.4295933e-02
-8.4671349e-02
-1.0665755e-01
-1.1980753e-01
-1.2472590e-01
-1.2595256e-01
-1.2553573e-01
-1.2045800e-01
-1.1013472e-01
-9.9126449e-02
-9.3754142e-02
-9.3222678e-02
-9.0845471e-02
-8.3667001e-02
-7.1811052e-02
-5.7490717e-02
-4.1692791e-02
-2.3058393e-02
-4.1067498e-03
9.6666565e-03
1.4355818e-02
1.3770766e-02
1.2812128e-02
1.1771092e-02
1.2662529e-02
1.6476591e-02
2.7894864e-02
5.2556949e-02
8.2842591e-02
9.7989438e-02
8.7037144e-02
6.4708747e-02
4.6006988e-02
3.4549255e-02
3.2002893e-02
3.7421413e-02
5.3004574e-02
7.9968560e-02
1.0329508e-01
9.6953413e-02
6.0577229e-02
2.3075029e-02
-5.3963823e-03
-3.1641498e-02
-5.3774830e-02
-7.1689489e-02
-8.6267749e-02
-9.5049541e-02
-9.8176094e-02
-9.6399291e-02
-8.9770161e-02
-7.6701877e-02
-5.7032828e-02
-3.2913340e-02
-4.2021683e-03
2.8041467e-02
6.4027575e-02
1.0366822e-01
1.4000513e-01
1.6209516e-01
1.6689501e-01
1.6636367e-01
1.5576661e-01
1.2221753e-01
8.1420466e-02
4.5960786e-02
1.5682795e-02
-7.7949966e-03
-2.7544324e-02
-4.6458054e-02
-6.3616113e-02
-7.6252500e-02
-8.6106081e-02
-9.5978682e-02
-1.0631585e-01
-1.1694602e-01
-1.2228212e-01
-1.1912919e-01
-1.1219444e-01
-1.1133196e-01
-1.2078255e-01
-1.3532029e-01
-1.5131804e-01
-1.6263408e-01
-1.6391553e-01
-1.5581075e-01
-1.3666341e-01
-1.0412400e-01
-6.4571800e-02
-4.3402706e-02
-5.3770354e-02
-7.2019178e-02
-7.8787289e-02
-7.0190310e-02
-4.1159468e-02
9.0427049e-03
7.3472032e-02
1.4331396e-01
2.0879576e-01
2.5640772e-01
2.8367019e-01
2.9147501e-01
2.7134270e-01
2.3506267e-01
2.0396183e-01
1.8188772e-01
1.6953928e-01
1.6296087e-01
1.5142171e-01
1.2826149e-01
9.5073249e-02
5.7536059e-02
1.9292388e-02
-1.0740009e-02
-2.6438637e-02
-3.2069775e-02
-3.0460144e-02
-2.5925021e-02
-2.7144096e-02
-3.9826324e-02
-6.0879742e-02
-8.2177107e-02
-1.0083520e-01
-1.1591509e-01
-1.3048988e-01
-1.4963537e-01
-1.6813941e-01
-1.8118841e-01
-1.8918034e-01
-1.9024612e-01
-1.8223520e-01
-1.6567138e-01
-1.4304393e-01
-1.1477121e-01
-8.3903918e-02
-5.3971923e-02
-1.9277337e-02
2.1782097e-02
6.4205603e-02
9.6670934e-02
1.1147221e-01
1.1781870e-01
1.2089242e-01
1.2625265e-01
1.4102580e-01
1.6132669e-01
1.8390825e-01
2.0663129e-01
2.1842264e-01
1.9359663e-01
1.2609344e-01
4.8762501e-02
-1.8528337e-02
-7.7970223e-02
-1.2979775e-01
-1.7339431e-01
-2.0721703e-01
-2.3164818e-01
-2.4735417e-01
-2.5294927e-01
-2.4800838e-01
-2.3387001e-01
-2.1225248e-01
-1.8208406e-01
-1.4487894e-01
-1.0220833e-01
-4.8496838e-02
1.2046526e-02
6.6966662e-02
1.0306014e-01
1.1863322e-01
1.3098954e-01
1.4837016e-01
1.7211831e-01
1.8371330e-01
1.6546735e-01
1.4420556e-01
1.3631357e-01
1.2724105e-01
9.7027502e-02
4.4137421e-02
-7.1837449e-03
-4.4420394e-02
-6.2371850e-02
-6.2205514e-02
-5.1691785e-02
-2.3288207e-02
1.9951138e-02
4.9434057e-02
3.8682639e-02
-4.7970596e-04
-2.9550358e-02
-3.1084643e-02
-8.3660532e-03
2.4720608e-02
5.7310572e-02
9.8431926e-02
1.4699046e-01
1.7786551e-01
1.6512214e-01
1.1752795e-01
7.1177492e-02
3.8289479e-02
1.6324299e-02
6.9234787e-04
-1.2635551e-02
-1.2071460e-02
3.0331463e-03
1.1746109e-02
-9.0624857e-03
-5.4198918e-02
-9.9525964e-02
-1.3794371e-01
-1.6296352e-01
-1.6946788e-01
-1.5892291e-01
-1.2858980e-01
-8.2296426e-02
-2.8656116e-02
2.0845064e-02
6.3029079e-02
1.0274194e-01
1.3923661e-01
1.7210094e-01
1.8151257e-01
1.6026766e-01
1.3853705e-01
1.2731130e-01
1.1295957e-01
8.4028180e-02
4.6024325e-02
4.2452873e-03
-4.7022498e-02
-9.8711696e-02
-1.4061600e-01
-1.6928796e-01
-1.8072726e-01
-1.7778856e-01
-1.6457398e-01
-1.4770896e-01
-1.3038690e-01
-1.0692771e-01
-7.5488098e-02
-4.2510736e-02
-1.6395612e-02
9.2181858e-03
4.4254007e-02
8.1911889e-02
1.1066325e-01
1.1483367e-01
8.9193993e-02
4.8270153e-02
3.1873844e-03
-3.5932766e-02
-6.0602787e-02
-6.5812270e-02
-5.0394415e-02
-2.1823902e-02
1.2778599e-02
3.9175205e-02
4.6063695e-02
3.6036131e-02
1.3188019e-02
-2.0891901e-02
-6.6306039e-02
-1.0781586e-01
-1.2715490e-01
-1.2011553e-01
-8.4699389e-02
-2.5567918e-02
4.1162697e-02
9.0596905e-02
1.1754814e-01
1.3057886e-01
1.2592874e-01
1.2077044e-01
1.3620855e-01
1.7055176e-01
2.1101487e-01
2.3422998e-01
2.2454824e-01
1.7540137e-01
9.5875441e-02
2.7627342e-03
-1.0164318e-01
-2.0397641e-01
-2.8609236e-01
-3.4189355e-01
-3.6879531e-01
-3.6846319e-01
-3.4271724e-01
-2.9533728e-01
-2.3168128e-01
-1.6106890e-01
-9.2796348e-02
-1.9444889e-02
6.5496961e-02
1.5446790e-01
2.3569108e-01
2.9261814e-01
3.1926392e-01
3.2149066e-01
3.0858464e-01
2.9012715e-01
2.7153676e-01
2.5954708e-01
2.3719885e-01
1.8121776e-01
1.0226038e-01
2.1317152e-02
-4.7522637e-02
-1.0345067e-01
-1.4996263e-01
-1.8908130e-01
-2.2526101e-01
-2.4986601e-01
-2.5787613e-01
-2.5013792e-01
-2.2167867e-01
-1.7379072e-01
-1.1004708e-01
-4.3214485e-02
1.4925554e-02
5.5319422e-02
6.9391972e-02
7.3900467e-02
6.5341598e-02
2.7273408e-02
-1.9094396e-02
-5.2829462e-02
-7.0982834e-02
-7.4407589e-02
-6.5595267e-02
-6.3990504e-02
-8.5331617e-02
-1.1277492e-01
-1.4512653e-01
-1.8744972e-01
-2.1577138e-01
-2.1378320e-01
-1.8199631e-01
-1.2972555e-01
-6.6394740e-02
-6.4348954e-03
4.0671931e-02
9.3544939e-02
1.4557378e-01
1.7719382e-01
2.0505864e-01
2.4684612e-01
2.9745726e-01
3.3217350e-01
3.3854927e-01
3.2215594e-01
2.9487719e-01
2.7014328e-01
2.2853509e-01
1.6146539e-01
1.0470487e-01
8.2612911e-02
9.3102534e-02
1.1299899e-01
1.1884505e-01
9.8940465e-02
5.0575041e-02
-6.0167516e-03
-6.6985182e-02
-1.3589875e-01
-1.9020694e-01
-2.1646526e-01
-2.2315767e-01
-2.2207481e-01
-2.1138519e-01
-2.0442660e-01
-2.1913234e-01
-2.4092997e-01
-2.6518708e-01
-2.9172077e-01
-3.0209521e-01
-2.8675411e-01
-2.4797510e-01
-1.9097468e-01
-1.2041388e-01
-5.7120832e-02
-1.5951333e-02
1.3416081e-02
2.4962543e-02
2.5365104e-02
4.8417829e-02
1.0949202e-01
1.9651976e-01
2.8268167e-01
3.4428449e-01
3.6163807e-01
3.4170240e-01
3.0618479e-01
2.4256318e-01
1.5029536e-01
6.7857647e-02
2.1632274e-02
7.0321015e-03
1.0936146e-02
2.2587408e-02
1.5562802e-02
-1.5904766e-02
-4.6220879e-02
-8.1002642e-02
-1.2507187e-01
-1.4861540e-01
-1.3519592e-01
-9.3791332e-02
-3.3478744e-02
3.5175969e-02
8.0597060e-02
9.6148933e-02
1.0099155e-01
7.8278241e-02
2.5632789e-02
-1.8659655e-02
-3.3170599e-02
-2.3604682e-02
2.9803524e-03
4.0908869e-02
6.7237489e-02
7.6260159e-02
7.8192297e-02
5.4389523e-02
3.6495645e-03
-4.1009269e-02
-6.0036699e-02
-5.3247572e-02
-2.3245995e-02
1.4258305e-02
2.2952315e-02
-2.7142630e-03
-3.6777928e-02
-7.7200963e-02
-1.2267329e-01
-1.5336141e-01
-1.5975546e-01
-1.4867511e-01
-1.2644054e-01
-9.7652481e-02
-8.4136916e-02
-9.3142535e-02
-1.0914468e-01
-1.3052645e-01
-1.4841834e-01
-1.4402861e-01
-1.1185784e-01
-6.6522271e-02
-2.2812926e-02
2.7861175e-02
8.7665485e-02
1.4727321e-01
1.9722003e-01
2.2285711e-01
2.2712499e-01
2.2676183e-01
2.2283273e-01
1.9464974e-01
1.3742457e-01
8.6583455e-02
6.6427287e-02
7.0184342e-02
7.9315751e-02
7.4300533e-02
5.7255137e-02
4.4435903e-02
4.0806658e-02
2.8127944e-02
-5.3839303e-03
-3.8109763e-02
-5.2403934e-02
-4.5174308e-02
-2.6668444e-02
-1.7437581e-02
-1.4825352e-02
-2.8946640e-03
2.2747747e-02
4.5978318e-02
5.1762081e-02
4.4873649e-02
2.7428207e-02
6.1966359e-03
-1.2616563e-02
-3.5310770e-02
-6.1045758e-02
-8.3130175e-02
-9.8442139e-02
-1.1291454e-01
-1.3275169e-01
-1.5299979e-01
-1.6876238e-01
-1.7943986e-01
-1.8718412e-01
-1.9474448e-01
-1.9945090e-01
-1.9730219e-01
-1.8563622e-01
-1.6436770e-01
-1.3449221e-01
-9.5235337e-02
-4.6685272e-02
9.5848883e-03
6.5340861e-02
1.0981772e-01
1.3407783e-01
1.2362113e-01
7.7208379e-02
1.4263827e-02
-4.3124965e-02
-7.7600082e-02
-8.2606814e-02
-6.0580119e-02
-1.7671323e-02
4.0298620e-02
1.1146436e-01
1.9128137e-01
2.6384219e-01
3.0068162e-01
2.9500291e-01
2.6421761e-01
2.1996490e-01
1.8417682e-01
1.7036554e-01
1.7099088e-01
1.7899547e-01
1.8140995e-01
1.6381957e-01
1.1825879e-01
5.0644360e-02
-1.6893055e-02
-6.7954576e-02
-9.8049088e-02
-1.0945586e-01
-1.0564558e-01
-8.7494953e-02
-6.0494254e-02
-3.9118247e-02
-4.4988094e-02
-7.8119022e-02
-1.1571196e-01
-1.4412024e-01
-1.5885823e-01
-1.6388518e-01
-1.6559389e-01
-1.6306783e-01
-1.5565907e-01
-1.4362051e-01
-1.2755673e-01
-1.0834556e-01
-8.5528652e-02
-5.7916012e-02
-2.6236407e-02
2.2351168e-03
2.3080877e-02
4.0720993e-02
5.8290171e-02
7.4509712e-02
8.3527010e-02
8.2125698e-02
7.3755873e-02
6.4436534e-02
5.7747463e-02
4.8235736e-02
3.2306750e-02
7.7489266e-03
-2.8762911e-02
-6.9837048e-02
-1.0517328e-01
-1.2898547e-01
-1.3778622e-01
-1.3127398e-01
-1.1297671e-01
-8.8723491e-02
-5.9544982e-02
-2.5723906e-02
8.0576819e-03
3.8567703e-02
6.6085347e-02
8.9241551e-02
9.4093262e-02
7.7518564e-02
6.1869904e-02
6.1278522e-02
7.6681684e-02
1.0369137e-01
1.3042572e-01
1.4061184e-01
1.2232563e-01
8.0440169e-02
3.0464823e-02
-1.0634927e-02
-3.1929486e-02
-3.2192931e-02
-1.1416856e-02
3.0394107e-02
8.2829791e-02
1.2223789e-01
1.2994848e-01
1.1126674e-01
7.1885861e-02
1.0700125e-02
-5.2458138e-02
-9.9319295e-02
-1.2841238e-01
-1.4006965e-01
-1.3726942e-01
-1.2640523e-01
-1.1203361e-01
-9.5970351e-02
-8.2298402e-02
-6.9831767e-02
-5.3120919e-02
-3.4130856e-02
-1.3970005e-02
6.2730611e-03
2.1628790e-02
2.9926897e-02
3.0299738e-02
2.7299520e-02
2.7980495e-02
3.7857708e-02
5.5191088e-02
7.1984257e-02
9.0172384e-02
1.0975516e-01
1.1859477e-01
1.0601053e-01
7.8487464e-02
5.1251569e-02
2.6114975e-02
4.1086796e-03
-9.2528952e-03
-1.5737342e-02
-1.7396845e-02
-1.7187449e-02
-2.3424234e-02
-4.4579409e-02
-7.8834924e-02
-1.1338349e-01
-1.4054411e-01
-1.5731803e-01
-1.6275141e-01
-1.6035825e-01
-1.5104889e-01
-1.3552274e-01
-1.1705845e-01
-9.8493292e-02
-8.0772147e-02
-6.4566058e-02
-4.6928596e-02
-1.7935405e-02
2.7497163e-02
8.5310606e-02
1.4956322e-01
2.1141780e-01
2.5707994e-01
2.7211108e-01
2.5737323e-01
2.2001663e-01
1.5969994e-01
9.1930608e-02
3.5405759e-02
-7.4421803e-03
-3.7401591e-02
-5.5612965e-02
-6.3044714e-02
-6.3193941e-02
-6.0252486e-02
-6.6007290e-02
-9.2845219e-02
-1.2501118e-01
-1.4320089e-01
-1.4532985e-01
-1.3196626e-01
-1.0706989e-01
-7.6256521e-02
-4.7190256e-02
-2.3477399e-02
-1.1183778e-02
-2.0781442e-02
-3.8695639e-02
-5.2942163e-02
-6.5734106e-02
-6.9711010e-02
-6.5224968e-02
-6.0113493e-02
-5.6078940e-02
-4.9572673e-02
-3.3184759e-02
-4.1813407e-03
3.9119882e-02
9.3287097e-02
1.4809762e-01
2.0404780e-01
2.5560897e-01
2.7634745e-01
2.4371637e-01
1.7370886e-01
1.0481440e-01
5.2746045e-02
2.0724799e-02
1.0485930e-02
1.8531408e-02
4.0559456e-02
6.3205716e-02
6.8912123e-02
4.0071364e-02
-2.1238334e-02
-8.5570234e-02
-1.3676539e-01
-1.7393818e-01
-2.0060418e-01
-2.1953183e-01
-2.2363562e-01
-2.1021903e-01
-1.8162006e-01
-1.4041004e-01
-8.8995042e-02
-3.2249603e-02
2.6777616e-02
9.2857530e-02
1.5743340e-01
2.1135785e-01
2.5934160e-01
2.9030366e-01
2.8625403e-01
2.4499166e-01
1.8093427e-01
1.1335844e-01
4.9614888e-02
-1.2306367e-02
-7.8844644e-02
-1.4506531e-01
-1.9406450e-01
-2.1981875e-01
-2.2321271e-01
-2.0523521e-01
-1.6784974e-01
-1.1200654e-01
-3.9323413e-02
4.0009377e-02
1.0567047e-01
1.4937669e-01
1.7940301e-01
1.9712501e-01
1.8992865e-01
1.5060652e-01
9.6970321e-02
5.0197841e-02
1.3551358e-02
-1.3303398e-02
-3.1810213e-02
-4.0933726e-02
-3.5022436e-02
-1.6702588e-02
4.1919829e-03
7.6235840e-03
-1.6019494e-02
-4.8145648e-02
-7.4101829e-02
-9.0834112e-02
-9.7315630e-02
-9.3246552e-02
-8.1403435e-02
-7.1667833e-02
-7.4241266e-02
-9.4677509e-02
-1.2533287e-01
-1.4897960e-01
-1.5834966e-01
-1.5556133e-01
-1.4650314e-01
-1.3454488e-01
-1.1381225e-01
-7.9029606e-02
-2.8937466e-02
3.2803779e-02
9.9580964e-02
1.5337768e-01
1.7738628e-01
1.6772344e-01
1.2015791e-01
5.8356028e-02
1.5662965e-02
-1.2929250e-04
8.6857576e-03
3.5136527e-02
7.4348211e-02
1.1643158e-01
1.4844475e-01
1.5975904e-01
1.3406414e-01
8.3667426e-02
4.3086788e-02
2.5037401e-02
2.6489303e-02
4.2935879e-02
6.8981074e-02
9.4315164e-02
1.1113038e-01
1.1627737e-01
9.4457142e-02
4.1748072e-02
-2.0623145e-02
-7.8715596e-02
-1.2966665e-01
-1.7184921e-01
-2.0227766e-01
-2.1963314e-01
-2.2642750e-01
-2.2710668e-01
-2.2478181e-01
-2.1277012e-01
-1.8191754e-01
-1.2718296e-01
-4.8958722e-02
4.2601622e-02
1.3478867e-01
2.0225768e-01
2.2808563e-01
2.1582284e-01
1.6335240e-01
9.0007888e-02
2.2751764e-02
-2.9661222e-02
-6.1432545e-02
-6.9725544e-02
-5.7478689e-02
-4.3648767e-02
-4.1162547e-02
-4.5387688e-02
-5.3682359e-02
-5.6734857e-02
-5.4400826e-02
-5.4646371e-02
-4.7771033e-02
-2.4014624e-02
1.3777345e-02
4.3457098e-02
4.9681602e-02
3.5948763e-02
4.6317769e-03
-2.6689988e-02
-5.0586721e-02
-7.0499749e-02
-7.2885331e-02
-4.8643412e-02
-5.3695945e-04
4.9112910e-02
8.0676977e-02
9.1402079e-02
8.3109829e-02
6.7838135e-02
3.7025655e-02
-1.1529384e-02
-4.6802971e-02
-5.1737906e-02
-2.7171728e-02
7.4792991e-03
3.4413567e-02
5.0816246e-02
5.4891980e-02
5.2925248e-02
2.5602509e-02
-3.4117965e-02
-8.5135641e-02
-1.0234180e-01
-8.3630957e-02
-4.7623644e-02
-2.0134739e-02
-1.1480425e-02
-2.0981548e-02
-3.7917747e-02
-7.5255052e-02
-1.3216125e-01
-1.6842088e-01
-1.6392994e-01
-1.2344964e-01
-7.2966296e-02
-3.3773723e-02
-6.8572513e-03
6.7299709e-03
1.3431490e-02
1.9236299e-03
-3.2718263e-02
-5.7835982e-02
-4.8251618e-02
-4.1879726e-03
5.1268677e-02
9.9816446e-02
1.3869335e-01
1.6363638e-01
1.7457970e-01
1.6315164e-01
1.2585237e-01
8.4448190e-02
6.8843313e-02
9.2880387e-02
1.3521742e-01
1.7249393e-01
1.9971246e-01
2.1661640e-01
2.2545987e-01
2.1533413e-01
1.7699692e-01
1.2471303e-01
9.0833320e-02
9.5514546e-02
1.1818617e-01
1.3673268e-01
1.4427380e-01
1.4156325e-01
1.3689125e-01
1.1297674e-01
6.0978434e-02
1.1764638e-02
-6.9007281e-03
1.8802923e-03
1.0791564e-02
1.1991727e-02
7.0763126e-03
-8.6537642e-03
-2.9252576e-02
-7.1266564e-02
-1.3705951e-01
-1.8978757e-01
-2.1073656e-01
-2.0647302e-01
-1.8941545e-01
-1.6364248e-01
-1.4213370e-01
-1.3898152e-01
-1.4581053e-01
-1.6294608e-01
-1.8531852e-01
-1.9167255e-01
-1.7371740e-01
-1.3412169e-01
-8.2100563e-02
-2.3986474e-02
3.1684545e-02
7.7795308e-02
1.1351228e-01
1.2045933e-01
9.8134448e-02
7.6329395e-02
7.1386467e-02
6.6631307e-02
3.5544117e-02
-1.2603341e-02
-5.3865513e-02
-8.0596015e-02
-9.4386933e-02
-1.0030886e-01
-9.5672381e-02
-7.2226991e-02
-2.7488265e-02
2.8828494e-02
8.2579611e-02
1.2551319e-01
1.3863256e-01
1.1674767e-01
8.2505810e-02
3.9044483e-02
-1.3323663e-02
-5.4979676e-02
-7.5553070e-02
-8.3507916e-02
-8.9265409e-02
-8.7365409e-02
-7.7219201e-02
-6.3372124e-02
-4.3349405e-02
-2.7875479e-02
-1.8827793e-02
1.7852236e-03
4.2982008e-02
9.2160186e-02
1.2892748e-01
1.4785907e-01
1.3725406e-01
9.4261267e-02
4.7205498e-02
6.3662817e-03
-2.9062098e-02
-4.6234502e-02
-3.9123575e-02
-2.2965990e-02
-1.4677332e-02
-9.5882549e-03
-1.9757985e-02
-5.8365078e-02
-1.0763824e-01
-1.6285084e-01
-2.1962547e-01
-2.5814272e-01
-2.7133311e-01
-2.6854599e-01
-2.5821666e-01
-2.3682339e-01
-2.0526777e-01
-1.6516543e-01
-1.1787916e-01
-7.8031510e-02
-4.2351681e-02
1.4761246e-02
1.0332340e-01
2.0041682e-01
2.7796034e-01
3.3091011e-01
3.4812989e-01
3.3466534e-01
3.1231039e-01
2.6504016e-01
1.9465781e-01
1.4351822e-01
1.3354044e-01
1.4707893e-01
1.6354905e-01
1.8214319e-01
1.8327857e-01
1.6227866e-01
1.3505550e-01
7.7904554e-02
-1.4086104e-02
-1.0038710e-01
-1.5316371e-01
-1.6988008e-01
-1.5653024e-01
-1.2566500e-01
-1.0113048e-01
-8.6895036e-02
-7.8799724e-02
-1.0340718e-01
-1.6281332e-01
-2.1796039e-01
-2.4449375e-01
-2.4289723e-01
-2.1848542e-01
-1.7628082e-01
-1.4242802e-01
-1.3323139e-01
-1.3238151e-01
-1.3766895e-01
-1.4336237e-01
-1.2417988e-01
-6.8202213e-02
1.6109585e-02
1.0920214e-01
1.9248623e-01
2.4758919e-01
2.7587480e-01
2.8927230e-01
2.7222875e-01
2.2531765e-01
1.8473573e-01
1.7490230e-01
1.9475275e-01
2.3790152e-01
2.9370430e-01
3.3104945e-01
3.2713381e-01
2.8225824e-01
1.9422792e-01
7.1537388e-02
-5.2467591e-02
-1.5042543e-01
-2.2235327e-01
-2.7412164e-01
-2.9926821e-01
-2.9621304e-01
-2.6794927e-01
-2.2355674e-01
-1.9313578e-01
-1.8594640e-01
-1.7558947e-01
-1.4684263e-01
-1.1217352e-01
-8.1891610e-02
-4.3945374e-02
-1.3224241e-03
3.2979064e-02
5.5178214e-02
4.3389926e-02
-2.0117904e-03
-4.2863596e-02
-5.7361007e-02
-6.0402950e-02
-6.8369448e-02
-6.9969373e-02
-6.2653906e-02
-5.1569737e-02
-3.6702949e-02
-3.0178577e-02
-2.7588420e-02
-3.3094056e-03
5.6205765e-02
1.3412344e-01
2.0622073e-01
2.7017026e-01
3.1934705e-01
3.3958888e-01
3.2475884e-01
2.6911030e-01
1.8591618e-01
1.1210906e-01
7.2400476e-02
6.5902190e-02
8.5477649e-02
1.1979698e-01
1.4168389e-01
1.3713266e-01
1.0930220e-01
4.6353275e-02
-4.6130153e-02
-1.3287115e-01
-1.9352458e-01
-2.3241801e-01
-2.5698718e-01
-2.6841199e-01
-2.6813110e-01
-2.5376673e-01
-2.2959724e-01
-2.1705467e-01
-2.2138867e-01
-2.2309758e-01
-2.1002923e-01
-1.8886097e-01
-1.6593244e-01
-1.4102324e-01
-1.2825831e-01
-1.3135160e-01
-1.3485630e-01
-1.3767550e-01
-1.3394086e-01
-1.0764326e-01
-5.3554174e-02
1.9749649e-02
1.0484339e-01
1.9870231e-01
2.7725539e-01
3.2272344e-01
3.4006041e-01
3.2304682e-01
2.7487350e-01
2.2458464e-01
1.9436162e-01
1.7533590e-01
1.5348194e-01
1.3941645e-01
1.3752666e-01
1.3907212e-01
1.3879852e-01
1.2787526e-01
1.0654338e-01
8.5152909e-02
6.4010353e-02
2.7067980e-02
-3.1401409e-02
-8.9785720e-02
-1.3640087e-01
-1.7293873e-01
-2.0515971e-01
-2.4936242e-01
-3.0320029e-01
-3.4424330e-01
-3.6191856e-01
-3.6210401e-01
-3.4945665e-01
-3.1832373e-01
-2.6226392e-01
-1.8125132e-01
-9.3384370e-02
-3.3145052e-02
-5.9358286e-03
2.0478545e-02
7.1134131e-02
1.3639259e-01
2.0278896e-01
2.7318505e-01
3.4278334e-01
4.0621662e-01
4.5585807e-01
4.7684687e-01
4.6684556e-01
4.3881269e-01
4.0269114e-01
3.4644036e-01
2.6592812e-01
1.7967996e-01
9.6169676e-02
2.0776783e-02
-4.5290721e-02
-1.0893305e-01
-1.6704427e-01
-2.1134516e-01
-2.3808991e-01
-2.5103755e-01
-2.5441753e-01
-2.4674750e-01
-2.2829786e-01
-2.0537128e-01
-1.8125425e-01
-1.5328669e-01
-1.2105270e-01
-8.7450308e-02
-5.8976131e-02
-4.9817069e-02
-6.1616856e-02
-7.4573165e-02
-7.5076420e-02
-6.3075728e-02
-5.3094770e-02
-6.6732548e-02
-1.0292034e-01
-1.4339844e-01
-1.7629959e-01
-1.9874515e-01
-2.0995369e-01
-2.0898862e-01
-1.9658160e-01
-1.7393540e-01
-1.4113947e-01
-9.6374661e-02
-3.7003028e-02
3.6386818e-02
1.1731998e-01
1.8990001e-01
2.4275093e-01
2.8157975e-01
3.1487670e-01
3.5231110e-01
3.9405652e-01
4.2094265e-01
4.1872194e-01
3.8663615e-01
3.2919540e-01
2.5268168e-01
1.6922786e-01
9.4061914e-02
3.0932681e-02
-2.2251772e-02
-7.4743971e-02
-1.3696639e-01
-1.9819086e-01
-2.4362186e-01
-2.7023053e-01
-2.8009514e-01
-2.7305336e-01
-2.4404667e-01
-1.9143319e-01
-1.1718290e-01
-4.2203303e-02
-1.0000875e-04
1.1997505e-02
1.8662651e-02
2.8770182e-02
3.8028356e-02
4.0882413e-02
3.5915251e-02
1.6915117e-02
-1.8843068e-02
-6.6395045e-02
-1.1879315e-01
-1.6464912e-01
-1.9693409e-01
-2.1378896e-01
-2.1438527e-01
-2.0081653e-01
-1.7762621e-01
-1.4663932e-01
-1.0416694e-01
-5.7422737e-02
-2.0932667e-02
2.1209731e-03
1.5137065e-02
2.8319891e-02
5.0780977e-02
8.5481484e-02
1.3734324e-01
2.0715571e-01
2.9103158e-01
3.6793539e-01
4.0565505e-01
3.9526739e-01
3.5206013e-01
3.0157010e-01
2.5168393e-01
1.9696241e-01
1.4192622e-01
8.9678443e-02
4.9971363e-02
1.9588159e-02
-2.1080533e-02
-7.1266735e-02
-1.1972067e-01
-1.5894606e-01
-1.8891256e-01
-2.1119472e-01
-2.1838301e-01
-2.0412828e-01
-1.6972261e-01
-1.3114736e-01
-1.0763603e-01
-9.4520654e-02
-7.9539352e-02
-6.3651163e-02
-5.2832256e-02
-4.5487076e-02
-3.2231870e-02
-7.5912561e-03
2.9404296e-02
6.1101257e-02
5.6967756e-02
2.0988885e-02
-2.0704990e-02
-5.8271437e-02
-9.0932721e-02
-1.1594553e-01
-1.2808462e-01
-1.2482832e-01
-1.0800298e-01
-8.1101999e-02
-4.6963202e-02
-5.1212019e-03
4.3009305e-02
9.1663421e-02
1.2326731e-01
1.2854232e-01
1.2262673e-01
1.1699980e-01
1.1001214e-01
9.5264392e-02
7.9053327e-02
7.2768265e-02
7.5327735e-02
8.2789883e-02
8.4396450e-02
7.2576689e-02
5.9166896e-02
5.4021352e-02
5.0225473e-02
3.6857002e-02
1.5563177e-02
-4.6879817e-03
-1.6789149e-02
-1.5737854e-02
-1.1197776e-02
-1.5265510e-02
-2.4953578e-02
-3.6879733e-02
-5.0510852e-02
-6.4898728e-02
-7.8646011e-02
-8.9902949e-02
-1.0048780e-01
-1.1053251e-01
-1.1755110e-01
-1.2121979e-01
-1.2004568e-01
-1.1070692e-01
-9.0412792e-02
-6.5433841e-02
-4.4543744e-02
-2.2882498e-02
5.4713529e-03
3.9783400e-02
6.7985720e-02
8.0392774e-02
8.6435594e-02
9.5076030e-02
1.1175845e-01
1.3073895e-01
1.3498616e-01
1.2565421e-01
1.1627955e-01
1.0725808e-01
8.5361936e-02
5.1044577e-02
2.2575978e-02
9.3571645e-03
1.0930672e-02
1.3862472e-02
1.0604586e-03
-2.0698940e-02
-3.9408972e-02
-5.5340475e-02
-7.4043090e-02
-9.7967044e-02
-1.2213011e-01
-1.4202256e-01
-1.5413727e-01
-1.5667794e-01
-1.5021921e-01
-1.3523012e-01
-1.1357219e-01
-8.7171173e-02
-6.7185288e-02
-6.3823472e-02
-6.5047057e-02
-5.7475967e-02
-4.0481478e-02
-1.9083543e-02
3.2280742e-03
2.7479890e-02
5.2515652e-02
7.6844780e-02
9.5120763e-02
1.0468310e-01
1.0855494e-01
1.0721479e-01
1.0485229e-01
9.6397627e-02
7.5886919e-02
5.3324299e-02
3.6528530e-02
2.1905029e-02
-3.8281785e-03
-4.1910417e-02
-7.7703005e-02
-1.0309178e-01
-1.1073420e-01
-9.8228455e-02
-7.1004411e-02
-2.7931155e-02
2.5721531e-02
7.4123330e-02
9.2718546e-02
7.4011287e-02
4.8619046e-02
3.8302797e-02
4.5832029e-02
6.5916432e-02
9.1048614e-02
1.2424951e-01
1.6338089e-01
1.9957705e-01
2.1240955e-01
1.9150439e-01
1.5764205e-01
1.2634896e-01
9.9686289e-02
7.0211870e-02
3.0999966e-02
-1.2638798e-02
-5.5837747e-02
-9.7961471e-02
-1.4068365e-01
-1.8110408e-01
-2.1367374e-01
-2.3650853e-01
-2.4905751e-01
-2.5427405e-01
-2.5428072e-01
-2.4650025e-01
-2.2881632e-01
-2.0176903e-01
-1.7377812e-01
-1.5069865e-01
-1.2908672e-01
-1.0608533e-01
-7.8728317e-02
-4.5339681e-02
-1.9876541e-03
5.4938561e-02
1.2096127e-01
1.8071475e-01
2.0501771e-01
1.9071543e-01
1.6396020e-01
1.3825284e-01
1.2542956e-01
1.3055426e-01
1.4814109e-01
1.7660500e-01
2.1070024e-01
2.3901265e-01
2.3867988e-01
2.0506312e-01
1.5512066e-01
9.6921820e-02
4.4762121e-02
8.8770922e-03
-1.0264198e-02
-1.3096049e-02
-9.3716929e-03
-8.0556477e-03
-1.8936710e-02
-4.5759853e-02
-8.0898159e-02
-1.1982467e-01
-1.5404134e-01
-1.7761810e-01
-1.9146894e-01
-1.9431731e-01
-1.8650262e-01
-1.7100116e-01
-1.5669121e-01
-1.4749899e-01
-1.3702011e-01
-1.2197838e-01
-1.0075058e-01
-7.4649163e-02
-4.3562649e-02
-1.5656626e-03
4.9732973e-02
9.5189059e-02
1.1689134e-01
1.2137000e-01
1.2083847e-01
1.1518332e-01
1.1651404e-01
1.3165477e-01
1.5543738e-01
1.7823656e-01
1.8485858e-01
1.6524992e-01
1.1757717e-01
5.8412068e-02
7.3257928e-03
-2.9797097e-02
-5.2240671e-02
-6.5294792e-02
-7.3029285e-02
-7.2472742e-02
-6.7950990e-02
-7.0448583e-02
-8.2604994e-02
-9.6649737e-02
-1.0290994e-01
-9.7415788e-02
-7.9058564e-02
-4.9592647e-02
-1.0481439e-02
3.9726058e-02
9.6615402e-02
1.4462992e-01
1.5871947e-01
1.3293027e-01
8.4334070e-02
2.6491357e-02
-2.6557696e-02
-6.6578324e-02
-9.3257339e-02
-1.0553708e-01
-1.0640557e-01
-9.9475039e-02
-8.6111358e-02
-6.6646066e-02
-4.5880480e-02
-2.8693460e-02
-1.2702419e-02
2.7145824e-03
2.0437709e-02
4.4203066e-02
6.9192384e-02
8.5755126e-02
8.6324672e-02
7.7684673e-02
6.3809651e-02
4.0450839e-02
1.7672844e-02
4.3327019e-03
7.8017252e-04
8.0327837e-03
2.4632170e-02
4.3059291e-02
5.1844101e-02
5.1183876e-02
4.1395664e-02
1.8855170e-02
-5.4641274e-03
-2.4027999e-02
-3.7192706e-02
-4.5776547e-02
-5.5191207e-02
-7.1563140e-02
-9.6513878e-02
-1.2136803e-01
-1.3692117e-01
-1.4098593e-01
-1.3362906e-01
-1.1675259e-01
-9.1641302e-02
-5.9230464e-02
-2.4682574e-02
2.0446177e-03
1.6113612e-02
2.4653225e-02
2.1803839e-02
-1.1142751e-03
-3.0282482e-02
-5.6624082e-02
-7.6373184e-02
-8.4341938e-02
-8.3335001e-02
-7.5291120e-02
-6.0413891e-02
-3.7317922e-02
-4.1265453e-03
3.7633959e-02
8.7245716e-02
1.3977695e-01
1.9255813e-01
2.3575251e-01
2.4437029e-01
2.1592393e-01
1.6964919e-01
1.2520919e-01
9.0574116e-02
6.3866595e-02
4.4226230e-02
2.7957758e-02
2.0520113e-02
2.6342683e-02
3.7018206e-02
4.2260368e-02
3.7207578e-02
2.8834897e-02
1.6892621e-02
-2.2090630e-03
-1.7784450e-02
-2.6559815e-02
-3.0657093e-02
-2.7863226e-02
-1.9651837e-02
-1.6127772e-02
-2.5225437e-02
-3.7938534e-02
-4.7566509e-02
-5.4189176e-02
-5.5086152e-02
-5.0637431e-02
-4.0616584e-02
-2.5848203e-02
-1.2000965e-02
-8.4913158e-03
-1.9645285e-02
-3.4759718e-02
-4.9004103e-02
-6.6368370e-02
-8.2904150e-02
-9.5333921e-02
-1.0256937e-01
-1.0370534e-01
-1.0085962e-01
-9.8032205e-02
-9.7142452e-02
-9.2867585e-02
-8.1548186e-02
-6.3234299e-02
-3.7650327e-02
-6.2567930e-03
3.2818657e-02
7.8444202e-02
1.1927570e-01
1.3755486e-01
1.2622433e-01
1.0105353e-01
7.1719570e-02
4.0037250e-02
1.8745454e-02
1.3150019e-02
2.0493961e-02
3.7234248e-02
5.2790126e-02
5.5037906e-02
4.5005270e-02
3.8207877e-02
3.5913078e-02
3.1888754e-02
2.9716238e-02
2.8121155e-02
3.0884249e-02
3.9756256e-02
4.4972582e-02
3.7755410e-02
1.8637598e-02
2.2915569e-03
-4.0376567e-03
-2.4857910e-03
5.5827249e-03
1.5805021e-02
3.0309736e-02
4.9013362e-02
6.1885001e-02
5.6667950e-02
3.1249275e-02
1.4933651e-03
-2.1367850e-02
-3.7548675e-02
-5.0023937e-02
-6.2686832e-02
-7.4132363e-02
-8.3444053e-02
-9.2824714e-02
-1.0756765e-01
-1.3201024e-01
-1.5774350e-01
-1.7683645e-01
-1.9001683e-01
-1.9683828e-01
-1.9683490e-01
-1.9106222e-01
-1.7992065e-01
-1.6384025e-01
-1.4777492e-01
-1.3438128e-01
-1.1778565e-01
-9.4447564e-02
-6.0448728e-02
-9.7494639e-03
5.4477852e-02
1.2805840e-01
2.0575310e-01
2.7088556e-01
3.0427610e-01
3.0762835e-01
2.9779620e-01
2.7321914e-01
2.4015643e-01
2.1132665e-01
1.8103138e-01
1.5819191e-01
1.4600990e-01
1.2516809e-01
8.5377187e-02
3.5413223e-02
-1.0161479e-02
-5.1666371e-02
-8.7495861e-02
-1.0907218e-01
-1.1752361e-01
-1.1117170e-01
-9.3836161e-02
-7.8596045e-02
-7.4445994e-02
-8.0309976e-02
-8.5547776e-02
-8.3994745e-02
-6.8165434e-02
-3.4717677e-02
9.0847853e-03
6.0234053e-02
1.1000364e-01
1.3597808e-01
1.2021411e-01
7.3651670e-02
2.8283372e-02
-1.2625019e-03
-1.7442822e-02
-2.1540650e-02
-1.3395472e-02
7.5620616e-03
3.5067863e-02
5.3169546e-02
4.2663123e-02
5.3607033e-03
-3.3890724e-02
-6.1945446e-02
-7.8901351e-02
-9.5361979e-02
-1.1961534e-01
-1.3850063e-01
-1.4248895e-01
-1.3769412e-01
-1.3956778e-01
-1.5466215e-01
-1.7083071e-01
-1.7753933e-01
-1.6837216e-01
-1.3845265e-01
-8.7237220e-02
-1.6622521e-02
6.5007665e-02
1.4010770e-01
1.8432001e-01
1.9553645e-01
1.9373420e-01
1.8554226e-01
1.7220264e-01
1.4506031e-01
9.8734291e-02
5.4172725e-02
2.0548871e-02
-1.4153816e-02
-5.7010707e-02
-9.7451537e-02
-1.1689816e-01
-1.0968678e-01
-8.1904152e-02
-4.2248887e-02
4.6188005e-03
6.0803798e-02
1.2158048e-01
1.6649162e-01
1.7339835e-01
1.4889976e-01
1.2475834e-01
1.1547116e-01
1.1127261e-01
9.2446120e-02
5.5239380e-02
2.2077197e-02
4.1289854e-03
-1.4780716e-03
-4.4631244e-03
-1.2823705e-02
-2.6122740e-02
-5.0880604e-02
-8.0817160e-02
-1.0416908e-01
-1.1969053e-01
-1.2383605e-01
-1.1554752e-01
-9.6811795e-02
-6.9611896e-02
-3.6442423e-02
-1.0513709e-02
-4.7646203e-03
-9.0553984e-03
-2.8465016e-02
-7.4371623e-02
-1.2451349e-01
-1.6249085e-01
-1.9027138e-01
-2.0972867e-01
-2.1976724e-01
-2.2204878e-01
-2.2089398e-01
-2.1126035e-01
-1.9241324e-01
-1.6576487e-01
-1.2183930e-01
-5.8029757e-02
1.9632054e-02
9.6368167e-02
1.6470000e-01
2.3286010e-01
2.9519209e-01
3.3862582e-01
3.4640438e-01
3.2355980e-01
3.0594095e-01
3.0054987e-01
2.8275200e-01
2.3408390e-01
1.6834766e-01
1.0894621e-01
5.7474855e-02
7.9283319e-03
-5.3627443e-02
-1.2263632e-01
-1.7222479e-01
-1.9590655e-01
-2.0414693e-01
-2.0793719e-01
-2.0616474e-01
-1.9069987e-01
-1.6044065e-01
-1.1904622e-01
-8.1819044e-02
-4.9772977e-02
-1.3842715e-03
6.6047789e-02
1.3467827e-01
1.8017968e-01
2.0089570e-01
2.1744260e-01
2.3748191e-01
2.5187249e-01
2.2702701e-01
1.6034195e-01
9.6336371e-02
5.1031788e-02
1.3601208e-02
-3.2579165e-02
-9.1743041e-02
-1.4600891e-01
-1.8625419e-01
-2.1354820e-01
-2.3488415e-01
-2.4920972e-01
-2.4195755e-01
-2.1284973e-01
-1.7486489e-01
-1.4483491e-01
-1.2502314e-01
-1.0335521e-01
-7.5417342e-02
-3.8142927e-02
-5.3232696e-03
1.4961748e-02
4.5973511e-02
9.7648167e-02
1.5949525e-01
2.1183281e-01
2.4908514e-01
2.7675636e-01
2.9017205e-01
2.9012528e-01
2.6614788e-01
2.2497975e-01
1.9719111e-01
1.8705628e-01
1.8072542e-01
1.6036319e-01
1.2541087e-01
8.5876026e-02
3.9253560e-02
-7.7579706e-03
-5.2107812e-02
-9.4738452e-02
-1.2513323e-01
-1.4151474e-01
-1.4865641e-01
-1.4769066e-01
-1.3488780e-01
-1.1782373e-01
-1.1023830e-01
-1.1905042e-01
-1.5380311e-01
-2.0253144e-01
-2.4328562e-01
-2.7121044e-01
-2.8610539e-01
-2.8890564e-01
-2.7834185e-01
-2.5779941e-01
-2.3426433e-01
-2.1966532e-01
-2.2446716e-01
-2.2980784e-01
-2.1512096e-01
-1.7806420e-01
-1.1786742e-01
-3.4568308e-02
7.3202538e-02
1.9184506e-01
3.0417229e-01
4.0323272e-01
4.6817730e-01
5.0109863e-01
5.2589170e-01
5.3780799e-01
5.1998762e-01
4.6738588e-01
3.9800004e-01
3.2110973e-01
2.2722183e-01
1.2205846e-01
1.0617948e-02
-9.6374809e-02
-1.8356537e-01
-2.4835081e-01
-2.8824431e-01
-3.0237504e-01
-2.9143427e-01
-2.6271042e-01
-2.2625770e-01
-1.9954611e-01
-1.9928465e-01
-2.0600585e-01
-1.9795190e-01
-1.7365803e-01
-1.3133277e-01
-7.2263676e-02
-2.1788315e-04
6.4483435e-02
1.0441867e-01
1.1812638e-01
9.5349911e-02
4.9984279e-02
6.0602278e-03
-3.0121177e-02
-4.9224736e-02
-4.6466238e-02
-2.6189443e-02
-9.4080639e-03
-1.0712185e-02
-2.6577658e-02
-5.5670968e-02
-8.1397481e-02
-9.1571141e-02
-8.5730260e-02
-5.6014371e-02
4.6921401e-06
7.1868000e-02
1.2892782e-01
1.5848150e-01
1.7248894e-01
1.7539579e-01
1.7809840e-01
1.7117446e-01
1.4509077e-01
1.2488471e-01
1.2438053e-01
1.3430982e-01
1.2722485e-01
9.0151585e-02
4.2170912e-02
-1.4399192e-03
-3.9470273e-02
-8.4979858e-02
-1.3556031e-01
-1.6781708e-01
-1.7394188e-01
-1.5875864e-01
-1.2896084e-01
-9.0805137e-02
-6.3423397e-02
-6.0552567e-02
-6.8417605e-02
-8.7535105e-02
-1.1772685e-01
-1.3506579e-01
-1.2765002e-01
-9.7617951e-02
-5.4870229e-02
-9.1469132e-03
2.4089491e-02
3.2683230e-02
2.7022334e-02
1.0640970e-03
-4.1963052e-02
-6.6576978e-02
-5.3888067e-02
-3.2958859e-03
6.8588333e-02
1.3717337e-01
1.8658282e-01
2.1080308e-01
2.1366846e-01
1.8002265e-01
1.0716809e-01
3.2031006e-02
-1.8379523e-02
-3.6568678e-02
-2.4353802e-02
1.0267434e-02
4.5923982e-02
6.9154891e-02
8.6036819e-02
7.7599585e-02
3.7649882e-02
-2.2117925e-03
-2.0528367e-02
-1.8667586e-02
-1.5149853e-02
-1.9678633e-02
-2.7158224e-02
-3.2452439e-02
-3.4204021e-02
-4.9395380e-02
-8.2036797e-02
-1.0507327e-01
-1.0129944e-01
-7.8902505e-02
-5.3208060e-02
-2.1642874e-02
9.8572982e-03
2.9199812e-02
3.8048142e-02
1.6032547e-02
-3.7768180e-02
-8.5950715e-02
-1.0872023e-01
-1.1170890e-01
-1.0239284e-01
-7.4782402e-02
-3.8828077e-02
-8.9588605e-03
2.0255094e-02
3.2260400e-02
2.1770800e-02
2.4232575e-02
6.0056047e-02
1.1491651e-01
1.6277717e-01
1.9653355e-01
2.1128689e-01
2.0333838e-01
1.8096839e-01
1.2512230e-01
3.1463925e-02
-5.9336878e-02
-1.1798821e-01
-1.3992149e-01
-1.2817420e-01
-9.0657529e-02
-5.5545874e-02
-4.3179301e-02
-4.5102870e-02
-6.7416623e-02
-1.0719888e-01
-1.3340728e-01
-1.3014329e-01
-1.0949211e-01
-8.5711366e-02
-5.4432354e-02
-2.5930581e-02
-8.0163920e-03
1.0089342e-02
1.0425050e-02
-1.0361626e-02
-1.7165395e-02
9.6319169e-03
6.0771618e-02
1.2147453e-01
1.7884987e-01
2.0534557e-01
1.9579930e-01
1.6823225e-01
1.1038580e-01
2.4536730e-02
-4.8854999e-02
-8.6868879e-02
-9.5547380e-02
-8.2716339e-02
-4.6357684e-02
-6.9536083e-03
1.8299549e-02
3.6113400e-02
2.7589666e-02
-6.4302025e-03
-2.7962255e-02
-1.7759852e-02
1.7438396e-02
6.7839895e-02
1.2313337e-01
1.5190649e-01
1.4392126e-01
1.2062801e-01
8.1893110e-02
3.2377094e-02
8.8035897e-04
1.3457365e-03
1.9149694e-02
3.8865856e-02
5.8326843e-02
5.4732552e-02
1.6576020e-02
-3.4625935e-02
-9.2997399e-02
-1.5151573e-01
-1.9165092e-01
-2.0798575e-01
-2.1567520e-01
-2.2857879e-01
-2.3322435e-01
-2.1987218e-01
-1.9191039e-01
-1.5291658e-01
-1.1558978e-01
-8.0585516e-02
-2.9911728e-02
4.5816863e-02
1.3357648e-01
2.2011131e-01
3.0431543e-01
3.6285014e-01
3.7849685e-01
3.6095713e-01
3.0313731e-01
2.1138421e-01
1.2279256e-01
5.9125236e-02
1.1255575e-02
-3.3393297e-02
-6.9255791e-02
-9.2339180e-02
-1.0309969e-01
-1.0613608e-01
-1.1418626e-01
-1.2501714e-01
-1.2547818e-01
-1.0943706e-01
-8.8510250e-02
-7.6938148e-02
-6.7568091e-02
-5.2300381e-02
-2.9246371e-02
-8.1075003e-03
-5.4110162e-03
-1.2237190e-02
-1.0694303e-02
3.6589095e-03
1.4251057e-02
4.7752049e-03
-1.5532076e-02
-4.1390507e-02
-6.9738726e-02
-9.3275154e-02
-1.1052684e-01
-1.1673880e-01
-1.0895716e-01
-8.7949364e-02
-6.4293276e-02
-4.7678797e-02
-3.0118911e-02
-4.7495677e-03
3.0045243e-02
6.5222052e-02
8.5121917e-02
9.4966394e-02
1.0862715e-01
1.2998741e-01
1.3955339e-01
1.2044412e-01
9.0489375e-02
6.5170726e-02
5.0151735e-02
4.3408575e-02
3.2904896e-02
1.9389060e-02
1.0444040e-02
8.0735245e-03
2.7430306e-05
-2.3685093e-02
-4.8785972e-02
-6.3011963e-02
-6.3485734e-02
-5.7079665e-02
-5.7698891e-02
-6.0127486e-02
-5.2442347e-02
-3.1712237e-02
-1.0415571e-02
-1.7683679e-03
-1.3940669e-03
-4.2714876e-03
-6.0478653e-03
-8.2244482e-03
-1.2451644e-02
-9.6726404e-03
3.0317030e-03
2.0275749e-02
2.4834379e-02
6.3219970e-03
-1.9598909e-02
-4.0157347e-02
-5.4632265e-02
-6.5945783e-02
-7.3321583e-02
-7.0615395e-02
-5.4633499e-02
-2.4921289e-02
6.0821317e-03
2.6725670e-02
4.1949805e-02
5.6562525e-02
7.1190374e-02
7.7708593e-02
7.3200151e-02
7.0646484e-02
7.7207771e-02
9.2161078e-02
1.0190775e-01
9.4955539e-02
7.5124300e-02
4.4245172e-02
1.0228440e-02
-2.3467202e-02
-5.6476679e-02
-7.9546723e-02
-8.9982865e-02
-8.9649473e-02
-8.9031988e-02
-9.7326528e-02
-1.0660240e-01
-1.0932098e-01
-1.0389688e-01
-9.1751912e-02
-7.2911023e-02
-4.3895748e-02
-5.6058561e-03
3.7993271e-02
6.6488659e-02
6.4747403e-02
4.9472709e-02
3.5691938e-02
3.1044073e-02
3.9062032e-02
5.8465347e-02
8.9912818e-02
1.2820012e-01
1.6050422e-01
1.6447423e-01
1.3645571e-01
9.5018065e-02
4.9239284e-02
3.8459980e-03
-3.8926701e-02
-7.4651042e-02
-9.6958155e-02
-1.0562507e-01
-1.0147209e-01
-8.9404181e-02
-7.3531047e-02
-5.4829236e-02
-3.6956314e-02
-2.5339086e-02
-2.1790927e-02
-1.6945955e-02
-2.4408853e-03
1.8576296e-02
3.5151539e-02
3.2118803e-02
1.0665810e-02
-1.7171694e-02
-4.6612641e-02
-7.0266825e-02
-8.5307252e-02
-9.4680886e-02
-9.6963644e-02
-9.1445646e-02
-8.0311634e-02
-7.1548162e-02
-6.8309484e-02
-6.6011285e-02
-6.1610682e-02
-4.8951124e-02
-2.5008586e-02
1.0528619e-02
5.9380727e-02
1.1841527e-01
1.7368341e-01
2.0115882e-01
1.9737610e-01
1.7793848e-01
1.5195875e-01
1.2919460e-01
1.1362995e-01
1.0552120e-01
1.0483350e-01
1.0607533e-01
1.0008590e-01
7.8670446e-02
4.9744296e-02
1.8753249e-02
-1.6730495e-02
-4.9775393e-02
-7.8559914e-02
-1.0559898e-01
-1.2739017e-01
-1.4034207e-01
-1.4428775e-01
-1.4029345e-01
-1.2715564e-01
-1.1138704e-01
-1.0172247e-01
-9.4804210e-02
-8.7597102e-02
-7.9788305e-02
-7.0320409e-02
-6.0350781e-02
-5.1810551e-02
-4.4113743e-02
-3.3702988e-02
-2.8935477e-02
-3.7332387e-02
-4.6192440e-02
-4.6653864e-02
-3.9838345e-02
-2.8961475e-02
-1.8657943e-02
-8.7393993e-03
3.0131780e-03
1.7135317e-02
2.4083283e-02
1.9289898e-02
1.7554148e-02
2.7383414e-02
4.8954030e-02
7.8293723e-02
9.8940919e-02
9.2599275e-02
6.3495661e-02
3.5953288e-02
1.7425395e-02
7.4823900e-03
1.6298912e-02
4.4414562e-02
8.6569173e-02
1.3616435e-01
1.7064098e-01
1.6544081e-01
1.3015493e-01
9.7994532e-02
7.5233044e-02
5.6223338e-02
4.4091789e-02
3.3574411e-02
2.6869309e-02
2.3497733e-02
7.6242727e-03
-3.0274155e-02
-8.3624628e-02
-1.3274181e-01
-1.6586680e-01
-1.8164298e-01
-1.8036334e-01
-1.6531065e-01
-1.3615507e-01
-9.6077423e-02
-5.4013375e-02
-1.9691045e-02
3.3150406e-03
2.5139061e-02
4.8555408e-02
7.2313888e-02
9.8844724e-02
1.2348374e-01
1.5027233e-01
1.8002984e-01
1.9451859e-01
1.7936928e-01
1.4455385e-01
1.0649484e-01
6.5367711e-02
2.6834563e-02
-3.6121892e-03
-3.0757490e-02
-4.9495996e-02
-5.7296714e-02
-5.9065767e-02
-6.1290606e-02
-6.7808148e-02
-8.2127239e-02
-1.0949016e-01
-1.3760928e-01
-1.5652825e-01
-1.6822718e-01
-1.7029912e-01
-1.6601496e-01
-1.5952598e-01
-1.5030082e-01
-1.3830940e-01
-1.2528276e-01
-1.1368963e-01
-9.8609820e-02
-7.7288323e-02
-5.0578530e-02
-1.4083712e-02
3.1202092e-02
7.3334658e-02
9.2111143e-02
8.6284125e-02
7.8845990e-02
7.7731459e-02
7.9071872e-02
7.6122819e-02
6.4943920e-02
6.0492719e-02
6.7222898e-02
7.1066577e-02
5.8667578e-02
3.2612754e-02
6.4049650e-03
-1.6092313e-02
-2.5731734e-02
-2.1137492e-02
-8.8290614e-03
2.1564313e-02
7.1910910e-02
1.2338675e-01
1.5271823e-01
1.6255640e-01
1.7210712e-01
1.8510496e-01
1.9349510e-01
1.6686816e-01
9.9020898e-02
3.0030197e-02
-2.4389480e-02
-7.4807935e-02
-1.2929255e-01
-1.8490437e-01
-2.2709102e-01
-2.4874580e-01
-2.4842752e-01
-2.3024445e-01
-1.9921634e-01
-1.4971610e-01
-8.2818376e-02
-1.1612928e-02
4.3547515e-02
7.8579573e-02
1.0919274e-01
1.4100372e-01
1.7013986e-01
1.7254084e-01
1.3972215e-01
1.0671295e-01
9.0699633e-02
8.2737038e-02
6.7148726e-02
3.8121710e-02
1.5854209e-02
1.2850495e-02
2.3861460e-02
2.8311084e-02
1.5310598e-02
7.6454492e-03
1.5968729e-02
2.8783860e-02
3.1826028e-02
2.3756249e-02
1.4075429e-02
2.0388486e-03
-1.2499674e-02
-3.2264740e-02
-5.4465062e-02
-6.3656693e-02
-5.6309990e-02
-3.6764924e-02
-1.1516804e-02
1.4925156e-02
3.3489523e-02
3.2975045e-02
1.3469921e-02
-3.3545956e-02
-1.0030939e-01
-1.5956144e-01
-2.0222537e-01
-2.2943334e-01
-2.4000678e-01
-2.3078004e-01
-2.0817897e-01
-1.8214363e-01
-1.5706574e-01
-1.3954854e-01
-1.2128471e-01
-8.5223708e-02
-3.1117359e-02
3.2820376e-02
8.9670463e-02
1.3380393e-01
1.7120237e-01
1.9760660e-01
2.1367969e-01
2.1946560e-01
2.2785096e-01
2.5638306e-01
3.0148440e-01
3.4213836e-01
3.4670006e-01
3.1727960e-01
2.7103506e-01
2.0608351e-01
1.2537207e-01
3.4265977e-02
-4.9850076e-02
-1.0881443e-01
-1.4287647e-01
-1.5636234e-01
-1.5424099e-01
-1.3851660e-01
-1.1294277e-01
-8.4451227e-02
-6.9939623e-02
-8.6642824e-02
-1.1693892e-01
-1.3584290e-01
-1.3733301e-01
-1.2157730e-01
-9.3511508e-02
-5.5599229e-02
-2.0603025e-02
-2.4034671e-03
-2.8201679e-03
-2.2018639e-02
-4.4437636e-02
-6.0924085e-02
-7.2716007e-02
-7.3354887e-02
-6.3150586e-02
-4.2514722e-02
-2.3995761e-02
-2.4299281e-02
-4.5792252e-02
-8.8324655e-02
-1.3274828e-01
-1.6041625e-01
-1.6853804e-01
-1.5429242e-01
-1.2024005e-01
-7.1091342e-02
-2.1037877e-02
1.8660905e-02
4.3225912e-02
4.9135559e-02
5.6982349e-02
7.4085367e-02
8.9827988e-02
1.1065929e-01
1.3904039e-01
1.6202328e-01
1.5444400e-01
1.1365716e-01
6.9578775e-02
3.9699285e-02
2.2574078e-02
3.4624231e-04
-3.2306225e-02
-4.9571029e-02
-3.4520563e-02
6.6791329e-03
4.4938685e-02
6.2622406e-02
6.3368230e-02
5.1256532e-02
3.6121578e-02
1.0221715e-03
-6.2534535e-02
-1.1789886e-01
-1.3871003e-01
-1.2800562e-01
-1.0801521e-01
-8.8359179e-02
-6.9968882e-02
-5.8376273e-02
-4.1351274e-02
-2.9354446e-02
-3.7361520e-02
-3.9219928e-02
-8.3772997e-03
4.4201442e-02
8.3920562e-02
1.0446834e-01
1.1099617e-01
1.0200281e-01
8.9691332e-02
6.6707734e-02
2.0515118e-02
-2.8110845e-02
-4.9682199e-02
-3.9572905e-02
-1.5456010e-02
1.2000091e-02
3.0312204e-02
3.7472279e-02
4.9412784e-02
5.1129413e-02
3.4774942e-02
3.2829231e-02
7.3076723e-02
1.4258263e-01
1.9571350e-01
2.1439345e-01
2.0549312e-01
1.8164328e-01
1.5746982e-01
1.1587427e-01
4.7232346e-02
-1.7908140e-02
-4.8515366e-02
-4.4626664e-02
-2.3571277e-02
8.6380239e-03
3.5259114e-02
4.6243995e-02
5.2347030e-02
3.7976845e-02
-5.2388507e-04
-2.9139660e-02
-2.4710579e-02
-5.9010892e-03
-2.9372701e-03
-6.9827888e-03
-1.2783235e-02
-2.3265416e-02
-3.1799757e-02
-6.3245980e-02
-1.2713403e-01
-1.8834212e-01
-2.1894665e-01
-2.1444501e-01
-1.7988676e-01
-1.2143929e-01
-5.9169336e-02
-1.3607976e-02
1.0475142e-02
5.3455098e-05
-4.2324806e-02
-8.1713640e-02
-9.2519230e-02
-7.2513708e-02
-2.6386137e-02
3.9560733e-02
1.0658601e-01
1.6065070e-01
1.9508483e-01
1.8726630e-01
1.2930277e-01
5.2394871e-02
-3.7881712e-03
-3.0721758e-02
-3.7845629e-02
-2.2203207e-02
1.3055411e-02
5.6372436e-02
8.6749026e-02
7.1039798e-02
1.5739638e-02
-3.2800712e-02
-4.5711619e-02
-1.9678540e-02
3.9482107e-02
1.1015515e-01
1.5130785e-01
1.5470225e-01
1.3860436e-01
8.5520588e-02
-9.0349430e-03
-1.0841970e-01
-1.8706010e-01
-2.4248665e-01
-2.7664881e-01
-2.9022358e-01
-2.9589341e-01
-2.9992835e-01
-2.8905372e-01
-2.5520879e-01
-1.9424872e-01
-1.0241956e-01
1.7702697e-02
1.4384404e-01
2.4634716e-01
3.1196434e-01
3.2619438e-01
2.9230916e-01
2.3404924e-01
1.5943093e-01
8.0710500e-02
2.4618925e-02
4.4555850e-03
1.8870153e-02
6.4831261e-02
1.3335451e-01
1.9618626e-01
2.2180815e-01
2.0408865e-01
1.5142653e-01
7.9787435e-02
1.5784131e-02
-2.3576489e-02
-3.8888624e-02
-3.4704613e-02
-1.8258970e-02
-7.3398874e-03
-1.7662356e-02
-4.9773053e-02
-9.0611766e-02
-1.2452381e-01
-1.4315407e-01
-1.4509134e-01
-1.4100558e-01
-1.4026234e-01
-1.3595048e-01
-1.1953474e-01
-9.0479869e-02
-6.6162951e-02
-6.5370281e-02
-7.6816560e-02
-7.9902471e-02
-6.6596002e-02
-5.0935286e-02
-4.9954216e-02
-4.9780130e-02
-3.5739941e-02
-8.7069619e-03
2.0840237e-02
3.8676855e-02
4.8625126e-02
6.2383753e-02
8.4532445e-02
9.7585124e-02
8.5090741e-02
5.9458526e-02
3.0682302e-02
6.4146526e-03
-6.2604276e-03
-8.6336509e-03
-2.1539966e-03
9.0959888e-03
2.1425259e-02
2.6601158e-02
1.8825320e-02
1.0976835e-02
2.0183938e-02
5.4170660e-02
9.0672966e-02
9.0743275e-02
5.6662434e-02
1.7840182e-02
-1.0759406e-02
-3.0350828e-02
-4.4733821e-02
-5.2586547e-02
-5.4083346e-02
-5.0135942e-02
-4.2494250e-02
-3.4534215e-02
-2.4417465e-02
-1.0452123e-02
4.6697448e-03
1.0556135e-02
1.0426030e-03
-1.4525840e-02
-2.8846769e-02
-3.7065767e-02
-4.1673567e-02
-4.9312199e-02
-5.5148254e-02
-5.5816005e-02
-5.3093162e-02
-4.9675977e-02
-4.6349841e-02
-4.0669424e-02
-3.0436991e-02
-1.0584233e-02
1.5666368e-02
4.1994476e-02
7.3011177e-02
1.0553290e-01
1.2340994e-01
1.1932026e-01
1.0623285e-01
9.6186033e-02
9.0331994e-02
9.0138009e-02
8.6929822e-02
7.3181762e-02
5.9044852e-02
5.0231564e-02
4.2551975e-02
2.5227236e-02
-7.3646253e-03
-4.6731166e-02
-8.7106863e-02
-1.2067043e-01
-1.4043173e-01
-1.4727559e-01
-1.4443493e-01
-1.3703057e-01
-1.2820186e-01
-1.2370328e-01
-1.2652141e-01
-1.3037359e-01
-1.2913427e-01
-1.2021619e-01
-1.0535450e-01
-8.5923385e-02
-6.0608237e-02
-3.3332414e-02
-1.5701122e-02
-1.1979764e-02
-8.5517296e-03
4.0093553e-03
2.4525723e-02
5.3701430e-02
8.8058010e-02
1.2415487e-01
1.5973645e-01
1.8257955e-01
1.8130474e-01
1.5563541e-01
1.1597588e-01
7.1748369e-02
2.7196962e-02
-7.6227259e-03
-2.6296750e-02
-2.8301852e-02
-1.6802139e-02
-4.1707770e-04
1.1265643e-02
1.2535521e-02
1.1365191e-02
1.2871844e-02
1.4432172e-02
2.2467838e-02
4.0302356e-02
6.6844096e-02
9.7278369e-02
1.1791278e-01
1.1565522e-01
9.0638266e-02
6.1463865e-02
3.4198490e-02
2.2396842e-03
-2.5290613e-02
-4.2537240e-02
-5.3836138e-02
-6.2665124e-02
-7.2782909e-02
-8.5027877e-02
-9.6279229e-02
-1.0303411e-01
-1.0684907e-01
-1.1004688e-01
-1.0954308e-01
-1.0424165e-01
-9.4999702e-02
-8.4888341e-02
-7.9749471e-02
-8.0710219e-02
-8.4919453e-02
-8.6135320e-02
-8.2729270e-02
-7.6927107e-02
-6.7540303e-02
-5.4028117e-02
-3.3575362e-02
-5.3923762e-03
2.7513848e-02
6.0904324e-02
9.3808998e-02
1.3359035e-01
1.7197250e-01
1.9821833e-01
2.1143028e-01
2.0597345e-01
1.9557768e-01
1.8997635e-01
1.7929909e-01
1.5255954e-01
1.0647006e-01
5.6499564e-02
1.1196223e-02
-2.8145900e-02
-5.8598167e-02
-8.2292394e-02
-9.6850581e-02
-1.0165111e-01
-9.8940657e-02
-9.3300399e-02
-9.0713270e-02
-9.1310477e-02
-9.5234948e-02
-9.8178106e-02
-9.4522704e-02
-8.5861631e-02
-7.3121485e-02
-5.7696338e-02
-4.5740283e-02
-4.2646198e-02
-4.6529236e-02
-4.9605365e-02
-4.8740292e-02
-4.2320452e-02
-2.7926206e-02
-5.8129320e-03
2.7255260e-02
6.9330051e-02
1.0833596e-01
1.2203258e-01
1.0247870e-01
6.3294310e-02
1.0282662e-02
-4.1021286e-02
-7.3463479e-02
-8.5784655e-02
-7.8575793e-02
-5.7279541e-02
-2.6871325e-02
6.7639188e-03
3.8401088e-02
6.1342144e-02
6.5184668e-02
6.1193562e-02
5.4171446e-02
3.5765569e-02
1.9957643e-02
1.5159480e-02
1.5330325e-02
1.3538388e-02
7.6078636e-03
1.3770713e-03
-4.2128231e-03
-4.6280263e-04
1.7938001e-02
4.6346355e-02
8.5635821e-02
1.3073921e-01
1.6668267e-01
1.7898283e-01
1.7042074e-01
1.4885618e-01
1.1279294e-01
7.7130710e-02
4.8240856e-02
1.7376095e-02
-8.2604477e-03
-2.3253220e-02
-3.9089665e-02
-6.9608355e-02
-1.1080285e-01
-1.4714412e-01
-1.7183039e-01
-1.8515875e-01
-1.9166667e-01
-1.9712264e-01
-1.9825361e-01
-1.9074677e-01
-1.7449896e-01
-1.6087720e-01
-1.6224656e-01
-1.6821095e-01
-1.6727763e-01
-1.5720980e-01
-1.4009797e-01
-1.1919845e-01
-8.9280221e-02
-4.6373618e-02
9.4154970e-03
6.5305290e-02
1.0832867e-01
1.4374292e-01
1.7619387e-01
2.0216672e-01
1.9704852e-01
1.5428969e-01
1.1167979e-01
9.0040714e-02
8.6704925e-02
8.8788769e-02
8.6228792e-02
8.5946353e-02
9.1418821e-02
9.8934760e-02
8.6886700e-02
4.8724503e-02
1.4761544e-02
-5.2018735e-03
-2.5325723e-02
-5.8573100e-02
-1.0259413e-01
-1.3304525e-01
-1.3464256e-01
-1.1089217e-01
-7.4209821e-02
-3.1393388e-02
2.5455367e-02
9.5877399e-02
1.5545334e-01
1.7466364e-01
1.6321113e-01
1.5536648e-01
1.5531021e-01
1.4511025e-01
1.0840188e-01
5.2732954e-02
7.4394696e-03
-1.8908070e-02
-3.8619644e-02
-6.8584413e-02
-1.1221553e-01
-1.5156519e-01
-1.7664992e-01
-1.8968913e-01
-1.9487438e-01
-1.9212815e-01
-1.7815292e-01
-1.5882779e-01
-1.4539372e-01
-1.3809983e-01
-1.2145990e-01
-8.4015075e-02
-2.5670452e-02
3.4127633e-02
5.4091974e-02
3.5362971e-02
2.2134819e-02
3.1313235e-02
5.8631684e-02
9.4164155e-02
1.2985106e-01
1.5766657e-01
1.6673519e-01
1.5520081e-01
1.1092863e-01
4.3391252e-02
-1.5566908e-02
-5.9850895e-02
-9.3656689e-02
-1.1242692e-01
-1.0395667e-01
-7.2705604e-02
-3.2229702e-02
1.1954856e-02
4.8099959e-02
8.6369571e-02
1.4644686e-01
2.1364366e-01
2.5339558e-01
2.4544162e-01
2.1052445e-01
1.7628777e-01
1.4309439e-01
1.0451611e-01
4.7474570e-02
-2.0219259e-02
-6.5702994e-02
-7.7402889e-02
-6.0794485e-02
-2.6546203e-02
1.9358351e-02
6.7775680e-02
1.0549736e-01
1.2967232e-01
1.2734005e-01
1.0029516e-01
6.8053696e-02
3.9444152e-02
2.3948857e-02
2.2073597e-02
2.8918064e-02
2.8468508e-02
4.7682413e-03
-3.4562439e-02
-8.4528442e-02
-1.3343539e-01
-1.6803661e-01
-1.8722957e-01
-1.8775378e-01
-1.7039442e-01
-1.4278369e-01
-1.2874352e-01
-1.4584685e-01
-1.8249488e-01
-2.2673767e-01
-2.6631171e-01
-2.9105468e-01
-3.0018867e-01
-2.8968890e-01
-2.5708171e-01
-2.0227569e-01
-1.3320447e-01
-5.9474431e-02
1.2263777e-02
7.8880980e-02
1.4922340e-01
2.1494194e-01
2.6188127e-01
2.9334219e-01
3.1328070e-01
3.2600683e-01
3.1595909e-01
2.6939759e-01
2.0350792e-01
1.3691226e-01
8.2041671e-02
3.4620516e-02
-9.3371146e-03
-3.1993433e-02
-2.3929203e-02
8.5702157e-03
3.9441556e-02
5.0782479e-02
4.6794520e-02
2.8095649e-02
3.4649405e-03
-2.9728953e-02
-6.8313385e-02
-8.5186834e-02
-6.9577463e-02
-2.7095791e-02
1.3563546e-02
2.7745387e-02
1.7135897e-02
-1.6553914e-02
-5.7190339e-02
-9.4351750e-02
-1.2549511e-01
-1.3681333e-01
-1.2370336e-01
-8.7783351e-02
-4.3523206e-02
-4.5927255e-03
2.1567791e-02
2.8156877e-02
2.6400082e-02
1.0777811e-02
-2.2232212e-02
-4.5132764e-02
-4.3443611e-02
-1.8854206e-02
2.2641319e-02
7.6554985e-02
1.2716287e-01
1.5823012e-01
1.7807473e-01
1.8078221e-01
1.6330072e-01
1.4982183e-01
1.5388143e-01
1.6124115e-01
1.5432839e-01
1.4114165e-01
1.2705032e-01
1.0564164e-01
