-1.8451619e-02
7.3136005e-02
1.5014019e-01
1.9439463e-01
2.1877155e-01
2.3032384e-01
2.3150886e-01
2.2372948e-01
2.0060038e-01
1.7425013e-01
1.5092431e-01
1.2673463e-01
9.1656092e-02
3.3506280e-02
-3.1692112e-02
-8.7081958e-02
-1.3090130e-01
-1.6659113e-01
-1.9884884e-01
-2.2327097e-01
-2.3657266e-01
-2.3868350e-01
-2.3116366e-01
-2.1575445e-01
-1.8861032e-01
-1.4979318e-01
-1.0043797e-01
-5.2434268e-02
-1.8997263e-02
1.5509418e-02
6.3974119e-02
1.2855467e-01
1.9722022e-01
2.5399751e-01
3.0393714e-01
3.3351981e-01
3.2825913e-01
2.9016109e-01
2.2947960e-01
1.7726404e-01
1.5172904e-01
1.5234019e-01
1.6062780e-01
1.5763405e-01
1.4412499e-01
1.0973320e-01
6.1345488e-02
7.5068871e-03
-6.2245149e-02
-1.3491447e-01
-1.9858513e-01
-2.4935919e-01
-2.8436224e-01
-3.0665271e-01
-3.1252073e-01
-2.9805863e-01
-2.6288660e-01
-2.1967823e-01
-1.8093638e-01
-1.3734691e-01
-8.2152174e-02
-1.2651956e-02
5.9427809e-02
1.1724780e-01
1.5978360e-01
1.7932503e-01
1.8337554e-01
1.7486397e-01
1.4710369e-01
1.0831664e-01
6.0468268e-02
1.8647496e-02
-1.4025200e-02
-5.0347539e-02
-7.5699719e-02
-7.6892552e-02
-5.3151640e-02
-1.9099408e-02
9.1437812e-03
2.9380743e-02
3.8586455e-02
5.2015640e-02
6.7537580e-02
7.1055068e-02
6.6424552e-02
5.0883463e-02
4.0327084e-02
3.6848491e-02
2.5110125e-02
5.5583943e-03
-2.2431665e-02
-3.8958281e-02
-4.3554209e-02
-5.5743452e-02
-7.4510783e-02
-9.8135754e-02
-1.0960906e-01
-1.1172937e-01
-1.2245066e-01
-1.2525764e-01
-1.0617188e-01
-6.9172244e-02
-3.4091613e-02
-9.8454288e-03
1.1979807e-02
3.1558075e-02
6.1143779e-02
9.2837485e-02
1.1440765e-01
1.3438288e-01
1.5277803e-01
1.7002650e-01
1.6727219e-01
1.4294916e-01
1.1581484e-01
8.3830330e-02
5.5014758e-02
3.2534411e-02
1.6373069e-02
4.6783583e-03
-1.2674659e-02
-3.5868783e-02
-8.0562111e-02
-1.4371148e-01
-1.8948401e-01
-2.0189119e-01
-1.8582890e-01
-1.5971628e-01
-1.3059182e-01
-9.7113590e-02
-6.4353210e-02
-2.7640645e-02
9.4342761e-04
2.1721863e-02
4.8299782e-02
7.7074495e-02
1.0766439e-01
1.2174766e-01
1.2042264e-01
1.2304390e-01
1.2899657e-01
1.3828432e-01
1.3179575e-01
1.0916650e-01
8.9448415e-02
7.2499229e-02
5.8000634e-02
2.8112628e-02
-1.5092141e-02
-3.6721028e-02
-2.1847006e-02
1.1665703e-02
3.2969899e-02
4.8666773e-02
7.1265122e-02
9.2716613e-02
1.1229038e-01
1.1148588e-01
9.0896129e-02
6.8141781e-02
4.1213525e-02
1.1017789e-02
-2.0655796e-02
-3.5489654e-02
-3.5512033e-02
-4.1276274e-02
-5.3802743e-02
-7.3992316e-02
-8.3466894e-02
-8.3450308e-02
-9.4483722e-02
-1.1590515e-01
-1.4673418e-01
-1.6910905e-01
-1.6617093e-01
-1.3895335e-01
-1.0401781e-01
-7.8230929e-02
-4.4578661e-02
-4.5338448e-03
2.3431776e-02
3.8634867e-02
4.0470121e-02
4.8295090e-02
6.1843806e-02
6.2251108e-02
5.8027008e-02
5.7007296e-02
6.9938897e-02
9.0545445e-02
1.0186109e-01
1.0153990e-01
8.6420751e-02
7.5350869e-02
6.8006141e-02
4.4633304e-02
5.5879406e-03
-4.8969502e-02
-9.9721649e-02
-1.2969916e-01
-1.4166386e-01
-1.4130942e-01
-1.3423240e-01
-1.1226833e-01
-8.3093554e-02
-6.3067577e-02
-5.4777759e-02
-6.0203912e-02
-6.0938010e-02
-4.4403903e-02
-1.6103376e-02
9.6208517e-03
1.8125647e-02
2.9016756e-02
4.5278460e-02
5.0732787e-02
4.3962973e-02
2.3017469e-02
6.5932883e-03
-3.9998363e-03
-2.4813155e-02
-5.6274798e-02
-9.9600692e-02
-1.3565523e-01
-1.4631013e-01
-1.3019633e-01
-1.0421923e-01
-8.7036235e-02
-6.5827688e-02
-4.1196212e-02
-1.8286199e-02
5.3019895e-03
2.4005737e-02
4.8390871e-02
7.6000249e-02
1.0417213e-01
1.3653915e-01
1.6647000e-01
1.9471316e-01
2.0373897e-01
1.9464392e-01
1.8560418e-01
1.7532807e-01
1.6421015e-01
1.3801819e-01
1.0147167e-01
6.9703116e-02
3.8323604e-02
1.0439938e-02
-1.7400675e-02
-3.6720876e-02
-4.5477910e-02
-5.7284182e-02
-7.2031088e-02
-8.9848267e-02
-9.3028943e-02
-8.2147290e-02
-7.6434553e-02
-7.5520363e-02
-8.0206689e-02
-7.3268753e-02
-5.4286431e-02
-4.1429467e-02
-3.5018596e-02
-3.5846099e-02
-2.4405513e-02
8.7496885e-04
2.1285307e-02
3.5447807e-02
3.7789845e-02
4.3566435e-02
5.6882713e-02
6.1806811e-02
5.8154034e-02
4.3323758e-02
3.4743762e-02
3.6203555e-02
3.1339779e-02
2.0615576e-02
3.5336884e-03
-3.3720659e-03
-1.0201814e-03
-7.6690548e-03
-2.1956342e-02
-4.2498667e-02
-5.1185362e-02
-4.8227299e-02
-5.1666530e-02
-6.0720673e-02
-7.5273905e-02
-7.9037570e-02
-6.5823375e-02
-4.5978907e-02
-2.7423417e-02
-1.9938240e-02
-6.4197785e-03
1.2869043e-02
2.0395573e-02
1.8524119e-02
6.6996988e-03
2.4533094e-03
6.9547632e-03
2.7197091e-03
-9.9543999e-03
-3.0843248e-02
-3.9013020e-02
-3.3420214e-02
-3.3963137e-02
-3.8398964e-02
-4.3699052e-02
-3.3149300e-02
-7.3175994e-03
1.7321334e-02
3.8784202e-02
5.4436170e-02
8.2315929e-02
1.2087214e-01
1.5087761e-01
1.7335487e-01
1.8787718e-01
2.0355650e-01
2.1218018e-01
2.0399136e-01
1.8786356e-01
1.6427801e-01
1.4159189e-01
1.1325012e-01
7.2641838e-02
3.2970775e-02
-2.2598904e-03
-3.1673080e-02
-5.8975683e-02
-8.6766132e-02
-1.1101410e-01
-1.3325836e-01
-1.5311630e-01
-1.7107331e-01
-1.8551771e-01
-1.9459033e-01
-2.0076824e-01
-2.0061192e-01
-1.9437313e-01
-1.8391021e-01
-1.7622143e-01
-1.8065803e-01
-1.8890235e-01
-1.9318630e-01
-1.8952979e-01
-1.7814396e-01
-1.6333850e-01
-1.3806043e-01
-9.6143679e-02
-3.6282327e-02
2.5461215e-02
7.2462219e-02
1.0974515e-01
1.3102611e-01
1.4074305e-01
1.4625893e-01
1.4139561e-01
1.2853896e-01
1.0698617e-01
9.3722142e-02
9.0696428e-02
8.1476223e-02
6.8077123e-02
5.0629159e-02
4.6183702e-02
5.5783855e-02
6.2165178e-02
6.5639426e-02
6.3784062e-02
7.3225836e-02
9.5495736e-02
1.0289969e-01
8.6210060e-02
5.3815056e-02
3.1816046e-02
2.2235333e-02
8.7345149e-03
-8.8484548e-03
-3.2457122e-02
-4.4209367e-02
-4.3109832e-02
-4.8175629e-02
-5.8505167e-02
-7.2304102e-02
-7.1155756e-02
-5.6094026e-02
-4.6273962e-02
-4.1894634e-02
-4.3422604e-02
-3.2245744e-02
-9.1315888e-03
6.2450458e-03
1.4125749e-02
1.4840429e-02
2.7591190e-02
5.2545075e-02
6.6039418e-02
6.2424844e-02
4.6060720e-02
4.2217590e-02
5.0796634e-02
5.1698177e-02
4.5109668e-02
3.1375492e-02
3.0201858e-02
4.1455492e-02
4.5137198e-02
4.0593212e-02
2.7430112e-02
2.4755500e-02
3.3291596e-02
3.4731559e-02
2.7340343e-02
8.9639978e-03
-1.1875100e-03
-2.5238664e-03
-1.4296619e-02
-3.6516500e-02
-6.9464287e-02
-9.6120145e-02
-1.0133061e-01
-9.4008657e-02
-9.6513559e-02
-1.1801152e-01
-1.3384269e-01
-1.3615149e-01
-1.3444404e-01
-1.3738042e-01
-1.5359017e-01
-1.6287573e-01
-1.4713434e-01
-1.0743459e-01
-5.9493561e-02
-1.9045498e-02
2.8300470e-02
8.0650935e-02
1.2719515e-01
1.7006970e-01
2.0590625e-01
2.3944852e-01
2.5739797e-01
2.5568502e-01
2.4798290e-01
2.3333053e-01
2.1202655e-01
1.7122831e-01
1.1518968e-01
5.4856348e-02
-1.5216419e-02
-7.7719864e-02
-1.1829103e-01
-1.3549038e-01
-1.4393205e-01
-1.6147764e-01
-1.8077989e-01
-1.9551466e-01
-1.9571443e-01
-1.8647003e-01
-1.8415141e-01
-1.7879291e-01
-1.6019895e-01
-1.2181831e-01
-7.5554350e-02
-3.9814946e-02
-1.3916889e-02
3.2055518e-03
3.0548430e-02
6.7951354e-02
9.7148928e-02
1.1881043e-01
1.3316539e-01
1.4629415e-01
1.4493884e-01
1.2382660e-01
9.7548777e-02
6.6737897e-02
5.0639431e-02
4.8812053e-02
4.1634734e-02
2.8949952e-02
1.0373168e-02
5.0709988e-03
1.3327276e-02
1.5947738e-02
1.2623469e-02
1.6099454e-03
7.0391501e-04
1.0862616e-02
1.3499860e-02
8.3729894e-03
-4.5965065e-03
-6.0353231e-03
5.0435979e-03
1.0603199e-02
9.9308075e-03
2.0038272e-03
4.1034517e-03
1.3840424e-02
1.3784366e-02
5.8670838e-03
-1.0278022e-02
-1.5739774e-02
-7.9064884e-03
-3.4622679e-03
-6.8188820e-03
-2.2497069e-02
-3.0582582e-02
-2.5606085e-02
-2.2835191e-02
-2.6944184e-02
-4.2139235e-02
-4.9338509e-02
-4.4946311e-02
-4.4882042e-02
-5.3422356e-02
-7.4421226e-02
-8.8158531e-02
-8.9367589e-02
-9.2709570e-02
-9.8867935e-02
-1.0791632e-01
-1.1274194e-01
-1.1511217e-01
-1.1426445e-01
-1.1093471e-01
-1.1482131e-01
-1.0705508e-01
-7.8258450e-02
-3.6064853e-02
1.1421347e-02
5.4576501e-02
9.8490499e-02
1.3075564e-01
1.4995730e-01
1.7103434e-01
1.9298369e-01
2.1639452e-01
2.2263507e-01
2.1159958e-01
2.0134554e-01
1.9112830e-01
1.8603558e-01
1.7374603e-01
1.5190316e-01
1.3253789e-01
1.1274094e-01
1.0447641e-01
1.0239680e-01
9.5476215e-02
8.6739578e-02
7.2280398e-02
5.9557512e-02
4.9678850e-02
4.5784161e-02
4.3484401e-02
2.7587040e-02
5.4941868e-03
-1.7202667e-02
-3.3629948e-02
-4.7466972e-02
-7.2108084e-02
-1.0206160e-01
-1.3229921e-01
-1.5624938e-01
-1.6712192e-01
-1.6650560e-01
-1.5669958e-01
-1.3987214e-01
-1.1674126e-01
-1.0040980e-01
-1.0478651e-01
-1.1832794e-01
-1.2870326e-01
-1.3460175e-01
-1.3672763e-01
-1.3644715e-01
-1.3261652e-01
-1.2439212e-01
-1.1046936e-01
-9.0430307e-02
-6.5129445e-02
-3.5521612e-02
-2.8167819e-03
3.4330015e-02
6.5374400e-02
7.9151501e-02
7.8254803e-02
6.4345360e-02
5.0483200e-02
4.3825915e-02
3.8406835e-02
2.8006689e-02
6.7022268e-03
-1.3382649e-02
-2.9022258e-02
-4.8626808e-02
-6.5551018e-02
-7.3970423e-02
-7.1657508e-02
-6.1571012e-02
-4.8962848e-02
-3.2398036e-02
-1.0532233e-02
2.2720573e-02
5.7722221e-02
7.9275770e-02
8.6874000e-02
7.9335076e-02
7.1484232e-02
6.5899478e-02
5.2425690e-02
3.1684841e-02
1.0796559e-03
-2.4441998e-02
-3.2590522e-02
-2.6142379e-02
-1.7960806e-02
-2.1631166e-02
-2.0387040e-02
-1.5423549e-02
-2.4350564e-02
-3.5079705e-02
-3.5804884e-02
-2.4250480e-02
-1.0821384e-02
-2.2080074e-03
1.4782593e-03
-6.4650773e-03
-9.3669474e-03
9.9422374e-04
1.8201821e-02
3.5685224e-02
4.3698069e-02
5.8061410e-02
8.2404430e-02
1.0788177e-01
1.3109309e-01
1.4497457e-01
1.5267372e-01
1.3922908e-01
1.0360910e-01
6.1244781e-02
9.9945462e-03
-3.9668393e-02
-8.2365388e-02
-1.1517068e-01
-1.2653633e-01
-1.1370675e-01
-9.3733759e-02
-8.4248152e-02
-6.6815399e-02
-4.0736638e-02
-2.4855470e-02
-1.6072232e-02
-1.1547313e-02
4.5501510e-03
2.9641940e-02
4.4621070e-02
5.0968338e-02
4.8355424e-02
5.3372673e-02
6.6470756e-02
6.9495994e-02
6.3312260e-02
4.4662160e-02
2.8781478e-02
1.9341428e-02
5.0524265e-04
-2.7263136e-02
-6.4861851e-02
-9.4617931e-02
-1.0038137e-01
-8.5198646e-02
-6.4129857e-02
-5.2673386e-02
-3.2057948e-02
-2.4602268e-03
1.6635928e-02
2.5738111e-02
2.5274533e-02
3.4418371e-02
5.2720090e-02
6.0431261e-02
5.8451471e-02
4.6650085e-02
4.2861181e-02
4.8210626e-02
4.5279743e-02
3.3392936e-02
1.1100760e-02
-2.5000155e-03
-7.2154578e-03
-2.2277452e-02
-4.7898953e-02
-8.4498849e-02
-1.1215346e-01
-1.1445403e-01
-9.5078622e-02
-6.9599609e-02
-5.4156142e-02
-3.0222878e-02
2.6193549e-03
2.5912600e-02
3.9500157e-02
4.2837298e-02
5.5296751e-02
7.6575383e-02
8.7417803e-02
8.8342548e-02
7.9473235e-02
8.0807390e-02
9.2369473e-02
9.4264249e-02
8.6653105e-02
6.9868070e-02
6.3107483e-02
6.5469713e-02
5.6918694e-02
3.7164093e-02
5.7532572e-03
-1.8740056e-02
-1.9757469e-02
5.8261082e-04
2.3633611e-02
3.0169929e-02
3.9576906e-02
5.3659721e-02
5.4328895e-02
3.9044158e-02
5.0468339e-03
-2.8528512e-02
-4.6126286e-02
-5.1625352e-02
-6.0937374e-02
-9.0377600e-02
-1.2146386e-01
-1.3697462e-01
-1.3890609e-01
-1.4438749e-01
-1.7008579e-01
-1.9766067e-01
-2.0893126e-01
-2.0352397e-01
-1.9791503e-01
-2.0851342e-01
-2.1720521e-01
-2.0874064e-01
-1.8499104e-01
-1.6227470e-01
-1.5694353e-01
-1.4830881e-01
-1.1772788e-01
-6.5105850e-02
-5.5868616e-03
4.5058081e-02
9.0813343e-02
1.2208580e-01
1.4475235e-01
1.7115560e-01
1.9591194e-01
2.1972821e-01
2.2500690e-01
2.1519311e-01
2.0950522e-01
2.0633801e-01
2.0623181e-01
1.9001946e-01
1.5856872e-01
1.3174556e-01
1.0939634e-01
9.2073477e-02
6.5678341e-02
3.6562123e-02
1.9109906e-02
6.7070368e-03
-1.0448352e-03
-1.1084259e-02
-1.0556157e-02
6.7376208e-03
2.7157531e-02
5.0495832e-02
5.7041007e-02
4.6658502e-02
3.7951777e-02
2.9787288e-02
2.1356880e-02
3.4901232e-03
-1.2974272e-02
-1.9933348e-02
-2.9356029e-02
-4.1864922e-02
-5.8912175e-02
-6.3067255e-02
-5.3984592e-02
-5.0565887e-02
-5.2922145e-02
-6.2037996e-02
-6.0038264e-02
-4.6349813e-02
-3.9897453e-02
-4.1121656e-02
-5.0499497e-02
-4.8547459e-02
-3.4598021e-02
-2.8229872e-02
-2.9410347e-02
-3.7809278e-02
-3.4304074e-02
-1.8478581e-02
-9.1802657e-03
-7.4271166e-03
-1.4025200e-02
-8.8471217e-03
8.4792628e-03
1.8239864e-02
2.0256975e-02
1.4215631e-02
1.9366067e-02
3.5553158e-02
4.3254844e-02
4.2514622e-02
3.2452668e-02
3.2193247e-02
4.2551889e-02
4.4400689e-02
3.7773849e-02
2.2816049e-02
1.8998619e-02
2.5359375e-02
2.1488842e-02
8.1680845e-03
-1.4113371e-02
-2.6400392e-02
-2.7281693e-02
-3.5018805e-02
-5.2082129e-02
-8.0405178e-02
-9.9613441e-02
-9.8563632e-02
-8.6296534e-02
-7.3425885e-02
-7.0523719e-02
-5.7699652e-02
-3.2593984e-02
-1.2813203e-02
-3.5018593e-04
2.6927084e-03
1.4561578e-02
3.5492740e-02
4.8435822e-02
5.3765980e-02
5.0730408e-02
5.3751541e-02
5.8554301e-02
5.1700477e-02
3.7232528e-02
1.4145698e-02
1.5567908e-03
9.0568659e-04
-4.4012601e-03
-1.4944151e-02
-3.1986133e-02
-3.6235525e-02
-2.4313291e-02
-1.1406824e-02
-1.1607040e-03
2.1273802e-03
7.4490236e-03
1.1332302e-02
1.1928387e-02
1.3457887e-02
9.0092162e-03
1.5130921e-03
-8.7339386e-03
-8.6303579e-03
1.5275056e-03
5.2532481e-03
3.2701073e-03
-3.5141676e-03
3.4563061e-03
2.3359670e-02
3.7290291e-02
4.6253978e-02
4.2841051e-02
3.8139386e-02
3.9311941e-02
3.4396683e-02
2.2689788e-02
3.4355434e-03
-3.3104304e-03
2.4326634e-03
5.5605630e-04
-8.6432703e-03
-2.4766792e-02
-2.7837818e-02
-1.7880449e-02
-1.5002660e-02
-1.9184910e-02
-3.0338418e-02
-2.9421695e-02
-1.6556807e-02
-1.1334930e-02
-1.3120086e-02
-2.1508689e-02
-1.8508308e-02
-4.6964695e-03
1.1764462e-03
-7.9050774e-04
-1.0849837e-02
-9.1972408e-03
4.5585317e-03
1.1099866e-02
1.0166673e-02
7.3289522e-04
1.8103427e-03
1.3978701e-02
1.8298592e-02
1.4532783e-02
2.2960256e-03
1.2193686e-03
1.1494057e-02
1.3777355e-02
7.9428680e-03
-6.0176116e-03
-7.9893510e-03
1.9643766e-03
4.2903134e-03
-4.4812881e-04
-1.2447233e-02
-1.3109942e-02
-2.4686674e-03
1.0206119e-03
-2.4708282e-03
-1.3550309e-02
-1.2675933e-02
2.3011463e-04
5.1790485e-03
1.7213110e-03
-1.0016652e-02
-9.9870124e-03
2.5546356e-03
8.4450169e-03
6.9497059e-03
-2.5133691e-03
-3.8560672e-04
1.4065923e-02
2.0239323e-02
1.5700709e-02
1.8262463e-03
1.8927546e-04
1.0484906e-02
1.2588566e-02
6.6513050e-03
-6.8679119e-03
-8.5836143e-03
1.3899183e-03
3.4237529e-03
-3.0304805e-03
-1.7903400e-02
-2.0842901e-02
-1.0099143e-02
-3.9429321e-03
-3.9497999e-03
-1.1195549e-02
-6.2680135e-03
1.1079607e-02
2.2254294e-02
2.6223408e-02
2.1965393e-02
2.9006769e-02
4.7271369e-02
5.6455351e-02
5.5441563e-02
4.4785213e-02
3.9792636e-02
3.8865903e-02
3.0481258e-02
1.5701421e-02
-9.0763360e-03
-2.5596836e-02
-2.7812322e-02
-2.7255327e-02
-3.0443899e-02
-4.4615452e-02
-5.0451953e-02
-3.4311793e-02
-2.0938975e-03
3.1753527e-02
5.3229453e-02
6.9273118e-02
7.5198217e-02
7.2069424e-02
6.3840270e-02
4.1561061e-02
2.1692293e-02
1.0218047e-02
-4.0830818e-03
-3.0108350e-02
-7.4176410e-02
-1.1653210e-01
-1.3952786e-01
-1.4141524e-01
-1.3943516e-01
-1.5207647e-01
-1.6358532e-01
-1.5939265e-01
-1.3635189e-01
-1.1001077e-01
-9.9532009e-02
-9.0534250e-02
-6.9767946e-02
-3.1026968e-02
1.3620605e-02
4.5493984e-02
6.6105178e-02
7.5036022e-02
9.0315344e-02
1.1378799e-01
1.2813028e-01
1.3348250e-01
1.2985414e-01
1.3124006e-01
1.3149689e-01
1.1733731e-01
9.5232266e-02
6.4542360e-02
4.4809742e-02
3.6420258e-02
1.9517641e-02
-2.4931089e-03
-2.6601583e-02
-3.6986414e-02
-3.6746847e-02
-4.5468861e-02
-6.0269890e-02
-7.8945645e-02
-8.5514191e-02
-7.8734628e-02
-7.4209455e-02
-7.0617228e-02
-6.6880392e-02
-4.8616049e-02
-1.9550785e-02
2.3257509e-03
1.8021233e-02
2.7703625e-02
4.3417338e-02
5.8009575e-02
5.7994189e-02
4.9776121e-02
3.3500574e-02
2.8702269e-02
3.5871579e-02
3.5909117e-02
2.8433113e-02
1.2762910e-02
8.2341753e-03
1.5286845e-02
1.5368298e-02
8.6690691e-03
-5.2508252e-03
-6.7763944e-03
3.7658803e-03
6.2682779e-03
6.0423450e-04
-1.2930876e-02
-1.4261564e-02
-3.1824865e-03
7.7183475e-04
-2.6746631e-03
-1.4021783e-02
-1.3850356e-02
-2.2407606e-03
6.9415101e-04
-5.1280928e-03
-1.9318085e-02
-2.2301870e-02
-1.3545477e-02
-1.1961032e-02
-1.7753264e-02
-3.0970642e-02
-3.2183307e-02
-1.9912255e-02
-1.1850937e-02
-1.0340499e-02
-1.7862073e-02
-1.5319917e-02
-1.9013196e-03
4.6866082e-03
4.2962920e-03
-3.8290499e-03
-5.5361585e-04
1.4588462e-02
2.3566376e-02
2.6432537e-02
2.2513595e-02
2.9893731e-02
4.7222824e-02
5.5883977e-02
5.7136125e-02
5.1467687e-02
5.6474272e-02
7.0175165e-02
7.4695229e-02
7.0633892e-02
5.6973742e-02
5.2281410e-02
5.5999873e-02
4.9965891e-02
3.4301818e-02
7.9175870e-03
-1.1825280e-02
-2.1882319e-02
-3.5105407e-02
-5.5652549e-02
-8.9450432e-02
-1.2039099e-01
-1.3436754e-01
-1.3004991e-01
-1.2143770e-01
-1.2650799e-01
-1.2887736e-01
-1.1398863e-01
-8.1369559e-02
-4.5317917e-02
-2.3029665e-02
-2.1474862e-03
1.8641967e-02
3.5797827e-02
4.8959289e-02
5.0333024e-02
4.8118649e-02
4.6752554e-02
5.4491521e-02
6.6999522e-02
6.8079584e-02
6.0626802e-02
4.6126189e-02
4.0216123e-02
4.2150484e-02
3.4106002e-02
1.5891733e-02
-1.2882520e-02
-3.3089162e-02
-4.4888791e-02
-6.7284457e-02
-8.2612717e-02
-7.4616693e-02
-4.1297464e-02
2.4455808e-03
3.8384608e-02
6.4411713e-02
7.9052271e-02
1.0247802e-01
1.3450182e-01
1.5489782e-01
1.6406588e-01
1.6197821e-01
1.6690601e-01
1.7732339e-01
1.7266095e-01
1.5291534e-01
1.1840839e-01
8.7991022e-02
6.0899659e-02
1.6910923e-02
-3.7067687e-02
-9.4294504e-02
-1.4585961e-01
-1.8811034e-01
-2.2780934e-01
-2.6233366e-01
-2.8833126e-01
-3.0329793e-01
-3.0559538e-01
-2.9548067e-01
-2.7253018e-01
-2.3702989e-01
-1.8769196e-01
-1.3514168e-01
-9.0792967e-02
-5.1254739e-02
-1.3202710e-02
3.3973498e-02
8.4758670e-02
1.2441302e-01
1.5137729e-01
1.6013296e-01
1.6638811e-01
1.7448016e-01
1.7031786e-01
1.5348125e-01
1.1880887e-01
7.8806756e-02
3.5706667e-02
-2.1646830e-02
-7.3732006e-02
-1.0490363e-01
-1.1250741e-01
-9.7381469e-02
-6.2661955e-02
-2.2569843e-02
7.1316490e-03
4.0022070e-02
7.1568658e-02
8.5303405e-02
8.3287955e-02
6.8035353e-02
5.9736730e-02
5.9472090e-02
5.3654489e-02
4.3005062e-02
2.5831385e-02
2.1210380e-02
2.8647678e-02
2.9394328e-02
2.4428065e-02
1.3926809e-02
1.4878862e-02
2.6410725e-02
3.0493627e-02
3.4747379e-02
4.7735007e-02
7.4662172e-02
1.0061866e-01
1.1196433e-01
1.1282417e-01
1.0173960e-01
9.5037543e-02
9.3458378e-02
8.3664824e-02
6.2939576e-02
2.5810811e-02
-1.2577067e-02
-4.0811617e-02
-5.8895002e-02
-7.7683770e-02
-1.1296179e-01
-1.5176759e-01
-1.8298049e-01
-2.0571547e-01
-2.2276075e-01
-2.4020125e-01
-2.5068513e-01
-2.4786792e-01
-2.2987143e-01
-1.9492518e-01
-1.4385122e-01
-8.5369457e-02
-3.6112523e-02
6.7905183e-03
4.5241071e-02
6.9839589e-02
8.8467849e-02
1.0380701e-01
1.1958479e-01
1.3353404e-01
1.3464965e-01
1.2971052e-01
1.2198249e-01
1.2281206e-01
1.3028489e-01
1.2854561e-01
1.1763319e-01
9.3195741e-02
7.0259508e-02
5.2521389e-02
2.4190524e-02
-1.3934080e-02
-6.1482104e-02
-1.0050765e-01
-1.1372938e-01
-1.0260849e-01
-8.3660766e-02
-7.3549472e-02
-5.3746540e-02
-2.5196603e-02
-7.6433072e-03
-7.3173548e-04
-4.2283223e-03
1.7454164e-03
1.7456932e-02
2.2732245e-02
1.8840492e-02
7.3974457e-03
7.0569585e-03
1.7333834e-02
1.8883262e-02
1.2763642e-02
-6.6014950e-05
-7.0075297e-04
1.0991935e-02
1.5554780e-02
1.2424625e-02
1.6017672e-03
2.7462424e-03
1.6485247e-02
2.3891675e-02
2.4868175e-02
1.8964699e-02
2.4703995e-02
4.1425118e-02
4.9643602e-02
4.9657394e-02
4.1280873e-02
4.3208931e-02
5.6174229e-02
6.1959228e-02
5.9315437e-02
4.6649159e-02
4.3389922e-02
5.1414401e-02
5.3113968e-02
4.6786050e-02
3.0130273e-02
2.1462509e-02
1.9786469e-02
5.0181073e-03
-2.3350620e-02
-6.5787820e-02
-1.0324212e-01
-1.1678572e-01
-1.0673748e-01
-9.1795031e-02
-9.0876731e-02
-8.5213315e-02
-7.1757753e-02
-6.6186167e-02
-7.0951857e-02
-8.8811180e-02
-1.0088109e-01
-9.3055919e-02
-7.0075413e-02
-4.4869571e-02
-3.0428725e-02
-8.6411273e-03
2.1703784e-02
4.4161596e-02
5.5749775e-02
5.3265450e-02
5.6049382e-02
6.5800741e-02
6.6537306e-02
5.7409157e-02
3.6194473e-02
1.2696192e-02
-4.3200761e-03
-5.3750818e-03
5.3251260e-04
-5.8291329e-03
-1.5095315e-02
-2.5835093e-02
-3.4139250e-02
-4.0393845e-02
-5.6748425e-02
-6.5533784e-02
-5.7064301e-02
-3.6733064e-02
-1.3083156e-02
2.5483825e-03
1.1893382e-02
1.3233803e-02
2.0804186e-02
3.6588504e-02
4.5062097e-02
5.0545155e-02
5.3907565e-02
6.7864680e-02
9.1312047e-02
1.0755812e-01
1.1767093e-01
1.1758075e-01
1.2203103e-01
1.3521500e-01
1.4143173e-01
1.4107846e-01
1.3004335e-01
1.2187108e-01
1.1923888e-01
1.0612284e-01
8.1800730e-02
4.5193683e-02
1.4690778e-02
-1.0071690e-02
-4.8634584e-02
-9.5758115e-02
-1.4665363e-01
-1.8879621e-01
-2.1844795e-01
-2.4504736e-01
-2.6422066e-01
-2.7250600e-01
-2.6726604e-01
-2.4889096e-01
-2.2083637e-01
-1.8464673e-01
-1.4229303e-01
-8.5963966e-02
-2.7260226e-02
1.4920224e-02
4.2738579e-02
5.7811332e-02
7.8302719e-02
1.0369032e-01
1.1549797e-01
1.1507309e-01
1.0372630e-01
1.0119910e-01
1.0800671e-01
1.0554639e-01
9.3553499e-02
7.1914958e-02
6.1021335e-02
6.1101535e-02
5.2595731e-02
3.5909442e-02
1.0819148e-02
-3.3873258e-03
-3.3184614e-03
-5.2410519e-03
-1.2185209e-02
-2.8590641e-02
-3.6049112e-02
-2.8829348e-02
-2.0838243e-02
-1.6009291e-02
-1.8762068e-02
-1.0787941e-02
7.1519592e-03
1.6268575e-02
1.7017437e-02
9.1179326e-03
1.0840354e-02
2.1381417e-02
2.3110632e-02
1.7279180e-02
3.7384441e-03
1.3699628e-03
1.1327415e-02
1.7215416e-02
1.7986441e-02
1.0902066e-02
1.1566951e-02
1.6933983e-02
1.1407595e-02
-1.9133975e-03
-2.4314733e-02
-3.7053158e-02
-3.4315751e-02
-2.9628520e-02
-2.7520564e-02
-3.2860238e-02
-3.5821324e-02
-4.0063994e-02
-4.9548158e-02
-6.0390868e-02
-7.8335318e-02
-8.9492291e-02
-8.2321438e-02
-5.3424600e-02
-1.4181850e-02
1.8532225e-02
5.1900978e-02
7.8217240e-02
9.5777603e-02
1.1270789e-01
1.2430299e-01
1.3034950e-01
1.2076290e-01
1.0562718e-01
9.4564136e-02
7.6387419e-02
5.2543991e-02
2.3564188e-02
4.8982898e-03
-3.0987826e-03
-1.7208520e-02
-3.5113007e-02
-5.5240318e-02
-6.0632386e-02
-5.3707250e-02
-5.4703688e-02
-6.0247253e-02
-6.6881082e-02
-5.8464799e-02
-3.8071411e-02
-2.5667977e-02
-2.2213404e-02
-2.8226493e-02
-2.3832681e-02
-8.4867829e-03
-1.7863073e-03
-3.6856162e-03
-1.3922683e-02
-1.2904024e-02
-3.3503793e-04
4.3474979e-03
1.2365060e-03
-8.9785065e-03
-6.6282131e-03
7.7877969e-03
1.4523564e-02
1.3698694e-02
4.4840939e-03
5.4383878e-03
1.7024691e-02
2.0116508e-02
1.5098354e-02
2.2818412e-03
8.2398173e-04
1.0700536e-02
1.2931017e-02
8.1551392e-03
-3.3893509e-03
-2.3064676e-03
1.1040841e-02
1.6812800e-02
1.4724261e-02
4.3414120e-03
5.2968591e-03
1.7855144e-02
2.2174610e-02
1.7517947e-02
4.0819084e-03
2.5958234e-03
1.3191844e-02
1.5908850e-02
1.0433746e-02
-3.2831711e-03
-4.9302492e-03
6.7628253e-03
1.2787923e-02
1.1362533e-02
6.6966696e-04
-6.9858148e-05
1.1100016e-02
1.6850793e-02
1.5230080e-02
3.8760736e-03
2.0501996e-03
1.4081189e-02
2.4813656e-02
2.9398992e-02
2.3109247e-02
2.5795929e-02
4.0402944e-02
4.8938310e-02
4.6389032e-02
2.9515382e-02
1.7259526e-02
1.6304071e-02
1.6028098e-02
8.8495683e-03
-1.3662972e-02
-3.3823188e-02
-4.4375153e-02
-5.3140633e-02
-6.8082945e-02
-9.9526948e-02
-1.2999289e-01
-1.4412395e-01
-1.4123350e-01
-1.3553977e-01
-1.4393267e-01
-1.5082960e-01
-1.4203754e-01
-1.1484675e-01
-8.3484247e-02
-6.5987344e-02
-5.1595350e-02
-3.0604313e-02
3.6338721e-03
4.0510174e-02
6.4732238e-02
7.9093113e-02
8.1460991e-02
9.0442469e-02
1.0963761e-01
1.2193150e-01
1.2769246e-01
1.1807157e-01
1.0379092e-01
9.4877741e-02
8.1531633e-02
6.4955638e-02
4.2007707e-02
2.7320310e-02
2.4050464e-02
1.6874857e-02
6.5291475e-03
-8.8382407e-03
-1.2212229e-02
-2.7783018e-03
8.8823724e-04
-1.6960310e-03
-1.1297317e-02
-1.1108284e-02
-3.3156845e-03
-4.5571649e-03
-1.2427910e-02
-2.7459198e-02
-2.9776259e-02
-1.9123231e-02
-1.5307772e-02
-1.8967421e-02
-3.0784821e-02
-3.0234621e-02
-1.6760630e-02
-1.0688483e-02
-1.2065789e-02
-2.1120012e-02
-1.8377130e-02
-3.8125005e-03
2.5883444e-03
1.4339216e-03
-6.3699679e-03
-1.0241741e-03
1.7089036e-02
2.8179397e-02
3.2012483e-02
2.8442270e-02
3.2823762e-02
3.9842508e-02
3.4264587e-02
2.1597073e-02
2.3700573e-03
-3.5050581e-03
4.0950154e-03
5.5238445e-03
-2.2112775e-04
-1.3787089e-02
-1.4674036e-02
-2.8455161e-03
1.5224510e-03
-1.3821137e-03
-1.1412084e-02
-1.0170463e-02
1.5617261e-03
5.4964002e-03
2.1696297e-03
-9.4976871e-03
-1.1467770e-02
-2.5572286e-03
8.5205582e-04
-2.0809276e-03
-1.3450995e-02
-1.5965607e-02
-1.1224448e-02
-1.5375597e-02
-2.6475948e-02
-4.5541989e-02
-5.3770802e-02
-4.9856478e-02
-5.0181146e-02
-5.5100098e-02
-6.6022791e-02
-6.9954792e-02
-6.0987570e-02
-3.9602546e-02
-1.2270122e-02
8.2051771e-03
3.2633272e-02
5.3911545e-02
6.3407628e-02
6.8606095e-02
6.8304943e-02
6.9475645e-02
6.3385756e-02
4.8246865e-02
3.3150422e-02
1.4197527e-02
4.0844066e-03
6.7943207e-03
2.1144273e-02
4.2649092e-02
5.9773154e-02
7.2137121e-02
6.9371632e-02
6.1105147e-02
5.6950793e-02
4.6940943e-02
3.4028695e-02
1.7325207e-02
9.6454066e-03
1.1636763e-02
6.9769222e-03
-3.3428095e-03
-2.0453550e-02
-2.8990651e-02
-2.8475625e-02
-3.6446471e-02
-5.1280521e-02
-7.1769331e-02
-8.1679670e-02
-8.3589110e-02
-9.6930324e-02
-1.0727747e-01
-1.0082608e-01
-7.3023107e-02
-3.7477435e-02
-1.3002379e-02
1.5481418e-03
7.5354650e-03
2.3462060e-02
4.8510566e-02
6.3593896e-02
6.8665848e-02
6.2805658e-02
6.4935506e-02
7.5989193e-02
7.7013644e-02
6.7984391e-02
4.8670083e-02
3.8214875e-02
3.6394710e-02
2.3592230e-02
2.6348474e-04
-3.3270506e-02
-5.7462089e-02
-7.2508483e-02
-9.8005335e-02
-1.1833383e-01
-1.1923744e-01
-9.7204684e-02
-6.3869423e-02
-3.5796545e-02
-1.5532505e-02
-5.9807698e-03
1.1677353e-02
3.7650020e-02
5.2743625e-02
5.7183037e-02
5.1238855e-02
5.4114569e-02
6.5989086e-02
6.8154051e-02
6.0817487e-02
4.4203868e-02
3.7541098e-02
3.9768483e-02
3.1313005e-02
1.2877041e-02
-1.6036965e-02
-3.6978827e-02
-4.9724959e-02
-7.3351690e-02
-9.1289321e-02
-8.6318827e-02
-5.4648909e-02
-1.2866101e-02
1.8561243e-02
3.8886368e-02
4.8046248e-02
6.5173351e-02
9.1945149e-02
1.1116391e-01
1.2065731e-01
1.1810443e-01
1.2261117e-01
1.3588250e-01
1.4046787e-01
1.3292536e-01
1.0963420e-01
8.9345444e-02
7.5354004e-02
5.2102456e-02
1.4594834e-02
-4.2932703e-02
-1.0161879e-01
-1.4909798e-01
-1.9207820e-01
-2.2444507e-01
-2.4091157e-01
-2.4145383e-01
-2.2658295e-01
-1.9730173e-01
-1.7255751e-01
-1.7125238e-01
-1.7612834e-01
-1.7030289e-01
-1.5083665e-01
-1.2622201e-01
-1.0808907e-01
-8.4692317e-02
-4.4607277e-02
1.3966971e-02
7.3897441e-02
1.1631446e-01
1.4306049e-01
1.4887785e-01
1.4644272e-01
1.4310107e-01
1.2708653e-01
9.9182019e-02
5.7795443e-02
2.1399115e-02
8.5930101e-03
1.7649737e-02
3.3018563e-02
3.5872423e-02
4.3241399e-02
5.8456367e-02
6.4934422e-02
6.3635915e-02
5.3878114e-02
5.3632939e-02
6.3751324e-02
6.5672558e-02
5.9076499e-02
4.3632498e-02
3.8893041e-02
4.4248339e-02
3.9494187e-02
2.4934816e-02
4.4698178e-04
-1.4704433e-02
-2.0855700e-02
-3.8126086e-02
-6.6556133e-02
-1.0609020e-01
-1.3660361e-01
-1.4014700e-01
-1.1927506e-01
-9.2232891e-02
-7.6798016e-02
-5.2683079e-02
-1.9507368e-02
3.0094036e-03
1.4552717e-02
1.4531294e-02
2.2946943e-02
4.0575776e-02
4.8174937e-02
4.6520644e-02
3.6416287e-02
3.7398086e-02
4.8813697e-02
5.1026744e-02
4.4188792e-02
2.7984476e-02
2.2545794e-02
2.8340743e-02
2.5339901e-02
1.3503838e-02
-7.3117108e-03
-1.8052685e-02
-1.4207797e-02
-1.0202241e-02
-1.0271186e-02
-1.8865809e-02
-1.6089463e-02
-2.1111162e-04
1.1261655e-02
1.6487255e-02
1.2862810e-02
1.9589095e-02
3.6017273e-02
4.2257821e-02
3.8619043e-02
2.4601197e-02
1.9123831e-02
2.6009930e-02
3.0220229e-02
2.7839936e-02
1.4029980e-02
8.2294962e-03
1.0284530e-02
7.7472888e-04
-1.9645712e-02
-5.1311078e-02
-7.5183913e-02
-7.6259494e-02
-5.8712072e-02
-3.7218382e-02
-2.6960095e-02
-9.2548816e-03
1.6459233e-02
3.2382924e-02
3.7280293e-02
2.9073309e-02
2.6640990e-02
3.3553855e-02
3.4831102e-02
2.7292858e-02
6.9142021e-03
-7.4506877e-03
-9.5444363e-03
-1.1433740e-02
-1.9830513e-02
-4.2199782e-02
-6.4911072e-02
-7.8452931e-02
-8.0243485e-02
-7.8859430e-02
-8.9827936e-02
-1.0155682e-01
-1.0264968e-01
-8.5628776e-02
-6.1361419e-02
-4.8199669e-02
-3.7722135e-02
-2.4308448e-02
1.6362265e-03
3.5129589e-02
5.9325879e-02
7.4248119e-02
7.3611589e-02
7.1348318e-02
7.4301980e-02
6.9376704e-02
5.8205878e-02
4.0380460e-02
3.2518747e-02
3.5352210e-02
3.1532897e-02
2.2143312e-02
7.4772745e-03
6.6103871e-03
1.9365755e-02
2.6272634e-02
2.8993717e-02
2.4733615e-02
2.7685643e-02
4.0825246e-02
4.8276478e-02
4.9451261e-02
4.3039484e-02
4.7779434e-02
6.4763960e-02
7.4998559e-02
7.9122342e-02
7.6628829e-02
8.4712748e-02
1.0300504e-01
1.1158393e-01
1.0947613e-01
9.6146590e-02
8.9983027e-02
8.9949837e-02
7.5270124e-02
4.5626433e-02
2.1134038e-04
-4.4569263e-02
-8.4493956e-02
-1.3310655e-01
-1.8392837e-01
-2.3310638e-01
-2.7620631e-01
-3.0578093e-01
-3.2158478e-01
-3.2327853e-01
-3.1032051e-01
-2.8167957e-01
-2.3746662e-01
-1.7857374e-01
-1.1688192e-01
-6.5056481e-02
-1.0413812e-02
4.2869284e-02
7.8776751e-02
9.9761395e-02
1.0731300e-01
1.2093664e-01
1.4081934e-01
1.4898566e-01
1.4605125e-01
1.3200046e-01
1.2736425e-01
1.3456781e-01
1.3607975e-01
1.3182057e-01
1.1179218e-01
8.5603564e-02
6.6334806e-02
4.7956665e-02
2.6920668e-02
-5.9001481e-04
-1.5576187e-02
-1.6019328e-02
-1.8889213e-02
-2.6106364e-02
-3.9805455e-02
-4.0526147e-02
-2.7386992e-02
-1.8890516e-02
-1.6141258e-02
-2.0523626e-02
-1.3213828e-02
5.6231671e-03
1.7255030e-02
2.1398800e-02
1.7638602e-02
2.5121605e-02
4.3570722e-02
5.5008872e-02
5.9737389e-02
5.5916036e-02
6.1997778e-02
7.8424378e-02
8.5677840e-02
8.3167264e-02
7.0663805e-02
6.6541126e-02
7.0455025e-02
6.4023393e-02
4.6598665e-02
1.6811007e-02
-7.0990052e-03
-2.1618928e-02
-4.1395554e-02
-7.0964721e-02
-1.1539261e-01
-1.5632505e-01
-1.7755752e-01
-1.8082958e-01
-1.8091647e-01
-1.9326496e-01
-2.0183470e-01
-1.9560246e-01
-1.7784555e-01
-1.4924440e-01
-1.1421219e-01
-7.4519538e-02
-4.1072875e-02
-1.6139010e-02
1.5097582e-02
5.9096960e-02
1.0941309e-01
1.4596527e-01
1.7109602e-01
1.9435754e-01
2.0954656e-01
2.1846593e-01
2.0852608e-01
1.8258510e-01
1.5359417e-01
1.1726035e-01
7.6331324e-02
3.1390800e-02
-3.0286108e-03
-2.8783201e-02
-6.4243467e-02
-9.6042263e-02
-1.1140161e-01
-1.0469088e-01
-8.9142867e-02
-8.4534649e-02
-8.5469572e-02
-8.6575424e-02
-7.4102337e-02
-5.3231264e-02
-4.3242603e-02
-4.0716815e-02
-4.2501689e-02
-3.2389400e-02
-1.2715366e-02
-2.2237621e-03
1.3422578e-03
-1.7261250e-04
1.0371304e-02
3.0762943e-02
4.1353434e-02
4.2357713e-02
3.2990101e-02
3.2269572e-02
4.2153384e-02
4.4623821e-02
3.9457158e-02
2.5677046e-02
2.2006950e-02
2.9454337e-02
2.9298671e-02
2.1208021e-02
5.0717370e-03
3.6854025e-04
7.7113022e-03
8.2121483e-03
1.1032219e-03
-1.4130997e-02
-1.7273852e-02
-8.1215034e-03
-6.3559011e-03
-1.1760219e-02
-2.4159751e-02
-2.4617624e-02
-1.3227011e-02
-8.8991494e-03
-1.0843132e-02
-1.8901824e-02
-1.4824166e-02
8.1115528e-04
8.3585888e-03
7.9451740e-03
-5.3458798e-04
1.8833109e-03
1.5544661e-02
2.0488817e-02
1.5945086e-02
2.4991683e-03
5.7105789e-04
1.0722507e-02
1.3460360e-02
8.2692462e-03
-4.8946144e-03
-5.9245886e-03
5.2293863e-03
9.0220907e-03
5.6698623e-03
-4.8241924e-03
-3.0172745e-03
1.0444800e-02
1.5375766e-02
1.1996434e-02
4.7019988e-04
5.6681309e-04
1.3280930e-02
1.9027843e-02
1.6946182e-02
6.5900385e-03
7.0554401e-03
1.8169687e-02
2.0193588e-02
1.2761950e-02
-3.7947011e-03
-9.1084193e-03
-3.3303367e-03
-6.5935367e-03
-1.8901422e-02
-4.0383889e-02
-5.1680758e-02
-4.5841667e-02
-3.5514808e-02
-2.8303305e-02
-3.1210217e-02
-2.3436538e-02
-4.5660354e-03
5.3920771e-03
6.0434204e-03
-2.7424275e-03
-1.0778495e-03
1.2363350e-02
1.9093696e-02
1.8135417e-02
8.5848009e-03
1.0021992e-02
2.2045447e-02
2.4531088e-02
1.7570684e-02
1.9531125e-03
-2.6747315e-03
4.2860442e-03
4.5605867e-03
-2.4031712e-03
-1.7494255e-02
-2.1472012e-02
-7.9720132e-03
9.8385486e-03
2.5228853e-02
3.1801808e-02
4.6750717e-02
6.8691676e-02
8.0903676e-02
8.3895484e-02
7.6593517e-02
7.7611901e-02
8.5963102e-02
8.2914660e-02
6.8831860e-02
4.3381442e-02
2.3147737e-02
1.2248741e-02
-7.3874259e-04
-2.2713930e-02
-6.0634901e-02
-9.6370794e-02
-1.1818150e-01
-1.2933571e-01
-1.4207875e-01
-1.7028112e-01
-1.9436297e-01
-1.9669576e-01
-1.7820287e-01
-1.5673822e-01
-1.5031476e-01
-1.4305542e-01
-1.2293426e-01
-8.8844083e-02
-5.1734265e-02
-2.6649369e-02
-1.7008978e-03
2.9648313e-02
7.1523466e-02
1.1871704e-01
1.5739751e-01
1.8757216e-01
1.9434718e-01
1.8325591e-01
1.6961400e-01
1.4950710e-01
1.2372008e-01
9.1198828e-02
7.0659057e-02
6.2950053e-02
4.9570832e-02
3.0520317e-02
5.0981012e-03
-7.2245684e-03
-6.4804950e-03
-1.2808301e-02
-2.6013004e-02
-4.5137880e-02
-5.0670623e-02
-4.4197252e-02
-4.6545686e-02
-5.4183901e-02
-6.3241526e-02
-5.7139674e-02
-3.9107959e-02
-2.9023657e-02
-2.6157690e-02
-2.9552293e-02
-2.1263603e-02
-3.3042402e-03
4.8694628e-03
3.6750859e-03
-7.0175551e-03
-7.2548043e-03
4.4444710e-03
9.3320906e-03
6.7841536e-03
-3.4415734e-03
-2.1113263e-03
1.0476089e-02
1.5430512e-02
1.2659763e-02
1.5982368e-03
2.2238522e-03
1.4289944e-02
1.7645473e-02
1.2859898e-02
3.1532512e-04
-4.9532767e-04
1.0828264e-02
1.4812938e-02
1.0598722e-02
-2.0048655e-03
-2.6899424e-03
8.5134887e-03
1.1670638e-02
6.9995469e-03
-5.2386586e-03
-5.5037837e-03
6.3598995e-03
1.0844635e-02
7.4052212e-03
-3.8722821e-03
-3.2387195e-03
8.4099532e-03
1.0898375e-02
4.9241061e-03
-8.8378341e-03
-1.0749315e-02
1.2375669e-05
4.2350263e-03
6.0297725e-04
-1.1635037e-02
-1.2440423e-02
-1.3940878e-03
2.0102441e-03
-2.5136765e-03
-1.5181412e-02
-1.6917055e-02
-6.5112977e-03
-1.3465087e-03
-2.9887624e-03
-1.3465830e-02
-1.2841719e-02
-5.4107683e-04
4.1456733e-03
5.3501530e-04
-1.2137448e-02
-1.4088194e-02
-4.0796859e-03
-4.9557539e-04
-3.7121503e-03
-1.4185080e-02
-1.3728020e-02
-3.0958189e-03
-1.9062521e-04
-4.0498066e-03
-1.4625567e-02
-1.4023165e-02
-3.5319437e-03
-1.3183202e-03
-6.4033613e-03
-1.8635939e-02
-2.3999091e-02
-2.5736134e-02
-3.4949678e-02
-4.7707682e-02
-6.5494452e-02
-6.8730151e-02
-5.6433730e-02
-4.5556612e-02
-3.6912242e-02
-3.2145818e-02
-1.2598273e-02
2.1471900e-02
5.3277461e-02
8.4285612e-02
1.1348423e-01
1.4462573e-01
1.6545817e-01
1.7441939e-01
1.8412153e-01
1.9189446e-01
1.9779889e-01
1.8290378e-01
1.4641810e-01
1.0604595e-01
6.0433249e-02
2.7896312e-02
1.6981322e-02
1.6841359e-02
1.7342425e-02
8.2381203e-03
1.4068544e-04
-1.6450266e-03
3.9872457e-03
9.5807057e-03
6.8372704e-04
-1.2571673e-02
-2.1848013e-02
-2.0685978e-02
-1.7509506e-02
-2.9953288e-02
-4.6375383e-02
-5.4834894e-02
-5.2890666e-02
-4.7356774e-02
-4.7966292e-02
-4.8448139e-02
-4.4550671e-02
-3.5187846e-02
-2.8799278e-02
-3.7025773e-02
-5.1816615e-02
-6.5654745e-02
-7.6325861e-02
-8.3303199e-02
-8.9056384e-02
-9.1902585e-02
-9.0316315e-02
-8.3231342e-02
-7.5020081e-02
-7.1214595e-02
-6.6479814e-02
-5.5955241e-02
-4.0286775e-02
-2.0309185e-02
3.3167044e-03
2.8962742e-02
5.3970938e-02
7.8865771e-02
9.6795352e-02
9.9638284e-02
8.8591663e-02
6.3518358e-02
3.2352694e-02
1.6901476e-03
-3.0951027e-02
-6.1760690e-02
-8.6964544e-02
-1.0664875e-01
-1.2065615e-01
-1.2902549e-01
-1.3204810e-01
-1.2997806e-01
-1.2247521e-01
-1.1407387e-01
-1.0946325e-01
-1.0509120e-01
-9.7904124e-02
-8.5571409e-02
-6.9591595e-02
-5.3505335e-02
-4.1054942e-02
-3.6521723e-02
-2.9492028e-02
-1.2874722e-02
1.0562168e-02
2.9110144e-02
3.0825114e-02
3.4365506e-02
4.0879564e-02
3.3364834e-02
2.5194436e-02
2.9254810e-02
5.0019816e-02
7.7827324e-02
9.9228531e-02
1.1114631e-01
1.0997074e-01
1.1628254e-01
1.3102885e-01
1.3559698e-01
1.2959337e-01
1.1168331e-01
1.0063648e-01
9.6969024e-02
8.3485374e-02
6.1029232e-02
2.8821821e-02
5.8018046e-03
-6.0064167e-03
-2.3318918e-02
-4.8848463e-02
-8.5623665e-02
-1.1400944e-01
-1.3114190e-01
-1.5315670e-01
-1.6299017e-01
-1.4454359e-01
-9.7837947e-02
-4.1326696e-02
6.5364973e-03
4.5646368e-02
7.4844859e-02
1.1259000e-01
1.6031842e-01
2.0061713e-01
2.3163380e-01
2.5078548e-01
2.6433156e-01
2.6016705e-01
2.3243400e-01
1.9275466e-01
1.3954984e-01
8.7280874e-02
4.4875252e-02
1.0919890e-02
-2.3121110e-02
-7.0273353e-02
-1.1641575e-01
-1.5420551e-01
-1.8789866e-01
-2.1033683e-01
-2.1733271e-01
-2.1274039e-01
-2.0351145e-01
-1.9017292e-01
-1.7656918e-01
-1.6959428e-01
-1.6354802e-01
-1.5490614e-01
-1.4354026e-01
-1.3099817e-01
-1.2049956e-01
-1.0614977e-01
-8.4099352e-02
-5.3327415e-02
-2.4302506e-02
-8.6295341e-03
3.1682799e-03
1.6960093e-02
3.8685855e-02
6.1239256e-02
6.9699726e-02
7.5680886e-02
7.9161743e-02
7.8311223e-02
8.9274993e-02
1.1883663e-01
1.5435537e-01
1.7070074e-01
1.7299885e-01
1.7398147e-01
1.6568064e-01
1.5269844e-01
1.3852266e-01
1.2895954e-01
1.2415628e-01
1.1453834e-01
1.0122330e-01
8.5105574e-02
8.1284802e-02
8.4499081e-02
7.4114966e-02
5.0075056e-02
1.1665608e-02
-2.3026981e-02
-4.7930698e-02
-7.6464766e-02
-1.0578792e-01
-1.3291055e-01
-1.5000624e-01
-1.5894640e-01
-1.7020425e-01
-1.8431448e-01
-2.0157431e-01
-2.1270246e-01
-2.1614188e-01
-2.1939304e-01
-2.1392259e-01
-1.9153713e-01
-1.5192122e-01
-1.0089907e-01
-4.4383030e-02
7.2080249e-03
4.3633026e-02
8.3121436e-02
1.2414911e-01
1.4760706e-01
1.5596108e-01
1.5175059e-01
1.5350307e-01
1.5971153e-01
1.5098663e-01
1.2744291e-01
8.9058444e-02
5.6261061e-02
4.4041058e-02
4.7089733e-02
5.0381759e-02
3.8615185e-02
3.0513083e-02
2.7470549e-02
1.2538321e-02
-1.5620434e-02
-5.9171687e-02
-9.8628670e-02
-1.1651715e-01
-1.1498640e-01
-1.0704171e-01
-1.0559101e-01
-9.5332819e-02
-6.5714871e-02
-2.1766937e-02
2.0427632e-02
4.4902429e-02
7.0819493e-02
9.8242238e-02
1.0839338e-01
1.0227211e-01
8.0586541e-02
6.2416275e-02
5.9911172e-02
6.7038406e-02
7.0981149e-02
5.8055993e-02
4.7529427e-02
4.9478175e-02
5.3913325e-02
4.9508199e-02
2.5187058e-02
-7.1825630e-06
-1.3767805e-02
-2.3455217e-02
-4.2039655e-02
-8.2302906e-02
-1.2598731e-01
-1.5781290e-01
-1.8023787e-01
-1.9284109e-01
-1.9551925e-01
-1.8461330e-01
-1.5907381e-01
-1.2079478e-01
-8.6837751e-02
-7.4295626e-02
-6.7258506e-02
-5.2644369e-02
-2.8036833e-02
-5.0177938e-03
3.5495868e-04
7.1640358e-03
2.9577357e-02
6.4839457e-02
1.0088533e-01
1.2387682e-01
1.3666213e-01
1.3430695e-01
1.2558050e-01
1.1592728e-01
9.4697768e-02
7.5306544e-02
6.7896284e-02
7.6769089e-02
9.2175083e-02
9.7395495e-02
9.5672528e-02
8.8493761e-02
9.0308596e-02
9.8264148e-02
9.3096941e-02
8.0902119e-02
6.7066968e-02
6.3830647e-02
6.4312711e-02
4.7961606e-02
1.6599491e-02
-2.8649537e-02
-7.1718384e-02
-1.0736742e-01
-1.4720079e-01
-1.7959949e-01
-1.9380399e-01
-1.9002021e-01
-1.7666858e-01
-1.6223928e-01
-1.4700386e-01
-1.3181305e-01
-1.0810782e-01
-8.3544589e-02
-7.4349656e-02
-6.4208930e-02
-3.6762351e-02
8.9022413e-03
5.5999369e-02
8.8186383e-02
1.0429925e-01
1.0178880e-01
1.0034824e-01
1.0105084e-01
8.5029469e-02
5.4176287e-02
1.0029569e-02
-2.9148560e-02
-4.8772219e-02
-5.2214854e-02
-5.3695945e-02
-6.7900556e-02
-7.5442660e-02
-7.4972280e-02
-8.3702413e-02
-9.3887950e-02
-9.8046885e-02
-8.5125857e-02
-5.3259572e-02
-1.0325831e-02
3.3367086e-02
6.4927732e-02
9.8503733e-02
1.3569150e-01
1.6515715e-01
1.8824197e-01
2.0155818e-01
2.1656762e-01
2.3095753e-01
2.3485635e-01
2.3315945e-01
2.1701864e-01
1.8423009e-01
1.3589423e-01
7.9527614e-02
1.9828247e-02
-5.1196316e-02
-1.1575681e-01
-1.6447269e-01
-2.0540850e-01
-2.4098222e-01
-2.7416021e-01
-2.9436978e-01
-2.9168300e-01
-2.6647557e-01
-2.3108152e-01
-1.9747579e-01
-1.5422185e-01
-9.6210458e-02
-2.7999365e-02
3.7919671e-02
8.6261574e-02
1.2265889e-01
1.4702444e-01
1.6575723e-01
1.8222630e-01
1.8615360e-01
1.8559338e-01
1.7202923e-01
1.4157479e-01
1.0398543e-01
5.5385999e-02
8.1131322e-03
-3.0522144e-02
-6.0832187e-02
-8.5133956e-02
-1.1070543e-01
-1.2588099e-01
-1.2210064e-01
-9.8509766e-02
-6.7366557e-02
-4.4423228e-02
-2.6917104e-02
-1.6629451e-02
-2.8607758e-03
1.6129896e-02
2.5733398e-02
2.7508661e-02
2.0690432e-02
1.8560323e-02
2.2363995e-02
1.6703483e-02
4.8169279e-03
-9.6500882e-03
-1.0098988e-02
-2.6634553e-04
-2.7477249e-04
-7.6065597e-03
-2.0447965e-02
-2.2480124e-02
-1.5574828e-02
-1.7815929e-02
-2.4187824e-02
-3.2107689e-02
-2.7044154e-02
-9.2433729e-03
4.8023799e-03
1.6687028e-02
2.5960416e-02
4.7053087e-02
7.9911315e-02
9.6635569e-02
8.5607985e-02
5.6683523e-02
4.0009738e-02
3.7457520e-02
3.0700713e-02
1.8859483e-02
1.3706424e-03
-2.6221748e-03
6.2689751e-03
8.5336784e-03
4.0953404e-03
-7.6279505e-03
-7.6539105e-03
4.1745552e-03
8.9636597e-03
5.7802124e-03
-6.4661225e-03
-7.5405171e-03
2.7668015e-03
4.4640883e-03
-2.5895060e-03
-1.9120363e-02
-2.5851336e-02
-1.9702387e-02
-1.7871801e-02
-2.2784020e-02
-3.5532975e-02
-3.6182315e-02
-2.0838858e-02
-4.6422225e-03
7.3007642e-03
9.8506704e-03
2.2314751e-02
4.4845006e-02
5.8607623e-02
6.3284405e-02
5.7650188e-02
6.0261965e-02
7.3746108e-02
8.1937621e-02
8.1852944e-02
7.0246514e-02
6.5681855e-02
6.6653679e-02
5.3552790e-02
2.6624465e-02
-1.4470748e-02
-5.1015016e-02
-6.9083090e-02
-7.3482409e-02
-7.9103756e-02
-1.0135682e-01
-1.2298326e-01
-1.2802469e-01
-1.1644079e-01
-1.0414732e-01
-1.0916433e-01
-1.1587684e-01
-1.1057502e-01
-9.2501956e-02
-7.5444254e-02
-7.6107368e-02
-7.5373979e-02
-5.4550057e-02
-1.2784129e-02
3.1642406e-02
5.9543765e-02
7.4346736e-02
7.8866724e-02
9.0154922e-02
1.0629638e-01
1.0832605e-01
9.9803406e-02
8.3393549e-02
7.4967291e-02
7.1310207e-02
5.3246727e-02
2.7017517e-02
-1.8092211e-03
-1.8937648e-02
-2.7396157e-02
-4.4755258e-02
-6.5490965e-02
-8.4473901e-02
-8.9619371e-02
-8.2822222e-02
-7.8481653e-02
-7.5117547e-02
-7.1606922e-02
-5.5056955e-02
-3.1059885e-02
-1.8405935e-02
-1.2844412e-02
-9.9613248e-03
5.5058894e-03
3.0932620e-02
4.9235605e-02
5.9739998e-02
6.1300564e-02
6.8271050e-02
7.5474460e-02
6.8689118e-02
5.3652433e-02
3.1451423e-02
2.2289593e-02
2.5791929e-02
2.2001697e-02
1.1813228e-02
-5.7163018e-03
-1.3753024e-02
-1.0174052e-02
-1.1000297e-02
-1.6338184e-02
-2.6737759e-02
-2.3337186e-02
-5.7997895e-03
7.3540615e-03
1.4739712e-02
1.5403947e-02
2.8920270e-02
5.3800226e-02
6.9850062e-02
7.7788206e-02
7.7698204e-02
8.8293697e-02
1.1021409e-01
1.2564070e-01
1.3297115e-01
1.2953866e-01
1.3429072e-01
1.4806618e-01
1.5172654e-01
1.4373885e-01
1.2196618e-01
1.0361969e-01
8.9682742e-02
6.2634976e-02
2.2829090e-02
-3.0043275e-02
-8.1816683e-02
-1.1801678e-01
-1.3989769e-01
-1.5754575e-01
-1.8071787e-01
-2.0111691e-01
-2.1162592e-01
-2.1345146e-01
-2.1002369e-01
-2.0550388e-01
-2.0231045e-01
-2.0257935e-01
-2.0046421e-01
-1.9010145e-01
-1.7161047e-01
-1.4495647e-01
-1.1074661e-01
-6.9052504e-02
-3.3004810e-02
-1.5597828e-02
-1.0732420e-02
-1.5133431e-02
-2.0244884e-02
-1.7138821e-02
-6.6964108e-03
1.5209297e-02
5.1127074e-02
1.0355740e-01
1.5758604e-01
1.9580178e-01
2.1988213e-01
2.2003138e-01
2.0292718e-01
1.8540297e-01
1.6722410e-01
1.5147397e-01
1.3809937e-01
1.3163847e-01
1.2592951e-01
1.0495047e-01
6.3001566e-02
2.5068688e-04
-6.0210169e-02
-1.0334580e-01
-1.3450686e-01
-1.5090725e-01
-1.5004167e-01
-1.3216876e-01
-1.0396376e-01
-7.2319152e-02
-4.4650942e-02
-3.7339009e-02
-4.8066117e-02
-6.1141885e-02
-6.8930923e-02
-6.9391442e-02
-6.2078644e-02
-4.0651981e-02
-1.9428659e-02
-1.7489551e-02
-1.5109900e-02
5.9567285e-03
4.4571360e-02
8.4256224e-02
1.0942341e-01
1.2009957e-01
1.1513206e-01
1.1225919e-01
1.2367980e-01
1.4387268e-01
1.6034260e-01
1.5951393e-01
1.5820417e-01
1.5584445e-01
1.3475146e-01
9.4097245e-02
3.1901233e-02
-3.3391380e-02
-8.3768633e-02
-1.2014820e-01
-1.4623319e-01
-1.6749418e-01
-1.8233573e-01
-1.9196355e-01
-1.9933912e-01
-1.9954812e-01
-1.8995587e-01
-1.6974605e-01
-1.4035633e-01
-1.0460058e-01
-6.4214174e-02
-2.1737195e-02
2.7050684e-02
7.3251847e-02
1.0411301e-01
1.1678432e-01
1.0786885e-01
9.4881695e-02
9.2066947e-02
9.7529480e-02
9.5138936e-02
6.7886695e-02
3.3947710e-02
8.8264310e-03
-7.8002831e-03
-1.7192542e-02
-2.2933364e-02
-1.9797482e-02
-6.9295194e-03
1.0869831e-02
3.3476101e-02
6.0674773e-02
8.3166810e-02
7.7169107e-02
4.0113487e-02
-4.8093046e-03
-4.6691728e-02
-8.2119788e-02
-1.0769208e-01
-1.2172788e-01
-1.3015476e-01
-1.4080819e-01
-1.4806987e-01
-1.4704415e-01
-1.3617006e-01
-1.1899304e-01
-1.0270086e-01
-8.5274737e-02
-6.4233297e-02
-3.5564109e-02
-9.5048257e-03
-2.8783925e-04
1.4258529e-03
3.4999447e-03
1.5831086e-02
3.6928571e-02
5.4106070e-02
7.3573177e-02
9.8133230e-02
1.3053384e-01
1.6779755e-01
1.9956802e-01
2.2457979e-01
2.3470758e-01
2.3685056e-01
2.3528986e-01
2.1991325e-01
1.9175519e-01
1.5029132e-01
1.1228420e-01
7.7753572e-02
2.8268605e-02
-2.7579166e-02
-8.2287968e-02
-1.2838466e-01
-1.6522459e-01
-2.0076221e-01
-2.2931347e-01
-2.4676615e-01
-2.5221446e-01
-2.4366205e-01
-2.2083447e-01
-1.8712532e-01
-1.4718978e-01
-9.6492048e-02
-3.9490608e-02
1.4544350e-02
5.8059048e-02
8.2744476e-02
1.0606618e-01
1.3214864e-01
1.4772439e-01
1.5038006e-01
1.3689001e-01
1.2329480e-01
1.1330800e-01
9.4483054e-02
6.9286325e-02
3.9673457e-02
1.5852117e-02
-6.9853804e-04
-1.8612341e-02
-3.8102215e-02
-6.0782937e-02
-7.8642139e-02
-8.3343560e-02
-7.5116589e-02
-7.1082973e-02
-8.8623008e-02
-1.0794035e-01
-1.1225156e-01
-1.0384758e-01
-9.2748953e-02
-8.9433128e-02
-8.0976560e-02
-5.8869158e-02
-2.6649032e-02
2.4834248e-03
1.4538202e-02
2.8781749e-02
5.3387308e-02
7.7788710e-02
9.4349962e-02
9.5248072e-02
9.9960373e-02
1.0961334e-01
1.0670850e-01
8.9982077e-02
5.7943980e-02
2.8972364e-02
2.0508639e-02
3.4019985e-02
5.2396537e-02
5.6502853e-02
6.5602342e-02
7.9746931e-02
7.9644079e-02
6.4029385e-02
3.2050578e-02
2.5317385e-03
-1.5000461e-02
-2.8383566e-02
-4.8671266e-02
-8.7665957e-02
-1.2674274e-01
-1.4933031e-01
-1.5538362e-01
-1.5314674e-01
-1.5220005e-01
-1.4180611e-01
-1.1223239e-01
-6.3134120e-02
-7.2907150e-03
4.1833474e-02
8.5447792e-02
1.2043094e-01
1.5254700e-01
1.7633588e-01
1.7885684e-01
1.6717987e-01
1.4135706e-01
1.1053311e-01
7.5016586e-02
2.1282003e-02
-3.7815163e-02
-9.1792164e-02
-1.3638980e-01
-1.6585853e-01
-1.8150332e-01
-1.8481952e-01
-1.7713621e-01
-1.5386124e-01
-1.1884670e-01
-8.0462092e-02
-4.2984366e-02
-1.5111083e-02
1.2794101e-02
3.8685878e-02
4.7420874e-02
4.3671561e-02
3.1468780e-02
2.5891828e-02
3.1085916e-02
3.6776811e-02
4.5236022e-02
5.6534864e-02
8.0086823e-02
1.1057095e-01
1.3156771e-01
1.4201249e-01
1.3784105e-01
1.3429733e-01
1.3403659e-01
1.2221292e-01
1.0424333e-01
8.2532923e-02
6.8511646e-02
5.8768446e-02
3.6285006e-02
7.1894295e-04
-4.9364129e-02
-9.6566289e-02
-1.3128354e-01
-1.6271057e-01
-1.8359848e-01
-1.8659947e-01
-1.7020240e-01
-1.4078853e-01
-1.0596975e-01
-7.2538977e-02
-4.7807136e-02
-1.6734825e-02
1.7824794e-02
3.7947710e-02
4.6640735e-02
4.4362768e-02
4.2621899e-02
5.0243495e-02
6.3143733e-02
7.1966917e-02
6.6804116e-02
6.6437461e-02
7.0289506e-02
5.9589494e-02
3.4105404e-02
-7.4941746e-03
-4.8177067e-02
-7.5486375e-02
-9.4315087e-02
-1.0281022e-01
-1.0181940e-01
-8.7462063e-02
-5.7963247e-02
-1.7459800e-02
1.9863103e-02
4.0092420e-02
5.9549703e-02
7.4632100e-02
6.9878307e-02
4.9682125e-02
1.4317549e-02
-1.6726707e-02
-3.4319210e-02
-4.8481933e-02
-5.8672867e-02
-6.4585656e-02
-5.7573171e-02
-3.4522115e-02
4.5452742e-04
3.4374758e-02
5.2534619e-02
6.8081858e-02
7.9871808e-02
8.0464606e-02
7.2566150e-02
4.9419046e-02
2.2827010e-02
3.4269659e-03
-6.8775583e-03
-1.6587462e-02
-3.9810287e-02
-5.9302154e-02
-6.2856946e-02
-5.3480024e-02
-4.2932479e-02
-4.5294741e-02
-4.3673839e-02
-2.7405124e-02
-7.4187765e-04
2.4676311e-02
3.5113466e-02
4.2578891e-02
5.0951691e-02
5.9807183e-02
6.7075029e-02
6.3413185e-02
5.1511806e-02
2.9897212e-02
1.1390179e-02
-4.0796996e-03
-3.3301092e-02
-6.0675188e-02
-7.2178015e-02
-6.4870915e-02
-5.1819147e-02
-5.0932980e-02
-5.8568576e-02
-7.1760649e-02
-7.4999598e-02
-7.0568236e-02
-7.7081445e-02
-7.9710558e-02
-6.5125783e-02
-2.9884279e-02
1.3498293e-02
4.7868443e-02
7.2989617e-02
7.9013129e-02
7.6860259e-02
7.6351274e-02
6.7717688e-02
5.2190477e-02
2.9099461e-02
1.7007927e-02
1.7184340e-02
1.1113840e-02
-7.1161065e-04
-2.1667938e-02
-3.5909188e-02
-3.9283930e-02
-4.7300388e-02
-5.7304630e-02
-6.8914219e-02
-6.6613168e-02
-5.0176727e-02
-3.7568832e-02
-2.8440723e-02
-2.7942404e-02
-2.2652717e-02
-6.9411839e-03
6.3343195e-03
1.8466871e-02
2.1404517e-02
2.6241786e-02
4.1463106e-02
5.6439498e-02
7.2507894e-02
7.5357386e-02
6.9133357e-02
6.8893006e-02
6.8480931e-02
6.6196678e-02
5.8017692e-02
5.9111551e-02
7.5617667e-02
9.4211183e-02
1.1392914e-01
1.1489470e-01
9.6795214e-02
7.7444219e-02
5.7026674e-02
3.6756536e-02
1.1331201e-02
-6.6355500e-03
-1.3952260e-02
-2.4903201e-02
-3.8566563e-02
-5.5821065e-02
-5.8599021e-02
-4.6909741e-02
-4.0160643e-02
-3.8896788e-02
-4.4466884e-02
-3.7903384e-02
-1.8514496e-02
-5.9867815e-03
-1.0162420e-03
-4.2619365e-03
3.5246607e-03
2.2636743e-02
3.3727866e-02
3.6342721e-02
2.9222884e-02
3.1312488e-02
4.3303111e-02
4.6098204e-02
4.0277696e-02
2.6069016e-02
2.0906225e-02
2.8978204e-02
3.6604279e-02
3.8289338e-02
2.8114381e-02
2.3470474e-02
2.9538888e-02
3.3711136e-02
2.8392944e-02
5.2834610e-03
-1.7164941e-02
-2.4806633e-02
-2.3844423e-02
-3.0593925e-02
-5.9499838e-02
-9.0405676e-02
-1.0946045e-01
-1.2246979e-01
-1.3239310e-01
-1.4214635e-01
-1.4358678e-01
-1.2913624e-01
-9.9412538e-02
-6.8350471e-02
-5.0376165e-02
-3.2155725e-02
-5.0425713e-03
2.6379617e-02
4.8527738e-02
4.7648830e-02
4.3495432e-02
4.7778083e-02
5.3558801e-02
4.9737450e-02
2.4144340e-02
-4.3181374e-03
-1.7359208e-02
-1.6638383e-02
-1.6910681e-02
-3.1114155e-02
-4.2883673e-02
-3.7515690e-02
-1.5311923e-02
5.8831456e-03
7.7196564e-03
8.6709853e-03
1.7802744e-02
2.5823830e-02
2.3161085e-02
-5.5682321e-05
-2.3366180e-02
-3.1106293e-02
-2.7890565e-02
-2.8304933e-02
-4.7018977e-02
-6.4279230e-02
-6.7173188e-02
-6.2374245e-02
-6.1620643e-02
-7.6625078e-02
-8.7990582e-02
-8.3484601e-02
-7.2801680e-02
-6.7503535e-02
-7.2469626e-02
-6.8117749e-02
-4.9303361e-02
-2.4639692e-02
-6.3146343e-04
1.4945076e-02
3.4724253e-02
5.9147363e-02
8.4700163e-02
1.1190793e-01
1.3300365e-01
1.4970016e-01
1.5183154e-01
1.4537380e-01
1.4108286e-01
1.3169601e-01
1.3202208e-01
1.4308118e-01
1.5597753e-01
1.6972865e-01
1.7785593e-01
1.8020270e-01
1.6192663e-01
1.2473951e-01
8.0774996e-02
2.6418058e-02
-2.5365473e-02
-6.6612445e-02
-9.3429441e-02
-1.1557017e-01
-1.5048144e-01
-1.8019953e-01
-1.8776620e-01
-1.7278124e-01
-1.5368143e-01
-1.5035268e-01
-1.4906262e-01
-1.3838425e-01
-1.1412648e-01
-8.7798151e-02
-7.7188216e-02
-7.5914294e-02
-7.8604985e-02
-7.2197123e-02
-6.1201678e-02
-6.3395838e-02
-6.7961462e-02
-6.4587118e-02
-4.3374530e-02
-1.3520318e-02
6.8309531e-03
2.1381089e-02
3.0466449e-02
4.9129555e-02
7.8894355e-02
1.0404497e-01
1.2519210e-01
1.3526629e-01
1.4650875e-01
1.6694225e-01
1.8488769e-01
2.0055846e-01
1.9749303e-01
1.7709594e-01
1.5505659e-01
1.2862046e-01
9.7559587e-02
6.2117065e-02
4.0597481e-02
3.1488107e-02
1.5282800e-02
-7.5027031e-03
-3.6968776e-02
-5.6059637e-02
-6.5021684e-02
-8.1493278e-02
-9.5129260e-02
-9.7744961e-02
-8.5097537e-02
-6.8834309e-02
-6.7195504e-02
-7.0224681e-02
-6.7297366e-02
-4.9706523e-02
-2.8215655e-02
-2.2095390e-02
-2.7774727e-02
-4.2911908e-02
-5.3214430e-02
-5.9240326e-02
-7.7490166e-02
-9.7449797e-02
-1.0844499e-01
-1.0456859e-01
-9.3804211e-02
-8.9944861e-02
-8.6828239e-02
-7.7970611e-02
-5.4406647e-02
-2.4931537e-02
-5.2807983e-03
7.6001796e-03
1.4157816e-02
2.9138127e-02
5.0210207e-02
5.9972233e-02
5.9798610e-02
4.9991929e-02
4.9955892e-02
5.9921503e-02
6.0437364e-02
5.1631329e-02
3.3971274e-02
2.7974452e-02
3.3971405e-02
3.2023787e-02
2.2415511e-02
5.4903245e-03
1.4431895e-03
1.0956468e-02
1.4175791e-02
1.0286272e-02
-1.3131639e-03
-4.9212708e-04
1.3256074e-02
1.9839833e-02
1.9661581e-02
1.3407515e-02
2.0356235e-02
4.0246904e-02
5.2907267e-02
5.7911182e-02
5.3204792e-02
5.5401800e-02
6.6402281e-02
6.8817656e-02
6.2740843e-02
4.8320242e-02
4.3612693e-02
4.8528187e-02
4.4184887e-02
3.0000806e-02
4.8293802e-03
-1.2978002e-02
-1.9946942e-02
-3.1782355e-02
-5.0012387e-02
-7.6754817e-02
-9.4766812e-02
-9.9993069e-02
-1.0587462e-01
-1.1297084e-01
-1.2210817e-01
-1.1845460e-01
-9.8375932e-02
-7.3059012e-02
-4.9373628e-02
-3.5606668e-02
-1.5237780e-02
1.1086136e-02
2.5360668e-02
2.8436192e-02
2.0150484e-02
1.9829703e-02
2.8544695e-02
2.7847580e-02
1.8502620e-02
1.0743708e-03
-5.3203113e-03
3.8561926e-03
1.4381555e-02
2.2409961e-02
2.3521886e-02
3.5441129e-02
5.7916158e-02
7.3128599e-02
8.0351354e-02
7.8532122e-02
8.6862102e-02
1.0618689e-01
1.1830589e-01
1.2629827e-01
1.3089837e-01
1.4163412e-01
1.5443754e-01
1.5584347e-01
1.4713112e-01
1.2692124e-01
1.1309762e-01
1.0716608e-01
9.1570467e-02
6.5788512e-02
2.9956085e-02
-2.0597747e-03
-2.5438529e-02
-5.0333910e-02
-8.0776274e-02
-1.2058263e-01
-1.6022456e-01
-1.8946092e-01
-2.0817062e-01
-2.1745751e-01
-2.1815602e-01
-2.0963883e-01
-1.9286911e-01
-1.6948658e-01
-1.4228202e-01
-1.1447242e-01
-8.4733732e-02
-5.8161200e-02
-4.0707044e-02
-3.1323146e-02
-2.9769109e-02
-2.7670862e-02
-2.1544470e-02
-1.5551092e-02
-1.8499154e-02
-3.9011853e-02
-6.2649266e-02
-7.9529681e-02
-9.2940400e-02
-1.0051632e-01
-1.0044666e-01
-9.6123450e-02
-9.1264223e-02
-7.8621046e-02
-5.1974159e-02
-1.1782578e-02
4.5097137e-02
1.0283747e-01
1.4367733e-01
1.6716423e-01
1.7245391e-01
1.7778051e-01
1.8266975e-01
1.6977198e-01
1.4069865e-01
9.4008367e-02
4.4784639e-02
9.3741820e-03
-1.0038887e-02
-1.4892354e-02
-9.2462295e-03
1.0772579e-02
3.1698314e-02
4.1013123e-02
4.2604628e-02
3.5652736e-02
3.1617321e-02
3.3412391e-02
3.7919908e-02
4.5819670e-02
5.2671928e-02
7.1315045e-02
9.6171591e-02
1.0843200e-01
1.0532233e-01
8.3354111e-02
5.7907935e-02
3.7746533e-02
1.6297050e-02
-1.4061079e-02
-6.1983566e-02
-1.0951935e-01
-1.4489339e-01
-1.7328404e-01
-1.9848153e-01
-2.2501828e-01
-2.4335744e-01
-2.5163340e-01
-2.5692658e-01
-2.5351062e-01
-2.3688870e-01
-2.0475153e-01
-1.5861608e-01
-1.0151093e-01
-4.5781126e-02
-4.3466825e-03
3.9773730e-02
9.5285266e-02
1.5899648e-01
2.2390444e-01
2.7384848e-01
3.0604556e-01
3.0749473e-01
2.8002396e-01
2.4080711e-01
1.9214657e-01
1.5294775e-01
1.2153981e-01
8.1643281e-02
3.9452752e-02
-5.8044650e-04
-2.7125840e-02
-4.0592777e-02
-4.8786667e-02
-5.6777366e-02
-7.4757618e-02
-8.7715737e-02
-8.6711993e-02
-7.8090515e-02
-6.5781629e-02
-5.6096079e-02
-3.8649475e-02
-1.6789202e-02
-2.3216153e-03
4.8479463e-03
1.9135317e-03
5.2424494e-04
5.7210763e-03
1.6641763e-02
2.6040689e-02
2.0685311e-02
1.4302744e-02
1.1872561e-02
1.0705794e-02
6.3769994e-03
-1.2171970e-02
-2.9876827e-02
-3.6476806e-02
-3.3578469e-02
-3.1867561e-02
-4.5492191e-02
-5.5801262e-02
-4.8618788e-02
-2.6281402e-02
-2.2870674e-03
7.4579789e-03
1.8109258e-02
3.7279459e-02
6.0815462e-02
8.0507162e-02
8.4084146e-02
8.3922123e-02
8.4824731e-02
8.6424242e-02
8.4099828e-02
6.5485998e-02
4.8318881e-02
4.7490059e-02
6.0567073e-02
7.1938128e-02
6.5286393e-02
5.7550145e-02
5.6215261e-02
5.3760046e-02
4.0576457e-02
4.5244011e-03
-3.7700410e-02
-7.1894191e-02
-9.8906901e-02
-1.2613626e-01
-1.6447529e-01
-2.0335388e-01
-2.3006836e-01
-2.4344898e-01
-2.4587624e-01
-2.3971769e-01
-2.2252508e-01
-1.9252340e-01
-1.4918975e-01
-1.0351959e-01
-6.7715723e-02
-3.2979171e-02
4.7394267e-03
4.4476648e-02
7.6289244e-02
8.6637555e-02
9.0646233e-02
1.0023651e-01
1.1958718e-01
1.4034434e-01
1.4700487e-01
1.5433771e-01
1.6618131e-01
1.7496660e-01
1.7687703e-01
1.6466964e-01
1.4662079e-01
1.2011005e-01
8.4210589e-02
4.7506335e-02
8.7556050e-03
-2.4297374e-02
-4.7482782e-02
-5.9657830e-02
-7.1876254e-02
-1.0047544e-01
-1.2726890e-01
-1.3377082e-01
-1.1936162e-01
-9.7260965e-02
-8.1669388e-02
-6.4620271e-02
-4.1629942e-02
-9.8890303e-03
2.1164339e-02
3.5360374e-02
5.0234910e-02
6.8759840e-02
7.7310237e-02
7.3002919e-02
5.1914053e-02
2.4323610e-02
-1.4471619e-04
-1.2377067e-02
-2.2262692e-02
-4.9345884e-02
-7.8478853e-02
-9.4793398e-02
-9.3742357e-02
-8.5806871e-02
-8.6457108e-02
-8.7214172e-02
-7.9997922e-02
-5.7344127e-02
-2.9572722e-02
-1.4755392e-02
-1.1459006e-02
-1.9092983e-02
-1.9723091e-02
-1.3613426e-02
-1.9290409e-02
-2.1919018e-02
-1.1296924e-02
1.4989786e-02
4.8396002e-02
7.3547062e-02
9.0883863e-02
9.1709497e-02
8.6684992e-02
8.5476593e-02
7.7991267e-02
6.4940258e-02
4.5974995e-02
4.0144375e-02
4.7953792e-02
4.9623686e-02
4.4951823e-02
3.3217263e-02
3.3342302e-02
4.6366114e-02
5.3305024e-02
5.3043337e-02
3.8746840e-02
2.4808791e-02
1.7363828e-02
1.8229947e-03
-1.3205540e-02
-2.2291413e-02
-1.8174024e-02
-6.7572923e-03
-4.4968387e-03
-8.6205398e-03
-1.8437633e-02
-1.8300921e-02
-8.4422809e-03
-6.5913708e-03
-1.0439857e-02
-1.7707210e-02
-1.1777413e-02
3.6910349e-03
7.8364524e-03
4.3756430e-03
-2.9548535e-03
9.8074341e-04
1.2575390e-02
1.2454413e-02
-2.2564483e-04
-2.7217120e-02
-4.8857710e-02
-6.3029178e-02
-8.8309263e-02
-1.0651413e-01
-9.9859929e-02
-6.6732609e-02
-2.4912531e-02
5.8405797e-03
2.5574784e-02
3.2652058e-02
4.5542095e-02
6.5858369e-02
7.4917832e-02
7.2428911e-02
5.8429862e-02
5.2865086e-02
5.5576790e-02
4.6754961e-02
2.8034091e-02
8.8206877e-04
-1.6700400e-02
-2.5405975e-02
-4.3952196e-02
-6.5398798e-02
-8.2823984e-02
-8.4172460e-02
-7.7971976e-02
-8.5057655e-02
-9.1193773e-02
-8.1910775e-02
-5.0880440e-02
-1.0813143e-02
1.9082772e-02
3.8695029e-02
4.7771830e-02
6.5230274e-02
9.0846260e-02
1.0519559e-01
1.0807301e-01
9.8730365e-02
9.6931306e-02
1.0349001e-01
9.8828731e-02
8.3453977e-02
5.7215219e-02
3.8457575e-02
2.7277091e-02
4.3374142e-03
-2.8710987e-02
-6.9993570e-02
-1.0268511e-01
-1.2431464e-01
-1.4973926e-01
-1.6517714e-01
-1.5595335e-01
-1.2152976e-01
-7.9779646e-02
-4.8966884e-02
-3.0735494e-02
-2.6200626e-02
-1.6183020e-02
3.9780759e-03
2.0101902e-02
2.7578629e-02
2.2065269e-02
2.3863991e-02
3.8728960e-02
5.2474288e-02
5.9314151e-02
5.3539115e-02
5.5031428e-02
6.3799417e-02
6.0136684e-02
4.3899626e-02
1.4959600e-02
-5.9570470e-03
-1.8268411e-02
-4.1859133e-02
-6.0547561e-02
-5.8360642e-02
-3.1370340e-02
4.7850735e-03
3.0393471e-02
4.5598542e-02
5.0125682e-02
6.3395802e-02
8.5038932e-02
9.4589202e-02
9.2128676e-02
7.7521811e-02
6.9959422e-02
7.3116214e-02
7.1106962e-02
6.0514526e-02
3.7325606e-02
1.9687080e-02
9.0438311e-03
-1.1669501e-02
-4.4287554e-02
-9.0865884e-02
-1.3276865e-01
-1.5883107e-01
-1.7629444e-01
-1.8124018e-01
-1.7038649e-01
-1.4094882e-01
-1.0494889e-01
-7.6871018e-02
-5.8388124e-02
-5.2139462e-02
-4.0756038e-02
-1.6878394e-02
9.6364445e-03
3.1229186e-02
4.0232624e-02
5.5742268e-02
7.9631029e-02
9.5877293e-02
1.0186333e-01
9.4120663e-02
9.0608640e-02
9.0359115e-02
7.6899383e-02
5.1788428e-02
1.4298252e-02
-1.6005597e-02
-3.9225883e-02
-7.4351655e-02
-1.0197891e-01
-1.0303328e-01
-7.5968323e-02
-3.5008872e-02
4.0264915e-03
3.6626340e-02
5.7557390e-02
8.3189067e-02
1.1188707e-01
1.2714239e-01
1.3139710e-01
1.2476635e-01
1.2405269e-01
1.2696969e-01
1.1720015e-01
9.6261843e-02
6.2280589e-02
3.3486480e-02
1.9441672e-02
1.0957498e-02
-2.5725006e-03
-3.2395925e-02
-6.0470664e-02
-8.2250981e-02
-1.1051991e-01
-1.3711820e-01
-1.5515262e-01
-1.5845369e-01
-1.4390566e-01
-1.1488573e-01
-8.9049660e-02
-8.3731725e-02
-7.9085847e-02
-5.7295418e-02
-1.9571560e-02
1.6569951e-02
3.2823157e-02
4.8518889e-02
6.8884435e-02
8.0310439e-02
7.7727301e-02
5.5476744e-02
2.9080439e-02
7.0084329e-03
-1.3148998e-02
-3.9383393e-02
-8.3951070e-02
-1.2723876e-01
-1.5141413e-01
-1.5662349e-01
-1.5637306e-01
-1.6477199e-01
-1.6831514e-01
-1.5555346e-01
-1.2350935e-01
-8.6147545e-02
-6.1146949e-02
-2.9086988e-02
2.0387267e-02
8.1384683e-02
1.4562697e-01
2.0210662e-01
2.5078905e-01
2.7233934e-01
2.6715192e-01
2.5591725e-01
2.3948900e-01
2.1782853e-01
1.8226645e-01
1.4356596e-01
1.0958551e-01
6.8712665e-02
2.2549743e-02
-2.8712863e-02
-6.8635142e-02
-8.0323066e-02
-6.5525497e-02
-4.2653137e-02
-3.1267534e-02
-1.4055103e-02
9.4226037e-03
2.0471989e-02
2.3110919e-02
2.0074502e-02
2.5372794e-02
3.6105324e-02
3.3541694e-02
2.1324897e-02
3.1608581e-03
-7.7295137e-03
-1.7304141e-02
-4.5305347e-02
-7.6481257e-02
-9.6355285e-02
-1.0208745e-01
-1.0615495e-01
-1.2498926e-01
-1.5009344e-01
-1.7303378e-01
-1.8598110e-01
-1.8288053e-01
-1.6554701e-01
-1.4276583e-01
-1.2376882e-01
-9.6719369e-02
-6.5565879e-02
-4.5992163e-02
-2.8658632e-02
-5.0676333e-03
3.2533375e-02
7.3930602e-02
1.0052094e-01
1.1322940e-01
1.1331834e-01
1.2018678e-01
1.3358584e-01
1.3395184e-01
1.2081271e-01
9.3754225e-02
7.3276016e-02
6.0635831e-02
3.6443232e-02
5.3868111e-04
-4.7549497e-02
-8.7694697e-02
-9.9980513e-02
-8.5358531e-02
-6.2396712e-02
-4.9557462e-02
-2.7715991e-02
3.0223361e-03
2.3400468e-02
3.3794089e-02
3.4056706e-02
4.3874998e-02
6.3262195e-02
7.2524926e-02
7.2403597e-02
6.3362219e-02
6.4800493e-02
7.7214054e-02
8.1910392e-02
7.7842519e-02
6.2856559e-02
5.5930747e-02
5.6975672e-02
4.5597804e-02
2.1373965e-02
-1.6085082e-02
-4.7179752e-02
-5.5208187e-02
-4.3638147e-02
-2.9004735e-02
-2.8449215e-02
-2.3178339e-02
-6.6991108e-03
7.9692025e-03
1.8802026e-02
2.2214002e-02
2.6892197e-02
3.2229650e-02
3.1914154e-02
2.6832687e-02
1.2724623e-02
3.3038510e-03
3.3835687e-03
3.7251853e-03
-3.4384800e-03
-2.7277989e-02
-5.1975637e-02
-6.6088194e-02
-7.5298304e-02
-8.6769392e-02
-1.0840593e-01
-1.2798011e-01
-1.3414300e-01
-1.2869383e-01
-1.2272450e-01
-1.2722356e-01
-1.2841639e-01
-1.1623324e-01
-9.2404044e-02
-6.3202792e-02
-3.6827813e-02
-2.5784135e-03
3.2830475e-02
5.4190167e-02
6.1827595e-02
5.2991488e-02
4.4562577e-02
4.7890801e-02
5.9420593e-02
6.9565697e-02
6.5829348e-02
6.7600708e-02
7.5769197e-02
7.2455482e-02
5.8089203e-02
3.2653878e-02
1.4122202e-02
1.6861990e-02
3.9967150e-02
6.9021148e-02
8.7210018e-02
1.1080211e-01
1.3575104e-01
1.4503874e-01
1.4157316e-01
1.2436153e-01
1.0867255e-01
9.6979954e-02
7.9956581e-02
5.4708380e-02
1.3725808e-02
-2.5286351e-02
-4.7679912e-02
-5.6127212e-02
-6.6655313e-02
-9.6265176e-02
-1.2532017e-01
-1.3609111e-01
-1.3081110e-01
-1.2833128e-01
-1.4720124e-01
-1.6852283e-01
-1.7472872e-01
-1.6590508e-01
-1.5880169e-01
-1.7115035e-01
-1.8362485e-01
-1.7780890e-01
-1.5310110e-01
-1.2677247e-01
-1.1701433e-01
-1.0556521e-01
-7.5321512e-02
-2.4379980e-02
3.1840172e-02
7.6027935e-02
1.1500599e-01
1.4577462e-01
1.7449439e-01
2.0627138e-01
2.3081093e-01
2.4857648e-01
2.4162964e-01
2.1085976e-01
1.7577350e-01
1.3652245e-01
1.0046130e-01
6.7261118e-02
4.1765031e-02
2.4234946e-02
2.5001221e-03
-1.9681697e-02
-3.9928779e-02
-4.4741114e-02
-3.8341361e-02
-3.9917323e-02
-4.7210295e-02
-5.8491420e-02
-5.6380067e-02
-4.3214924e-02
-3.9349836e-02
-4.1145007e-02
-4.6169323e-02
-3.9001810e-02
-2.1665542e-02
-1.3097799e-02
-1.2749398e-02
-1.9801389e-02
-1.5049517e-02
1.0851230e-03
9.3244151e-03
9.7769437e-03
1.2671864e-03
2.1369717e-03
1.2851854e-02
1.4558526e-02
7.5520822e-03
-7.2541547e-03
-9.3832784e-03
1.0679953e-03
4.1877707e-03
1.8169734e-05
-1.1328593e-02
-1.0540882e-02
1.7130382e-03
5.7724378e-03
2.1690441e-03
-8.6842652e-03
-6.8958046e-03
7.0405422e-03
1.2818207e-02
1.0604299e-02
4.0188068e-04
1.7556559e-03
1.4415158e-02
1.8687734e-02
1.5644099e-02
4.2234306e-03
1.9068636e-03
1.0063003e-02
1.1090951e-02
5.1210536e-03
-8.7281876e-03
-1.1394041e-02
-2.1524994e-03
-1.4872811e-04
-5.3360518e-03
-1.7711460e-02
-1.7645050e-02
-4.7943894e-03
1.1724174e-03
-4.0964017e-04
-1.0270607e-02
-8.9891175e-03
3.3888450e-03
7.4200552e-03
3.7771791e-03
-7.3795382e-03
-6.4743193e-03
6.5889382e-03
1.2063093e-02
9.4816326e-03
-3.0426911e-03
-6.8046290e-03
1.1459184e-03
3.4886052e-03
-1.1143651e-03
-1.3825285e-02
-1.4376432e-02
-2.2101598e-03
2.8831318e-03
1.3964196e-04
-1.0915687e-02
-1.0440998e-02
1.6344208e-03
6.2412870e-03
3.8368845e-03
-5.9747906e-03
-3.7651915e-03
1.1576144e-02
2.1541572e-02
2.5096819e-02
2.0958921e-02
2.7679620e-02
4.4261942e-02
5.1904987e-02
5.2039352e-02
4.2559788e-02
4.0046272e-02
4.6633486e-02
4.5477264e-02
3.6077321e-02
1.7586829e-02
9.2812428e-03
1.5653741e-02
2.2008888e-02
2.2810079e-02
1.2174492e-02
8.4728320e-03
1.7532884e-02
2.7914040e-02
3.3197056e-02
2.5343623e-02
2.3036130e-02
2.8552200e-02
2.5174164e-02
9.2385222e-03
-2.3088261e-02
-5.2429390e-02
-6.4987854e-02
-6.6186354e-02
-7.0866633e-02
-9.4472131e-02
-1.1874774e-01
-1.2792113e-01
-1.2354143e-01
-1.2116299e-01
-1.3805717e-01
-1.5685718e-01
-1.6020990e-01
-1.4599407e-01
-1.2988165e-01
-1.2994764e-01
-1.2832117e-01
-1.0843098e-01
-6.8600465e-02
-2.3858471e-02
8.4790447e-03
3.8842308e-02
6.6206372e-02
9.0512973e-02
1.1444145e-01
1.3012482e-01
1.4280121e-01
1.5429888e-01
1.7688889e-01
2.0922574e-01
2.3305791e-01
2.4754358e-01
2.3583433e-01
1.9972125e-01
1.5798463e-01
1.0986740e-01
5.5344432e-02
-5.6056910e-03
-5.3745313e-02
-8.9528775e-02
-1.3326192e-01
-1.6643300e-01
-1.7065115e-01
-1.4590950e-01
-1.1127482e-01
-8.6841261e-02
-7.1509763e-02
-6.4550127e-02
-4.8851793e-02
-2.4993024e-02
-1.1475073e-02
-5.5442483e-03
-4.8693863e-03
6.8063423e-03
2.6789384e-02
3.5608860e-02
3.2770335e-02
1.6494951e-02
4.7979963e-03
-6.2146305e-05
-1.6328670e-02
-3.3170272e-02
-3.8867026e-02
-2.6572548e-02
-7.1685274e-03
1.9443788e-03
3.1406393e-03
-2.1290094e-03
3.8307150e-03
1.9348433e-02
2.4082017e-02
2.0871312e-02
1.3036914e-02
1.7325657e-02
3.1289001e-02
3.5189774e-02
2.9046430e-02
1.1749522e-02
8.9169160e-04
6.6964589e-04
-4.5446075e-03
-1.5904476e-02
-3.2940358e-02
-3.7140549e-02
-2.7446955e-02
-2.0014577e-02
-1.7791374e-02
-2.4122086e-02
-1.9154454e-02
-3.0875310e-03
4.0933592e-03
2.9067906e-03
-5.9639661e-03
-2.4322182e-03
1.3228629e-02
2.1002639e-02
2.0801526e-02
1.2576549e-02
1.6196035e-02
3.2186146e-02
4.1133875e-02
4.3160492e-02
3.8479809e-02
4.5525535e-02
6.3239024e-02
6.8529938e-02
5.7140606e-02
3.2287227e-02
1.7063802e-02
1.2356069e-02
9.0308544e-04
-1.7937531e-02
-4.6555321e-02
-6.6226997e-02
-6.3758346e-02
-4.5341271e-02
-2.4663794e-02
-1.6395132e-02
-1.8280434e-03
1.9722972e-02
2.9735364e-02
2.8391259e-02
1.5310439e-02
9.8238601e-03
1.6890765e-02
2.2319114e-02
2.0811934e-02
6.7255305e-03
-1.8766190e-04
5.0662782e-03
7.6692155e-03
2.0041581e-03
-1.7558233e-02
-3.2213217e-02
-3.4418065e-02
-3.4636024e-02
-4.0872709e-02
-6.2068559e-02
-7.8530878e-02
-7.7145470e-02
-6.4205783e-02
-5.2107637e-02
-5.3648556e-02
-5.0517846e-02
-3.3710677e-02
-1.1145498e-02
8.1217600e-03
1.3830096e-02
1.3476706e-02
7.9577130e-03
3.8526925e-03
1.2109704e-03
-1.2695873e-02
-2.3460155e-02
-2.0173212e-02
-1.0210933e-03
2.2848963e-02
3.6128790e-02
4.1759997e-02
3.8096948e-02
3.9682612e-02
4.8707097e-02
4.9126771e-02
4.6126062e-02
3.9915317e-02
3.9769503e-02
4.4884816e-02
4.0258926e-02
2.6685312e-02
4.8267662e-03
-5.7231874e-03
-5.0293470e-03
-1.2770619e-02
-2.4288797e-02
-3.5615410e-02
-3.2366441e-02
-1.8962447e-02
-1.5049779e-02
-1.8306395e-02
-2.6791334e-02
-2.3984805e-02
-1.2273207e-02
-1.0563892e-02
-1.5372508e-02
-2.4299450e-02
-2.0519590e-02
-5.6099734e-03
1.2619826e-03
3.7595401e-04
-7.5317933e-03
-2.9069302e-03
1.3578104e-02
2.1448812e-02
2.1156828e-02
1.3340967e-02
1.6119969e-02
2.8787957e-02
3.2314457e-02
2.6984252e-02
1.2630456e-02
8.7603758e-03
1.6551468e-02
1.7214696e-02
1.0798711e-02
-2.3001434e-03
-3.9125268e-03
4.5669948e-03
5.1717581e-03
-4.7656443e-04
-1.2326150e-02
-1.1598259e-02
6.0453632e-04
3.9405704e-03
-1.1261009e-03
-1.3706785e-02
-1.4079324e-02
-2.5816773e-03
1.0265902e-03
-2.5244778e-03
-1.2712686e-02
-1.0497429e-02
3.9443132e-03
1.1386964e-02
1.1336083e-02
3.1281805e-03
6.4653008e-03
2.1684598e-02
2.9362220e-02
2.9121026e-02
2.0497663e-02
2.2080473e-02
3.2645122e-02
3.3298952e-02
2.5120391e-02
8.0313915e-03
1.0369913e-03
4.7814395e-03
8.9777152e-04
-1.1829133e-02
-3.4842351e-02
-4.8553191e-02
-4.6661307e-02
-4.2167040e-02
-4.1451279e-02
-5.1405181e-02
-5.2622302e-02
-3.6557746e-02
-1.3797886e-02
7.0276305e-03
1.6635434e-02
3.4612498e-02
6.2610396e-02
8.2656337e-02
9.2629889e-02
9.0114411e-02
9.1887047e-02
9.6017573e-02
8.6863410e-02
6.6167936e-02
3.2546743e-02
5.3797268e-03
-6.3679856e-03
-1.2617142e-02
-2.3121600e-02
-4.8029160e-02
-6.7791365e-02
-7.1214318e-02
-6.6483927e-02
-6.5774241e-02
-8.1495568e-02
-9.9174365e-02
-1.0576883e-01
-9.7496658e-02
-8.7088728e-02
-9.2263836e-02
-1.0012789e-01
-1.0014707e-01
-8.7071073e-02
-7.1560749e-02
-7.1437126e-02
-6.9998707e-02
-5.1680963e-02
-1.3428958e-02
3.0341619e-02
6.1300347e-02
8.1233789e-02
8.8464210e-02
9.8475029e-02
1.1378001e-01
1.1811192e-01
1.1305225e-01
9.9296423e-02
9.4349302e-02
9.7797445e-02
9.1147838e-02
7.9030706e-02
6.2132568e-02
5.2485865e-02
4.9078126e-02
3.4862352e-02
1.0339354e-02
-2.4534382e-02
-5.1872977e-02
-7.2058083e-02
-1.0383483e-01
-1.3011370e-01
-1.3441968e-01
-1.1352469e-01
-8.3861970e-02
-6.5448655e-02
-5.3402437e-02
-4.3011303e-02
-1.9888524e-02
1.1147626e-02
3.0549747e-02
3.8863418e-02
3.6957528e-02
4.4271031e-02
6.0234389e-02
6.5578346e-02
6.0813575e-02
4.5686447e-02
3.9427704e-02
4.2238090e-02
3.4541359e-02
1.5702686e-02
-1.4385704e-02
-3.5535233e-02
-4.7744505e-02
-7.0478971e-02
-8.9166770e-02
-8.9637604e-02
-6.6266893e-02
-3.3167265e-02
-1.0079457e-02
2.6163571e-03
4.3249698e-03
1.5225753e-02
3.6487825e-02
4.8823430e-02
5.1821884e-02
4.4115052e-02
4.5095399e-02
5.6550151e-02
5.9521110e-02
5.3153033e-02
3.6238972e-02
2.7824695e-02
2.9095888e-02
2.1985859e-02
5.9859392e-03
-1.9826827e-02
-3.5480248e-02
-3.8879690e-02
-4.7441529e-02
-5.6204790e-02
-6.1029893e-02
-4.9289720e-02
-2.4352673e-02
-2.6440493e-03
1.2559794e-02
1.7845869e-02
3.1830899e-02
5.5552859e-02
7.2014395e-02
7.9862902e-02
7.7311496e-02
8.3945611e-02
9.9224648e-02
1.0346927e-01
9.6167248e-02
7.6380072e-02
6.3022341e-02
6.0943019e-02
5.5814195e-02
4.1466314e-02
1.1692782e-02
-1.4835888e-02
-3.7488279e-02
-7.3600368e-02
-1.1125917e-01
-1.3948400e-01
-1.5291633e-01
-1.5044260e-01
-1.3615538e-01
-1.2539464e-01
-1.3385315e-01
-1.4358159e-01
-1.3917078e-01
-1.2126137e-01
-1.0522696e-01
-1.0788697e-01
-1.1202458e-01
-1.0488999e-01
-8.6519344e-02
-6.8556282e-02
-6.6074148e-02
-6.3359536e-02
-4.4783641e-02
-3.9382454e-03
4.5738255e-02
8.5143051e-02
1.1976554e-01
1.3904437e-01
1.4234099e-01
1.4136331e-01
1.3274773e-01
1.1709395e-01
9.3271968e-02
7.9475604e-02
7.7981139e-02
7.1305413e-02
6.1721421e-02
5.0908196e-02
5.6099043e-02
7.5476003e-02
8.9526989e-02
9.8963215e-02
9.4013263e-02
8.3478758e-02
7.6811990e-02
6.4427691e-02
4.7769108e-02
2.1256567e-02
-3.3700091e-03
-2.1665942e-02
-4.7754416e-02
-7.9347609e-02
-1.1694994e-01
-1.4608557e-01
-1.5125166e-01
-1.3452986e-01
-1.1179498e-01
-9.9160449e-02
-7.8030882e-02
-4.8672369e-02
-3.0220212e-02
-2.0266340e-02
-1.6952906e-02
-2.5922733e-03
2.1417882e-02
3.5789445e-02
4.0229875e-02
3.4119768e-02
3.7130535e-02
5.0027169e-02
5.4074237e-02
4.9348753e-02
3.5137679e-02
3.0848158e-02
3.6723289e-02
3.3247746e-02
2.0168175e-02
-2.7612932e-03
-1.5292520e-02
-1.2599296e-02
-1.0075081e-02
-1.1911514e-02
-2.2972660e-02
-2.4706035e-02
-1.3497275e-02
-4.5920523e-03
5.0898993e-04
-6.7158645e-04
9.2474068e-03
2.9674228e-02
4.1946307e-02
4.4864169e-02
3.7191119e-02
3.8211063e-02
4.8912643e-02
5.1183412e-02
4.3701801e-02
2.4402559e-02
1.2472200e-02
1.0140763e-02
-3.0760869e-05
-2.0849741e-02
-5.5224721e-02
-8.2975761e-02
-8.6338766e-02
-6.8101021e-02
-4.5849980e-02
-3.7106903e-02
-2.2196197e-02
3.7468887e-03
2.5703408e-02
3.8444066e-02
3.6847467e-02
3.9859048e-02
5.2518901e-02
6.1900835e-02
6.2624338e-02
4.8558181e-02
3.9094242e-02
3.8776191e-02
3.3262102e-02
1.6636377e-02
-1.6962342e-02
-4.6388301e-02
-5.6933888e-02
-5.4953088e-02
-5.5701756e-02
-7.4289957e-02
-9.1938026e-02
-9.5130627e-02
-8.7946230e-02
-8.4343153e-02
-9.9543310e-02
-1.1446152e-01
-1.1184985e-01
-9.1650778e-02
-6.9519337e-02
-6.2983872e-02
-5.4393871e-02
-3.8900200e-02
-2.7178929e-02
-2.3521375e-02
-3.3802211e-02
-3.8672633e-02
-2.2155653e-02
1.4748186e-02
5.7824860e-02
9.1609990e-02
1.1665490e-01
1.2126093e-01
1.1309710e-01
1.0414296e-01
8.7372592e-02
7.1213487e-02
5.9126435e-02
5.8582569e-02
6.6111467e-02
6.6054686e-02
5.9045718e-02
4.4471647e-02
4.0462141e-02
4.8185728e-02
4.9364773e-02
4.4664618e-02
3.3143720e-02
3.1955515e-02
4.0576208e-02
3.9909313e-02
3.0450532e-02
1.2247421e-02
4.4543702e-03
7.5110314e-03
2.1758625e-03
-1.0996450e-02
-3.1343951e-02
-4.1111619e-02
-4.2546120e-02
-5.6314678e-02
-7.3284824e-02
-8.4450473e-02
-8.0682875e-02
-6.8509457e-02
-6.4106074e-02
-6.8016461e-02
-8.0947942e-02
-8.4589441e-02
-7.3283052e-02
-5.9791536e-02
-4.9118898e-02
-4.5995786e-02
-3.2241870e-02
-7.4761898e-03
1.0302909e-02
1.8650400e-02
1.5613309e-02
2.1490219e-02
3.7079982e-02
4.3175268e-02
3.9925773e-02
2.7523164e-02
2.6424642e-02
3.7963445e-02
4.3205538e-02
4.1477440e-02
3.1184529e-02
3.0273272e-02
3.8490540e-02
3.7731781e-02
2.9138354e-02
1.2940697e-02
9.0919018e-03
1.8657502e-02
2.2896647e-02
2.0844967e-02
1.0896908e-02
1.2182755e-02
2.6615240e-02
3.6256468e-02
3.9004067e-02
3.2221166e-02
3.4007070e-02
4.3997810e-02
4.4118990e-02
3.4923662e-02
1.5721897e-02
5.3072156e-03
1.2207403e-02
2.6372524e-02
3.8255835e-02
3.7622454e-02
4.3620848e-02
5.6209966e-02
5.5819391e-02
4.1734092e-02
1.3049456e-02
-1.4574029e-02
-3.1494322e-02
-4.0892266e-02
-5.3560076e-02
-8.3380721e-02
-1.1094115e-01
-1.2088260e-01
-1.1669595e-01
-1.1439759e-01
-1.3080171e-01
-1.4639790e-01
-1.4235110e-01
-1.1925276e-01
-9.5007236e-02
-8.7491124e-02
-7.8617376e-02
-5.7465564e-02
-2.8936860e-02
-4.3611405e-03
5.7113059e-04
-3.9065900e-03
-5.2116422e-03
4.8181643e-03
1.8137505e-02
1.8713836e-02
1.6399830e-02
1.6067794e-02
2.4165829e-02
3.7972032e-02
4.3933141e-02
4.5839892e-02
4.6311645e-02
6.0860962e-02
8.7533312e-02
1.0825508e-01
1.2347941e-01
1.2532390e-01
1.2591245e-01
1.3376978e-01
1.3646891e-01
1.3303876e-01
1.1494234e-01
9.2946281e-02
7.5791878e-02
5.3301493e-02
2.4928391e-02
-1.1089232e-02
-3.6575871e-02
-5.0578646e-02
-7.1824927e-02
-9.7265670e-02
-1.2351975e-01
-1.3550633e-01
-1.2938314e-01
-1.1660158e-01
-1.0421449e-01
-9.9042752e-02
-8.2664907e-02
-5.6282073e-02
-3.9390388e-02
-3.2503934e-02
-3.6866548e-02
-3.3049843e-02
-1.9055944e-02
-1.3039538e-02
-1.3741425e-02
-1.9907788e-02
-1.3406876e-02
5.6926241e-03
1.6063018e-02
1.4014833e-02
2.0181531e-03
1.8264456e-03
1.5001811e-02
2.4939517e-02
2.9905104e-02
2.7131924e-02
3.5918115e-02
5.6292573e-02
6.9105923e-02
7.4970040e-02
7.3868506e-02
8.5280274e-02
1.0970118e-01
1.2850681e-01
1.4074737e-01
1.4488765e-01
1.5847302e-01
1.7904775e-01
1.8826049e-01
1.8752520e-01
1.7567648e-01
1.6510154e-01
1.4783791e-01
1.0601195e-01
4.2150357e-02
-4.2738574e-02
-1.2644870e-01
-1.8973044e-01
-2.3458273e-01
-2.6783574e-01
-2.9575644e-01
-3.1256141e-01
-3.1367806e-01
-3.0050320e-01
-2.8847545e-01
-2.9337885e-01
-2.9957907e-01
-2.9172353e-01
-2.6920440e-01
-2.3177975e-01
-1.7981439e-01
-1.0970765e-01
-2.5429021e-02
6.4812717e-02
1.4776962e-01
2.1283199e-01
2.6441701e-01
2.9154420e-01
2.9084419e-01
2.7353028e-01
2.4472175e-01
2.1837911e-01
1.9056771e-01
1.5481436e-01
1.1412256e-01
6.3874404e-02
1.9226149e-02
-5.6057845e-03
-7.5243972e-03
2.6212254e-03
9.1392061e-03
1.5130776e-02
1.8235828e-02
2.6668917e-02
3.8934041e-02
4.0142692e-02
3.0975670e-02
1.0897023e-02
-1.7859563e-03
-6.2340216e-03
-2.0729663e-02
-4.1159208e-02
-6.4432562e-02
-7.8397810e-02
-8.4517066e-02
-9.5944965e-02
-9.9941636e-02
-8.6113872e-02
-5.2164886e-02
-1.3911268e-02
1.0162861e-02
2.0862477e-02
1.7604249e-02
1.9205984e-02
2.6892324e-02
2.1752489e-02
1.0203409e-02
-7.7132332e-04
9.6093845e-04
1.6120105e-02
3.3013557e-02
4.2017185e-02
3.3493997e-02
2.7462332e-02
2.5070208e-02
7.0062353e-03
-2.6966275e-02
-7.6915416e-02
-1.2265833e-01
-1.4629749e-01
-1.5016066e-01
-1.4512710e-01
-1.4173934e-01
-1.2673434e-01
-9.5862504e-02
-5.7660249e-02
-2.2570940e-02
-1.0881546e-03
2.6785324e-02
6.3605938e-02
9.2789633e-02
1.1229387e-01
1.1948316e-01
1.3475416e-01
1.5879994e-01
1.7214862e-01
1.7487718e-01
1.6687717e-01
1.6787652e-01
1.7867212e-01
1.8020894e-01
1.7116417e-01
1.5029768e-01
1.3608000e-01
1.2755894e-01
1.0535405e-01
6.7520821e-02
1.1483183e-02
-4.4016943e-02
-9.4807696e-02
-1.5585968e-01
-2.1600232e-01
-2.6419480e-01
-2.9773347e-01
-3.1480785e-01
-3.1599430e-01
-3.0098618e-01
-2.6978663e-01
-2.2527128e-01
-1.7479657e-01
-1.2068595e-01
-6.0443744e-02
4.8237393e-03
6.8341202e-02
1.1117619e-01
1.2813494e-01
1.2616921e-01
1.0608324e-01
8.5486922e-02
7.4403361e-02
7.1565608e-02
6.6885834e-02
4.6628455e-02
3.0514153e-02
3.7054602e-02
6.6391198e-02
1.0002803e-01
1.1833674e-01
1.2246729e-01
1.0900550e-01
9.1479214e-02
7.2861690e-02
3.8173839e-02
-6.7714489e-04
-3.4987700e-02
-5.9584847e-02
-8.1043823e-02
-1.1363107e-01
-1.4347976e-01
-1.5718978e-01
-1.5059102e-01
-1.3763220e-01
-1.3674832e-01
-1.3066487e-01
-1.0344828e-01
-5.5292866e-02
-3.7723744e-03
3.2479656e-02
5.5564406e-02
6.6988054e-02
8.5494966e-02
1.1068383e-01
1.2358119e-01
1.2437149e-01
1.1248488e-01
1.0807727e-01
1.1218080e-01
1.0532589e-01
8.7185974e-02
5.7470937e-02
3.6818844e-02
2.6429532e-02
6.1586718e-03
-2.1095792e-02
-5.2704752e-02
-7.4017028e-02
-8.8948951e-02
-1.1690751e-01
-1.3790539e-01
-1.3191832e-01
-9.7631301e-02
-5.3724278e-02
-2.0583864e-02
1.5441716e-03
1.2276023e-02
3.0345316e-02
5.5932709e-02
7.0283570e-02
7.3809494e-02
6.6102251e-02
6.6919198e-02
7.7022504e-02
7.7065464e-02
6.6444376e-02
4.4286293e-02
3.0960898e-02
2.6623437e-02
1.0282570e-02
-1.7700654e-02
-5.6462995e-02
-8.6948994e-02
-1.0906530e-01
-1.4095355e-01
-1.6456167e-01
-1.6244732e-01
-1.3246546e-01
-9.1747199e-02
-5.9212246e-02
-3.5865813e-02
-2.2394996e-02
1.7418797e-03
3.7508980e-02
6.6365640e-02
8.7539656e-02
9.9688495e-02
1.2263561e-01
1.5625275e-01
1.8112614e-01
1.9847783e-01
2.0902595e-01
2.1766396e-01
2.0945537e-01
1.7852404e-01
1.3825441e-01
8.7997552e-02
4.3626912e-02
6.1084822e-03
-3.6294650e-02
-7.6283198e-02
-1.1004362e-01
-1.2899442e-01
-1.2965170e-01
-1.1665169e-01
-1.0506112e-01
-1.1101736e-01
-1.1825551e-01
-1.1169150e-01
-8.9898540e-02
-6.7220572e-02
-6.0995483e-02
-6.1696623e-02
-6.0307078e-02
-4.8039969e-02
-3.5499617e-02
-4.2608914e-02
-5.6469538e-02
-6.4571348e-02
-5.9738828e-02
-5.3441152e-02
-6.4421298e-02
-8.0636595e-02
-9.1076454e-02
-8.7833745e-02
-6.7151201e-02
-3.3649638e-02
-8.9928446e-04
1.7215540e-02
4.0798136e-02
7.0324817e-02
8.6435970e-02
9.0248739e-02
8.3305443e-02
8.6480547e-02
9.9548971e-02
1.0213371e-01
9.5196007e-02
7.9522794e-02
7.4053335e-02
7.8523143e-02
7.3381736e-02
5.8259313e-02
3.2372813e-02
1.5198256e-02
7.7849442e-03
-8.9367764e-03
-3.5121067e-02
-7.0691143e-02
-9.6021044e-02
-9.7723827e-02
-8.1978044e-02
-6.2809789e-02
-5.4068888e-02
-3.5918235e-02
-8.3259120e-03
9.1938514e-03
1.6479274e-02
1.3150923e-02
1.9113166e-02
3.4493322e-02
3.9352475e-02
3.4372060e-02
2.0138437e-02
1.5956352e-02
2.3186387e-02
2.3356372e-02
1.5649718e-02
-4.9451675e-04
-5.7469197e-03
-3.6822089e-04
-4.0824989e-03
-1.7234994e-02
-4.0099804e-02
-5.2189851e-02
-4.4877692e-02
-3.0309257e-02
-1.6698650e-02
-1.2111512e-02
2.8973390e-03
3.0276646e-02
5.2700812e-02
6.7639934e-02
7.1990012e-02
8.6103408e-02
1.1070728e-01
1.2596823e-01
1.3131791e-01
1.2547822e-01
1.2656541e-01
1.3552986e-01
1.3540230e-01
1.2389286e-01
9.7025410e-02
7.1998606e-02
5.4043517e-02
3.2306183e-02
1.8807053e-03
-4.5237312e-02
-9.1842878e-02
-1.2062752e-01
-1.3247159e-01
-1.3862850e-01
-1.5084055e-01
-1.5809675e-01
-1.5288473e-01
-1.3882594e-01
-1.2547103e-01
-1.2294030e-01
-1.1901411e-01
-1.0248576e-01
-7.3978484e-02
-4.7893203e-02
-3.9837604e-02
-3.6266573e-02
-2.7482612e-02
-1.5039817e-02
-1.0344444e-02
-2.7420647e-02
-4.7664669e-02
-5.3686445e-02
-4.5411600e-02
-4.0283035e-02
-5.6795431e-02
-7.4482806e-02
-7.3955225e-02
-5.5592995e-02
-3.4882475e-02
-2.7434409e-02
-2.1773964e-02
-7.7761141e-03
2.1162175e-02
5.4556181e-02
7.4910070e-02
8.4432833e-02
8.0419172e-02
7.6993113e-02
7.8092613e-02
6.9438905e-02
5.5901979e-02
4.0520635e-02
3.7465765e-02
4.3891304e-02
4.1670870e-02
3.5569688e-02
2.8877633e-02
3.6547038e-02
5.5539117e-02
6.7051277e-02
7.2389685e-02
6.4743768e-02
5.5569862e-02
5.2004446e-02
4.2194340e-02
2.6944357e-02
6.1088614e-03
-1.9760308e-03
1.9106853e-03
-1.7452044e-03
-1.2101527e-02
-2.9071295e-02
-3.3749062e-02
-2.6253712e-02
-2.6146778e-02
-3.2326294e-02
-4.4683761e-02
-4.5521823e-02
-3.5178483e-02
-3.2875467e-02
-3.8458540e-02
-5.1780903e-02
-5.3667290e-02
-3.7743966e-02
-1.6968648e-02
9.6174364e-03
2.9127724e-02
3.9929819e-02
4.8350432e-02
4.8674776e-02
4.0900947e-02
2.4207804e-02
1.7967080e-02
2.3068536e-02
2.1178083e-02
1.3190826e-02
-2.1023326e-03
-6.5653992e-03
3.6882349e-04
2.3565507e-04
-6.0736467e-03
-1.7602118e-02
-1.4817162e-02
1.5562186e-03
1.1935679e-02
1.5991088e-02
1.2151891e-02
1.7532962e-02
3.0796424e-02
3.2910693e-02
2.4160877e-02
4.6281827e-03
-4.9627086e-03
-3.1448875e-03
-8.6571514e-03
-2.1926323e-02
-4.4121368e-02
-5.5533143e-02
-4.9962210e-02
-4.1203848e-02
-3.5033183e-02
-3.7495868e-02
-2.9225311e-02
-9.5835493e-03
3.0424237e-03
7.4254859e-03
2.0812263e-03
6.8140897e-03
2.1881104e-02
2.8813786e-02
2.7465765e-02
1.7033077e-02
1.7589420e-02
2.8850396e-02
3.1364017e-02
2.5467782e-02
8.8032420e-03
-1.5628534e-03
2.4878375e-03
1.0605936e-02
1.6635301e-02
1.3757201e-02
1.9836872e-02
3.2787680e-02
3.4349427e-02
2.5402312e-02
5.2542588e-03
-6.4383944e-03
-7.4526444e-03
-1.3986960e-02
-2.8182082e-02
-5.3483233e-02
-6.9856107e-02
-6.6548278e-02
-5.2863900e-02
-3.9361687e-02
-3.6872583e-02
-2.8177757e-02
-1.4027220e-02
-9.2836685e-03
-1.2449762e-02
-2.5983929e-02
-4.3461809e-02
-5.9474207e-02
-6.2687982e-02
-5.5645716e-02
-5.3750420e-02
-5.1391282e-02
-4.3860749e-02
-1.8171231e-02
2.0316819e-02
5.2783170e-02
8.1018268e-02
9.0836401e-02
8.5073096e-02
7.8528035e-02
6.7444650e-02
5.8342258e-02
5.2658990e-02
5.8960067e-02
7.6077495e-02
8.9218567e-02
1.0147098e-01
9.9780031e-02
8.4360021e-02
6.7144634e-02
4.3282224e-02
1.6912968e-02
-9.2942445e-03
-2.1501322e-02
-2.2169349e-02
-2.9656229e-02
-3.6853661e-02
-3.9213935e-02
-2.7303932e-02
-5.4114922e-03
9.8794684e-03
1.9309935e-02
2.2512847e-02
3.5589140e-02
5.6439308e-02
6.5315803e-02
7.5862498e-02
1.0117798e-01
1.4544348e-01
1.9409453e-01
2.2697901e-01
2.4709845e-01
2.5724262e-01
2.7092884e-01
2.8401405e-01
2.7391408e-01
2.4805390e-01
2.1994345e-01
1.9501905e-01
1.6760717e-01
1.2702800e-01
