-6.9878426e-02
-4.9569092e-02
-2.9040287e-02
-9.6376510e-03
5.7890731e-03
1.4423386e-02
1.6824131e-02
1.5829198e-02
1.4453380e-02
1.6129435e-02
2.2767075e-02
3.3276720e-02
4.5022934e-02
5.5948415e-02
6.5607770e-02
7.5132944e-02
8.6179813e-02
9.9192417e-02
1.1373603e-01
1.2803641e-01
1.3511456e-01
1.2422081e-01
8.9765465e-02
3.7560907e-02
-1.6606414e-02
-5.5932479e-02
-7.2184825e-02
-6.5061057e-02
-3.8948859e-02
-1.6968862e-03
4.0323371e-02
8.4559691e-02
1.3174896e-01
1.8531709e-01
2.4732900e-01
3.0874549e-01
3.4203619e-01
3.1523713e-01
2.2311860e-01
9.9155711e-02
-1.2272119e-02
-8.9072607e-02
-1.3315959e-01
-1.5542505e-01
-1.6604395e-01
-1.7233142e-01
-1.7914862e-01
-1.8843344e-01
-1.9931202e-01
-2.0895583e-01
-2.1306778e-01
-2.0722534e-01
-1.9002467e-01
-1.6358788e-01
-1.3176029e-01
-9.8714960e-02
-6.7325299e-02
-3.9626748e-02
-1.6654421e-02
2.6527384e-03
2.0501071e-02
3.8987497e-02
5.9086659e-02
7.9808745e-02
9.6767697e-02
1.0383740e-01
9.8018178e-02
7.9964020e-02
5.1793387e-02
1.8522271e-02
-1.0864391e-02
-2.7215395e-02
-2.6838448e-02
-1.1045013e-02
1.8217295e-02
5.8344873e-02
1.0695389e-01
1.6336836e-01
2.2882783e-01
3.0168776e-01
3.6468315e-01
3.8416527e-01
3.3450826e-01
2.2557467e-01
9.8265748e-02
-9.2932760e-03
-8.4185277e-02
-1.3187829e-01
-1.6173065e-01
-1.8148513e-01
-1.9760137e-01
-2.1384865e-01
-2.2848421e-01
-2.3638335e-01
-2.3368256e-01
-2.2030724e-01
-1.9881368e-01
-1.7173184e-01
-1.4318106e-01
-1.1967907e-01
-1.0394270e-01
-9.0045071e-02
-6.8838966e-02
-3.5792471e-02
7.5408200e-03
5.5805886e-02
1.0321424e-01
1.4429241e-01
1.7338897e-01
1.8558998e-01
1.7921184e-01
1.5833545e-01
1.3049105e-01
1.0290451e-01
7.9800587e-02
6.0706720e-02
4.0733113e-02
1.4762550e-02
-1.7170315e-02
-5.0847701e-02
-8.1507930e-02
-1.0595436e-01
-1.2291707e-01
-1.3182409e-01
-1.3360356e-01
-1.3044042e-01
-1.2257625e-01
-1.0852856e-01
-8.6648466e-02
-5.6146347e-02
-1.8351013e-02
2.3335976e-02
6.4698176e-02
1.0229090e-01
1.3397525e-01
1.5986182e-01
1.8140473e-01
1.9901960e-01
2.1118420e-01
2.1377307e-01
1.9963552e-01
1.6413436e-01
1.1275571e-01
5.8145155e-02
1.1930157e-02
-1.9815820e-02
-3.7431486e-02
-4.5215961e-02
-4.8395121e-02
-5.0818361e-02
-5.3576772e-02
-5.5205311e-02
-5.3662409e-02
-4.9608046e-02
-4.6404987e-02
-4.7217022e-02
-5.3763352e-02
-6.5431019e-02
-8.0112045e-02
-9.8062799e-02
-1.1863521e-01
-1.3563461e-01
-1.4415785e-01
-1.4374033e-01
-1.3539922e-01
-1.2134398e-01
-1.0342479e-01
-8.3442814e-02
-6.2544844e-02
-3.9892809e-02
-1.7658102e-02
-2.6987518e-03
1.1787773e-03
-7.0193491e-04
2.2736683e-03
1.7028543e-02
4.3760687e-02
7.9606715e-02
1.1934684e-01
1.5244275e-01
1.6484256e-01
1.4869236e-01
1.1177585e-01
7.2752910e-02
4.6183776e-02
3.6531180e-02
4.1504001e-02
5.4387874e-02
6.3552404e-02
5.5447281e-02
2.4694687e-02
-1.8797475e-02
-5.7023674e-02
-7.8691049e-02
-8.3464363e-02
-7.6347579e-02
-6.4084490e-02
-5.4068071e-02
-5.2363353e-02
-6.0188368e-02
-7.3153516e-02
-8.4666425e-02
-8.9048453e-02
-8.3559174e-02
-6.8066442e-02
-4.5830380e-02
-2.4954039e-02
-1.3095256e-02
-1.0525100e-02
-9.6797101e-03
-1.7456567e-03
1.7796976e-02
4.7599571e-02
8.1571210e-02
1.1494645e-01
1.4683600e-01
1.7650792e-01
1.9945716e-01
2.0462140e-01
1.7880975e-01
1.2048822e-01
4.7250275e-02
-1.5822283e-02
-5.3550682e-02
-6.6838783e-02
-6.5169114e-02
-5.6277894e-02
-4.4905127e-02
-3.3591060e-02
-2.3364894e-02
-1.7009475e-02
-1.8204633e-02
-2.7615278e-02
-3.9898279e-02
-4.6058076e-02
-4.1140468e-02
-2.6952956e-02
-7.5881425e-03
1.2770468e-02
2.8195472e-02
3.0801200e-02
1.5216953e-02
-1.4383238e-02
-4.5443476e-02
-6.6900628e-02
-7.5121539e-02
-7.1878978e-02
-6.1272108e-02
-4.7911926e-02
-3.5728472e-02
-2.7227077e-02
-2.2392979e-02
-1.9528699e-02
-1.6574063e-02
-1.1265777e-02
-2.3008936e-03
1.0024257e-02
2.4597036e-02
3.9620384e-02
5.2558483e-02
5.9702915e-02
5.6346002e-02
4.0737069e-02
1.7413916e-02
-5.9876792e-03
-2.3651778e-02
-3.3377947e-02
-3.6097247e-02
-3.4335771e-02
-3.2130313e-02
-3.5358873e-02
-4.6934763e-02
-6.1308354e-02
-6.7996912e-02
-5.9604164e-02
-3.5662201e-02
-2.9344866e-04
4.1734759e-02
8.4592308e-02
1.1835992e-01
1.3112833e-01
1.1712439e-01
8.2932560e-02
4.4982151e-02
1.7824952e-02
6.0873006e-03
7.4234510e-03
1.7241876e-02
3.0318801e-02
3.9967643e-02
3.7109184e-02
1.5406802e-02
-2.0694947e-02
-5.7839773e-02
-8.3736696e-02
-9.3049454e-02
-8.8056436e-02
-7.5278471e-02
-6.0343285e-02
-4.5415624e-02
-2.9431862e-02
-1.0645635e-02
1.1751641e-02
3.6638234e-02
5.8758194e-02
6.8579003e-02
5.7781305e-02
2.8212981e-02
-6.0994677e-03
-2.8493279e-02
-3.0757725e-02
-1.4794042e-02
1.2679787e-02
4.4234793e-02
7.2735269e-02
9.1312033e-02
9.3418072e-02
7.5803594e-02
4.2570193e-02
1.9752075e-03
-3.7320839e-02
-6.7648623e-02
-8.6739999e-02
-9.6908831e-02
-1.0081326e-01
-9.9270859e-02
-9.0643732e-02
-7.3248775e-02
-4.7338579e-02
-1.5506873e-02
1.8708130e-02
5.2698501e-02
8.5375492e-02
1.1667902e-01
1.4594940e-01
1.6942075e-01
1.7965708e-01
1.7026409e-01
1.4030839e-01
9.5309352e-02
4.4581123e-02
-2.3757114e-03
-3.8093977e-02
-6.0712749e-02
-7.3968408e-02
-8.3037017e-02
-9.1231610e-02
-1.0045937e-01
-1.1243209e-01
-1.2657726e-01
-1.3959419e-01
-1.4670235e-01
-1.4353092e-01
-1.2933970e-01
-1.0705151e-01
-8.1006275e-02
-5.5578817e-02
-3.4196368e-02
-1.8740209e-02
-8.9045703e-03
-2.4458202e-03
3.3074446e-03
1.0288824e-02
1.9667741e-02
3.1967420e-02
4.7287797e-02
6.6125987e-02
8.7958365e-02
1.1104597e-01
1.3365151e-01
1.5031959e-01
1.4988393e-01
1.2332862e-01
7.5137442e-02
2.2527680e-02
-1.7042884e-02
-3.4938081e-02
-3.2579089e-02
-1.6424807e-02
5.2577989e-03
2.1043994e-02
2.0778762e-02
4.3017534e-03
-1.9342988e-02
-4.0523232e-02
-5.3363944e-02
-5.8092882e-02
-6.0437741e-02
-6.6427239e-02
-7.7223278e-02
-8.7395925e-02
-9.0259834e-02
-8.2140259e-02
-6.2219763e-02
-3.3691999e-02
-4.6788357e-03
1.4799337e-02
1.9391873e-02
1.2585595e-02
4.8222604e-03
5.5063458e-03
1.7111928e-02
3.7577299e-02
6.3249778e-02
9.2545451e-02
1.2482200e-01
1.5154636e-01
1.5570160e-01
1.2491333e-01
6.7491616e-02
8.3530285e-03
-3.3239847e-02
-5.2928609e-02
-5.4493764e-02
-4.4871981e-02
-3.4054245e-02
-3.2224930e-02
-4.3526410e-02
-6.3093050e-02
-8.0251166e-02
-8.7450187e-02
-8.4515830e-02
-7.3899249e-02
-5.8405468e-02
-4.2262201e-02
-3.2294771e-02
-3.4994149e-02
-4.8505265e-02
-6.2103027e-02
-6.5071828e-02
-5.3072558e-02
-2.8119469e-02
3.9495289e-03
3.7290866e-02
6.8503347e-02
9.6420073e-02
1.2156563e-01
1.4483213e-01
1.6686242e-01
1.8726902e-01
2.0206779e-01
2.0473527e-01
1.9001456e-01
1.5651418e-01
1.0867959e-01
5.5770008e-02
6.8429119e-03
-3.3268308e-02
-6.4232657e-02
-8.8135618e-02
-1.0718612e-01
-1.2279465e-01
-1.3549478e-01
-1.4489733e-01
-1.4958185e-01
-1.4796538e-01
-1.3967092e-01
-1.2610265e-01
-1.0996456e-01
-9.4228632e-02
-8.1044659e-02
-7.0916595e-02
-6.3057996e-02
-5.5615147e-02
-4.6590457e-02
-3.5742620e-02
-2.3856978e-02
-1.1820254e-02
-5.1173756e-04
9.9700772e-03
1.8720114e-02
2.2801558e-02
2.0665321e-02
1.4266066e-02
6.2961269e-03
2.2358809e-06
-1.4631599e-03
2.2147024e-03
1.0768660e-02
2.3114450e-02
3.8891326e-02
6.1068504e-02
9.0336381e-02
1.2423896e-01
1.6078261e-01
1.9926004e-01
2.3682758e-01
2.6076848e-01
2.4997464e-01
1.9356189e-01
1.0599783e-01
1.7030722e-02
-5.0419305e-02
-9.0300700e-02
-1.0811514e-01
-1.1242454e-01
-1.1109945e-01
-1.1025088e-01
-1.1256832e-01
-1.1630455e-01
-1.1800304e-01
-1.1587104e-01
-1.0960464e-01
-9.9043905e-02
-8.3679549e-02
-6.3522266e-02
-4.0101700e-02
-1.6234228e-02
3.0203941e-03
1.1183068e-02
6.0403207e-03
-7.2115061e-03
-2.0423287e-02
-2.7443803e-02
-2.5580199e-02
-1.6168730e-02
-5.7785977e-03
-4.9348883e-03
-1.8993203e-02
-4.0894447e-02
-5.7678128e-02
-6.1420897e-02
-5.0785102e-02
-2.8000760e-02
1.0401276e-03
2.8079210e-02
4.8323296e-02
6.4036221e-02
8.1375310e-02
1.0526538e-01
1.3611013e-01
1.6585143e-01
1.7785754e-01
1.5929262e-01
1.1390791e-01
5.9958351e-02
1.6505676e-02
-7.1011018e-03
-1.1309280e-02
-2.0435944e-03
1.3175890e-02
2.8418480e-02
4.2063788e-02
5.5975929e-02
7.3068168e-02
9.5222814e-02
1.1763735e-01
1.2463931e-01
9.9157529e-02
4.1272574e-02
-2.8513211e-02
-8.6635085e-02
-1.2147052e-01
-1.3316549e-01
-1.2876135e-01
-1.1927015e-01
-1.1495077e-01
-1.2054798e-01
-1.3333597e-01
-1.4563315e-01
-1.5136429e-01
-1.4870161e-01
-1.3880280e-01
-1.2542021e-01
-1.1203841e-01
-9.9575837e-02
-8.7205167e-02
-7.4051968e-02
-6.1208880e-02
-5.2082414e-02
-5.1022326e-02
-5.9276808e-02
-7.0987641e-02
-7.5491170e-02
-6.5298794e-02
-3.9822233e-02
-1.7569691e-03
4.4341643e-02
9.0576245e-02
1.2778326e-01
1.5253268e-01
1.7061731e-01
1.9157052e-01
2.2139941e-01
2.6059848e-01
3.0321020e-01
3.2933547e-01
3.0788362e-01
2.2342278e-01
9.7858490e-02
-2.4811154e-02
-1.1273320e-01
-1.6013299e-01
-1.7620514e-01
-1.7271528e-01
-1.6100385e-01
-1.4934129e-01
-1.4075313e-01
-1.3436519e-01
-1.2668614e-01
-1.1458815e-01
-9.5815369e-02
-6.7128956e-02
-2.7264408e-02
2.2185002e-02
7.9496951e-02
1.4121088e-01
1.9657333e-01
2.2443477e-01
2.0518676e-01
1.4164678e-01
6.0378705e-02
-9.2280247e-03
-5.2630193e-02
-7.0918316e-02
-7.2398140e-02
-6.5857413e-02
-5.8385356e-02
-5.3720162e-02
-5.0930393e-02
-4.6998666e-02
-4.0046029e-02
-2.9350736e-02
-1.4701327e-02
3.5467833e-03
2.5406537e-02
5.2043528e-02
8.4026326e-02
1.1877046e-01
1.4880485e-01
1.6141362e-01
1.4559290e-01
1.0286989e-01
4.7773269e-02
-3.0927078e-03
-4.0139503e-02
-6.2774852e-02
-7.5977823e-02
-8.4507244e-02
-9.2719454e-02
-1.0247142e-01
-1.0972076e-01
-1.1027703e-01
-1.0375903e-01
-9.1960391e-02
-7.7231299e-02
-6.3539826e-02
-5.7509001e-02
-6.2821049e-02
-7.4870270e-02
-8.4260403e-02
-8.3339930e-02
-6.9465504e-02
-4.5633068e-02
-1.9020466e-02
2.1979877e-03
1.3829535e-02
1.8022462e-02
2.0470059e-02
2.6512018e-02
3.7966005e-02
5.2883192e-02
6.7811266e-02
7.9951542e-02
8.8469542e-02
9.3799026e-02
9.6889837e-02
9.9031973e-02
9.9732065e-02
9.5338940e-02
7.9674284e-02
4.8594956e-02
7.6789909e-03
-2.9520592e-02
-5.1889770e-02
-5.6358032e-02
-4.6252739e-02
-2.7351798e-02
-5.4427174e-03
1.3262165e-02
2.2655264e-02
1.9973195e-02
8.1533115e-03
-5.3907384e-03
-1.3576614e-02
-1.3110415e-02
-4.7172802e-03
8.0733411e-03
2.0359989e-02
2.6849822e-02
2.4717745e-02
1.5595396e-02
3.4699166e-03
-8.1243909e-03
-1.7929831e-02
-2.6644425e-02
-3.4995504e-02
-4.2886640e-02
-4.9269404e-02
-5.2316366e-02
-5.0589607e-02
-4.3865296e-02
-3.3247077e-02
-2.1505703e-02
-1.1153724e-02
-2.4142824e-03
6.1360939e-03
1.5843460e-02
2.6544815e-02
3.6933653e-02
4.4529028e-02
4.6487386e-02
4.2086979e-02
3.3301547e-02
2.3827984e-02
1.6729814e-02
1.2708532e-02
1.0596031e-02
8.3759895e-03
4.5349908e-03
-1.1594767e-03
-8.2231673e-03
-1.6712514e-02
-2.6951128e-02
-3.8693956e-02
-5.0964383e-02
-6.1378733e-02
-6.7566308e-02
-6.8740676e-02
-6.5171893e-02
-5.8744922e-02
-5.3582714e-02
-5.3735270e-02
-5.9760520e-02
-6.7984211e-02
-7.3294101e-02
-7.2904528e-02
-6.6994096e-02
-5.7190223e-02
-4.5853509e-02
-3.5346255e-02
-2.7015309e-02
-2.0612030e-02
-1.4369036e-02
-5.9197970e-03
6.1237945e-03
2.1684222e-02
3.9672018e-02
5.8520707e-02
7.6781247e-02
9.3137492e-02
1.0650618e-01
1.1614018e-01
1.2175907e-01
1.2440902e-01
1.2620399e-01
1.2828154e-01
1.2996720e-01
1.2893763e-01
1.2097502e-01
9.9302861e-02
5.8204350e-02
7.7658537e-04
-6.0842065e-02
-1.1315608e-01
-1.4809824e-01
-1.6467971e-01
-1.6609084e-01
-1.5675529e-01
-1.4108169e-01
-1.2208411e-01
-1.0014886e-01
-7.3923875e-02
-4.2432015e-02
-6.1423817e-03
3.3560997e-02
7.5467452e-02
1.1867949e-01
1.6343240e-01
2.1081389e-01
2.5893687e-01
2.9947503e-01
3.1633895e-01
2.9208713e-01
2.2400118e-01
1.3190975e-01
4.3750738e-02
-2.4141966e-02
-6.9886159e-02
-9.7872944e-02
-1.1386886e-01
-1.2316698e-01
-1.2892448e-01
-1.3260427e-01
-1.3501948e-01
-1.3597637e-01
-1.3538852e-01
-1.3431370e-01
-1.3320751e-01
-1.3330815e-01
-1.3507689e-01
-1.3457317e-01
-1.2876655e-01
-1.1773829e-01
-1.0176707e-01
-8.1243906e-02
-5.6502246e-02
-2.8254280e-02
1.4714679e-03
2.9796627e-02
5.4771502e-02
7.6041196e-02
9.3312472e-02
1.0506656e-01
1.0881868e-01
1.0219990e-01
8.5776041e-02
6.5489322e-02
4.8164241e-02
3.6694462e-02
3.0243957e-02
2.6108913e-02
2.2237695e-02
1.8153480e-02
1.3850757e-02
8.5726840e-03
2.6710632e-03
-1.7032152e-03
-3.0325493e-03
-2.0879715e-03
-2.7515513e-03
-1.0739279e-02
-2.8560804e-02
-5.1505298e-02
-7.2084248e-02
-8.6303889e-02
-9.4528237e-02
-9.9002070e-02
-1.0124214e-01
-1.0145598e-01
-9.8603616e-02
-9.1270972e-02
-7.8668071e-02
-5.9960621e-02
-3.4395300e-02
-2.6535179e-03
3.4276149e-02
7.5493605e-02
1.2024338e-01
1.6846090e-01
2.1733530e-01
2.5726392e-01
2.7240398e-01
2.5115552e-01
1.9820345e-01
1.3180758e-01
6.9718526e-02
1.9821406e-02
-1.7890749e-02
-4.5552939e-02
-6.5777289e-02
-8.2008008e-02
-9.6780557e-02
-1.1040198e-01
-1.2137153e-01
-1.2777382e-01
-1.2853056e-01
-1.2425686e-01
-1.1682309e-01
-1.0759577e-01
-9.7276824e-02
-8.6442220e-02
-7.5830996e-02
-6.6141606e-02
-5.7594070e-02
-4.9381139e-02
-3.9281818e-02
-2.5257664e-02
-6.7911844e-03
1.5678437e-02
4.0713670e-02
6.5115607e-02
8.5819703e-02
1.0269591e-01
1.1793358e-01
1.3399766e-01
1.5245585e-01
1.7125668e-01
1.8267998e-01
1.7778402e-01
1.5282234e-01
1.1152581e-01
6.3388157e-02
1.7751452e-02
-2.0830618e-02
-5.1194943e-02
-7.4726883e-02
-9.4641391e-02
-1.1254890e-01
-1.2738858e-01
-1.3659776e-01
-1.3840105e-01
-1.3348480e-01
-1.2413132e-01
-1.1254619e-01
-9.9746698e-02
-8.5720484e-02
-7.0308814e-02
-5.3724930e-02
-3.6769389e-02
-2.0605577e-02
-6.4747145e-03
4.7271998e-03
1.2900441e-02
1.7980231e-02
2.0070647e-02
2.0243474e-02
2.0312676e-02
2.2656350e-02
2.9185107e-02
3.9732812e-02
5.2286378e-02
6.4267320e-02
7.3172803e-02
7.7340532e-02
7.6564522e-02
7.2322727e-02
6.7045254e-02
6.2553021e-02
5.9994762e-02
5.9957051e-02
6.1688362e-02
6.2635019e-02
5.9250145e-02
4.9418680e-02
3.3767181e-02
1.5321814e-02
-1.9542994e-03
-1.5748239e-02
-2.5602112e-02
-3.2261615e-02
-3.7066316e-02
-4.0030240e-02
-4.0077409e-02
-3.6541548e-02
-3.0595193e-02
-2.5339556e-02
-2.3406660e-02
-2.4131329e-02
-2.2916436e-02
-1.5342534e-02
-1.2583995e-03
1.4958408e-02
2.6252100e-02
2.6733435e-02
1.6269198e-02
-4.9549341e-04
-1.9608725e-02
-3.8731373e-02
-5.7634207e-02
-7.5908476e-02
-8.8998166e-02
-9.3319354e-02
-8.9135855e-02
-7.8431964e-02
-6.4520360e-02
-5.0530178e-02
-3.9089694e-02
-3.1707208e-02
-2.6851874e-02
-2.1892392e-02
-1.5724469e-02
-8.5374894e-03
-3.7352875e-04
9.0626775e-03
1.9848442e-02
3.1764371e-02
4.3440063e-02
5.2615884e-02
5.7218704e-02
5.6343804e-02
5.1500884e-02
4.6041088e-02
4.2429049e-02
4.0417879e-02
3.7409322e-02
2.9045944e-02
1.3151645e-02
-6.2072673e-03
-2.1089427e-02
-2.4809117e-02
-1.6134980e-02
2.7290232e-03
3.0572948e-02
6.2526226e-02
8.3004534e-02
7.2128170e-02
2.4525088e-02
-4.1178368e-02
-9.6635643e-02
-1.2545870e-01
-1.2780430e-01
-1.1095656e-01
-8.3216857e-02
-5.1532992e-02
-2.0650285e-02
6.3788515e-03
2.8936794e-02
4.8116170e-02
6.5947369e-02
8.5608081e-02
1.0929077e-01
1.3616068e-01
1.6272503e-01
1.8249392e-01
1.8643013e-01
1.6682519e-01
1.2459723e-01
7.1641255e-02
2.1509272e-02
-1.8691022e-02
-4.7749901e-02
-6.7807363e-02
-8.2904304e-02
-9.7113515e-02
-1.1248711e-01
-1.2730042e-01
-1.3613075e-01
-1.3407811e-01
-1.2087962e-01
-1.0027809e-01
-7.8358026e-02
-6.1018168e-02
-4.9734420e-02
-4.2327947e-02
-3.6569381e-02
-3.1068454e-02
-2.5303447e-02
-2.0610894e-02
-1.9304020e-02
-2.1838376e-02
-2.5807292e-02
-2.7187076e-02
-2.2535923e-02
-1.0895811e-02
5.8688700e-03
2.4728619e-02
4.2026436e-02
5.4431795e-02
6.0902841e-02
6.2491552e-02
6.2170240e-02
6.4024804e-02
7.1385087e-02
8.5349978e-02
1.0284873e-01
1.1527338e-01
1.1141569e-01
8.5065237e-02
4.1246972e-02
-6.2738131e-03
-4.4563563e-02
-6.7606787e-02
-7.5491400e-02
-7.2019997e-02
-6.2838065e-02
-5.2664081e-02
-4.3151757e-02
-3.3210492e-02
-2.1362089e-02
-7.1045648e-03
9.2345782e-03
2.6803826e-02
4.4161572e-02
5.8042430e-02
6.3702345e-02
5.7825226e-02
4.2302049e-02
2.4414423e-02
1.1435987e-02
5.8100558e-03
5.4129614e-03
6.6821205e-03
6.6373321e-03
2.9231709e-03
-6.0223410e-03
-1.9504857e-02
-3.4096661e-02
-4.5550024e-02
-5.0987758e-02
-4.9714935e-02
-4.2884939e-02
-3.2754436e-02
-2.1907258e-02
-1.2255624e-02
-4.7829324e-03
-4.4729145e-05
1.5454906e-03
6.2633342e-04
-9.8087551e-04
-1.8927180e-03
-1.0308111e-03
2.5863523e-03
8.7215137e-03
1.6254496e-02
2.3939360e-02
3.0436914e-02
3.4766290e-02
3.5859663e-02
3.2890769e-02
2.6588324e-02
1.9067362e-02
1.3189355e-02
1.0407450e-02
9.0336829e-03
6.2798177e-03
1.2202431e-04
-1.0655038e-02
-2.5505956e-02
-4.3273245e-02
-6.1619562e-02
-7.5483658e-02
-8.1946430e-02
-8.1858449e-02
-7.7079471e-02
-6.9732976e-02
-6.0970354e-02
-5.0901758e-02
-3.9249472e-02
-2.5381905e-02
-9.2106194e-03
8.7479014e-03
2.7663268e-02
4.6268894e-02
6.3496716e-02
7.8771277e-02
9.0372164e-02
9.4569669e-02
8.7477188e-02
6.8125653e-02
4.0788011e-02
1.3029216e-02
-8.9754468e-03
-2.2797570e-02
-2.9525091e-02
-3.2319463e-02
-3.4423880e-02
-3.7734928e-02
-4.2529332e-02
-4.8361262e-02
-5.4399872e-02
-5.9516076e-02
-6.2370225e-02
-6.0829405e-02
-5.3489384e-02
-4.1539221e-02
-2.7355546e-02
-1.2770112e-02
6.7307022e-04
1.2318968e-02
2.2558716e-02
3.1841426e-02
4.1153274e-02
5.1620595e-02
6.4267035e-02
8.0341086e-02
9.9312207e-02
1.1532999e-01
1.1510156e-01
8.6020570e-02
3.1136841e-02
-3.1159266e-02
-8.2545156e-02
-1.1457509e-01
-1.2810463e-01
-1.2764421e-01
-1.1765383e-01
-1.0298679e-01
-8.6944862e-02
-6.9223174e-02
-4.8347265e-02
-2.4590143e-02
9.8820162e-04
2.8126638e-02
5.7027859e-02
8.8561999e-02
1.2334954e-01
1.5833931e-01
1.8146029e-01
1.7452411e-01
1.2997369e-01
6.0485970e-02
-1.1024043e-02
-6.7013450e-02
-1.0190994e-01
-1.1810226e-01
-1.2098852e-01
-1.1653859e-01
-1.0775133e-01
-9.1712410e-02
-6.3632546e-02
-2.2947342e-02
2.8331126e-02
8.6823787e-02
1.4891540e-01
2.1301946e-01
2.7365252e-01
3.1247700e-01
3.0401743e-01
2.3955134e-01
1.4093629e-01
4.5581585e-02
-2.1732176e-02
-5.8869552e-02
-7.4189729e-02
-7.6650337e-02
-7.2819637e-02
-6.7403894e-02
-6.6597482e-02
-7.5365128e-02
-9.1129687e-02
-1.0439715e-01
-1.0582434e-01
-9.3166622e-02
-7.0765518e-02
-4.4380905e-02
-2.0412101e-02
-6.8074547e-03
-1.0411969e-02
-3.2094876e-02
-6.4227297e-02
-9.5100100e-02
-1.1699769e-01
-1.2823352e-01
-1.3044357e-01
-1.2725558e-01
-1.2212105e-01
-1.1680580e-01
-1.1184658e-01
-1.0620441e-01
-9.7857568e-02
-8.5339705e-02
-6.7540338e-02
-4.2872077e-02
-1.1228651e-02
2.5029749e-02
6.3079801e-02
9.9630584e-02
1.3262573e-01
1.6307121e-01
1.9251401e-01
2.1883777e-01
2.3283320e-01
2.2322675e-01
1.8753423e-01
1.3504188e-01
8.0227065e-02
3.4731968e-02
3.4027517e-03
-1.4247805e-02
-2.1520971e-02
-2.3134432e-02
-2.2868695e-02
-2.1257147e-02
-1.5488984e-02
-2.6689854e-03
1.7730633e-02
4.3775896e-02
7.1704103e-02
9.6328432e-02
1.0762213e-01
9.2458486e-02
4.8298592e-02
-1.0711630e-02
-6.5349478e-02
-1.0350151e-01
-1.2353752e-01
-1.3114070e-01
-1.3331827e-01
-1.3713751e-01
-1.4460499e-01
-1.4918242e-01
-1.4659861e-01
-1.3789493e-01
-1.2462122e-01
-1.0838982e-01
-8.9540756e-02
-6.7660264e-02
-4.2572368e-02
-1.4972512e-02
1.2189389e-02
3.4998157e-02
5.1270711e-02
6.2363763e-02
7.1656770e-02
8.1902336e-02
9.4087695e-02
1.0696298e-01
1.1879624e-01
1.2867140e-01
1.3563513e-01
1.3775703e-01
1.3159727e-01
1.1377446e-01
8.4610301e-02
5.0038169e-02
1.8046482e-02
-6.6250180e-03
-2.4007304e-02
-3.6840350e-02
-4.7593087e-02
-5.7363559e-02
-6.6094487e-02
-7.3253571e-02
-7.8065764e-02
-7.9685483e-02
-7.7884925e-02
-7.2850782e-02
-6.6059064e-02
-6.0558862e-02
-5.7753696e-02
-5.6070607e-02
-5.2977052e-02
-4.6237693e-02
-3.5579007e-02
-2.2730053e-02
-8.5161906e-03
7.2893913e-03
2.4717975e-02
4.2039908e-02
5.4053515e-02
5.5215977e-02
4.5652621e-02
3.2703925e-02
2.4619973e-02
2.4240081e-02
3.0042376e-02
3.9218810e-02
4.7774745e-02
4.9950335e-02
4.0041986e-02
1.7479718e-02
-1.0119027e-02
-3.2013548e-02
-4.2284634e-02
-4.1670484e-02
-3.4346988e-02
-2.5330357e-02
-1.8503582e-02
-1.5584623e-02
-1.6335750e-02
-1.9121957e-02
-2.2757134e-02
-2.7315008e-02
-3.3048335e-02
-3.9588825e-02
-4.5538710e-02
-4.8498087e-02
-4.6588037e-02
-3.9613727e-02
-2.8315936e-02
-1.3925952e-02
1.8689337e-03
1.7836672e-02
3.3544353e-02
4.9108846e-02
6.5524433e-02
8.3685305e-02
1.0381669e-01
1.2628546e-01
1.4937909e-01
1.6451011e-01
1.5734289e-01
1.2087263e-01
6.6056445e-02
1.3402010e-02
-2.2853428e-02
-3.9885314e-02
-4.2500147e-02
-3.8135155e-02
-3.3460395e-02
-3.3245130e-02
-3.9014767e-02
-4.8023922e-02
-5.6251605e-02
-6.1759124e-02
-6.3748746e-02
-6.1784038e-02
-5.7107733e-02
-5.2347642e-02
-4.9230410e-02
-4.7328444e-02
-4.4479972e-02
-3.7955463e-02
-2.6840727e-02
-1.3111967e-02
-9.9492242e-04
4.9146758e-03
3.1589873e-03
-3.0731564e-03
-8.7757381e-03
-1.0794660e-02
-8.3381711e-03
-2.8400661e-03
2.8980515e-03
6.5381480e-03
6.5915422e-03
2.9374509e-03
-3.1195702e-03
-1.0125440e-02
-1.7097028e-02
-2.2994454e-02
-2.6798959e-02
-2.7692567e-02
-2.5484465e-02
-2.1835533e-02
-1.8998072e-02
-1.7378885e-02
-1.5857045e-02
-1.2497587e-02
-5.6097223e-03
4.5563608e-03
1.6930327e-02
3.1043022e-02
4.6670727e-02
6.3362041e-02
8.1028843e-02
9.9619578e-02
1.1756126e-01
1.3153946e-01
1.3661727e-01
1.2753641e-01
1.0277407e-01
6.7298942e-02
2.9460904e-02
-3.6130372e-03
-2.9628286e-02
-5.1013458e-02
-7.0288647e-02
-8.9879321e-02
-1.0914249e-01
-1.2213999e-01
-1.2531398e-01
-1.1896860e-01
-1.0492147e-01
-8.6494900e-02
-6.5603825e-02
-4.2597609e-02
-1.7917843e-02
8.8109115e-03
3.8466481e-02
7.1147303e-02
1.0512649e-01
1.3386926e-01
1.4655389e-01
1.3553924e-01
1.0316128e-01
6.0808627e-02
2.1356501e-02
-7.0548763e-03
-2.2922007e-02
-2.9556652e-02
-3.1463986e-02
-3.2764138e-02
-3.5958423e-02
-4.1598774e-02
-4.8472600e-02
-5.4747674e-02
-6.0196117e-02
-6.4986144e-02
-6.9477423e-02
-7.4764415e-02
-8.0467648e-02
-8.3777512e-02
-8.1120004e-02
-7.0364879e-02
-5.1828138e-02
-2.8038256e-02
-1.8989356e-03
2.2951385e-02
4.0295074e-02
4.3884089e-02
3.3471025e-02
1.7008629e-02
4.6779283e-03
2.2981478e-03
9.8971253e-03
2.3696107e-02
3.8885265e-02
5.1719529e-02
6.1126879e-02
6.7958808e-02
7.1311705e-02
6.6865976e-02
5.0049015e-02
2.1094035e-02
-1.2932143e-02
-4.2413520e-02
-6.1340610e-02
-6.8227593e-02
-6.4444501e-02
-5.3117504e-02
-3.6932608e-02
-1.7310521e-02
5.0217319e-03
2.9171348e-02
5.3974202e-02
7.8343291e-02
1.0096001e-01
1.2114754e-01
1.3784322e-01
1.4661098e-01
1.3958619e-01
1.1170991e-01
6.7181473e-02
1.7173399e-02
-2.7071085e-02
-5.9394994e-02
-7.9725785e-02
-9.0970564e-02
-9.6550483e-02
-9.9665647e-02
-1.0146967e-01
-1.0038158e-01
-9.4594444e-02
-8.4537723e-02
-7.1818783e-02
-5.7403222e-02
-4.0782060e-02
-1.9852429e-02
6.5630832e-03
3.5754828e-02
6.1012872e-02
7.5146158e-02
7.5598151e-02
6.6021719e-02
5.2769541e-02
4.1163613e-02
3.3237114e-02
2.7844960e-02
2.2595497e-02
1.5165485e-02
5.0681330e-03
-6.2375409e-03
-1.6844018e-02
-2.5278324e-02
-3.1526415e-02
-3.6823153e-02
-4.1861502e-02
-4.5582717e-02
-4.5946717e-02
-4.1955671e-02
-3.4143777e-02
-2.4119881e-02
-1.4098627e-02
-6.8171194e-03
-5.5926338e-03
-1.2275550e-02
-2.5516335e-02
-4.1269720e-02
-5.4628372e-02
-6.2381069e-02
-6.4624952e-02
-6.3452227e-02
-6.0965035e-02
-5.8933161e-02
-5.7584357e-02
-5.5254971e-02
-5.0278988e-02
-4.1790112e-02
-2.9684043e-02
-1.4152844e-02
5.0041046e-03
2.8215875e-02
5.6042912e-02
8.8823890e-02
1.2668731e-01
1.6869881e-01
2.1092122e-01
2.4372296e-01
2.5160519e-01
2.2467659e-01
1.7066881e-01
1.0920572e-01
5.6782833e-02
2.0155564e-02
-1.7414797e-03
-1.3253483e-02
-1.9112385e-02
-2.3828284e-02
-2.9097281e-02
-3.3449361e-02
-3.3848832e-02
-2.7646261e-02
-1.8599600e-02
-1.7507671e-02
-3.2822181e-02
-6.1563276e-02
-9.0881703e-02
-1.1058111e-01
-1.2014786e-01
-1.2292443e-01
-1.2088509e-01
-1.1532101e-01
-1.0804819e-01
-1.0061712e-01
-9.2498937e-02
-8.2084228e-02
-6.8314889e-02
-5.0969565e-02
-3.1401603e-02
-1.2216346e-02
4.2735048e-03
1.7054622e-02
2.6083581e-02
3.2055804e-02
3.6146853e-02
3.9563572e-02
4.3573959e-02
4.9418318e-02
5.7323890e-02
6.5622294e-02
7.2292744e-02
7.6343119e-02
7.7439312e-02
7.5643797e-02
7.0724327e-02
6.2184662e-02
5.0754202e-02
3.8823692e-02
2.9579878e-02
2.5148662e-02
2.4777280e-02
2.6073862e-02
2.6509849e-02
2.3264053e-02
1.3876342e-02
-2.9443834e-03
-2.5567753e-02
-4.8309563e-02
-6.5511229e-02
-7.5383534e-02
-7.8731667e-02
-7.7508156e-02
-7.4552245e-02
-7.3090467e-02
-7.5744682e-02
-8.2625480e-02
-9.0553837e-02
-9.4790248e-02
-9.1903735e-02
-8.1285738e-02
-6.4452121e-02
-4.4357821e-02
-2.4715989e-02
-8.7040591e-03
2.3044295e-03
9.0570239e-03
1.3292905e-02
1.7306689e-02
2.3548153e-02
3.3716315e-02
4.8661878e-02
6.8151384e-02
9.1110727e-02
1.1579660e-01
1.3762291e-01
1.4762532e-01
1.3694596e-01
1.0529580e-01
6.3967354e-02
2.9172897e-02
1.1020563e-02
9.5700997e-03
2.0011319e-02
3.6913149e-02
5.6258432e-02
7.5614648e-02
9.0846554e-02
9.4044519e-02
7.7185097e-02
4.0885820e-02
-2.7132457e-03
-3.9411579e-02
-6.2698548e-02
-7.3943756e-02
-7.8110467e-02
-8.0557636e-02
-8.5565041e-02
-9.5356822e-02
-1.0813214e-01
-1.1851605e-01
-1.2111445e-01
-1.1345102e-01
-9.7072881e-02
-7.6019640e-02
-5.4555254e-02
-3.6341878e-02
-2.2818000e-02
-1.2002493e-02
-7.6755859e-04
1.2898531e-02
2.9524926e-02
4.6402636e-02
5.8231775e-02
6.1851648e-02
5.8196319e-02
5.0467695e-02
4.1806905e-02
3.4267797e-02
2.8010257e-02
2.1548378e-02
1.3371168e-02
3.1843610e-03
-7.6012066e-03
-1.6499898e-02
-2.1838936e-02
-2.4206144e-02
-2.4532768e-02
-2.2599780e-02
-1.7563906e-02
-8.6827542e-03
3.3997507e-03
1.6693359e-02
2.9338495e-02
4.0276333e-02
4.8337949e-02
5.1926777e-02
4.9103044e-02
3.8438722e-02
2.1631658e-02
2.9918756e-03
-1.3630754e-02
-2.5846406e-02
-3.3134439e-02
-3.6716192e-02
-3.8245144e-02
-3.9022167e-02
-3.9492039e-02
-3.9046463e-02
-3.6914003e-02
-3.3284157e-02
-2.8687537e-02
-2.2686729e-02
-1.4478569e-02
-4.0225594e-03
8.3101036e-03
2.1892014e-02
3.5792022e-02
5.0226369e-02
6.6406614e-02
8.4432760e-02
1.0233274e-01
1.1472299e-01
1.1419386e-01
9.8327152e-02
7.1913860e-02
4.2102374e-02
1.4461155e-02
-9.8671966e-03
-3.1996420e-02
-5.0870341e-02
-6.5783821e-02
-7.8095155e-02
-8.9361754e-02
-1.0023577e-01
-1.0944496e-01
-1.1580947e-01
-1.1947616e-01
-1.2077551e-01
-1.2226538e-01
-1.2729223e-01
-1.3385682e-01
-1.3442452e-01
-1.2251636e-01
-9.7724230e-02
-6.3225322e-02
-2.1889217e-02
2.2315183e-02
6.0752337e-02
8.2586475e-02
8.3924002e-02
7.3163554e-02
6.5266842e-02
7.0334547e-02
8.9609849e-02
1.1849462e-01
1.4962084e-01
1.7652980e-01
1.9570478e-01
2.0635479e-01
2.0774385e-01
1.9544737e-01
1.6501998e-01
1.1864946e-01
6.5402091e-02
1.6174243e-02
-2.2144865e-02
-4.8496327e-02
-6.4839725e-02
-7.4196647e-02
-8.0666733e-02
-8.6929436e-02
-9.3376991e-02
-9.9700779e-02
-1.0476274e-01
-1.0705857e-01
-1.0629553e-01
-1.0323294e-01
-9.8025753e-02
-9.0693536e-02
-8.1924883e-02
-7.2766857e-02
-6.4425845e-02
-5.7455928e-02
-5.1691142e-02
-4.7143929e-02
-4.3924094e-02
-4.1585563e-02
-3.9443926e-02
-3.5890299e-02
-2.7723671e-02
-1.2197968e-02
1.1636444e-02
4.2196089e-02
7.5335395e-02
1.0833868e-01
1.4184227e-01
1.7683140e-01
2.0935891e-01
2.2735697e-01
2.1619344e-01
1.7187996e-01
1.0940859e-01
5.1172823e-02
9.2446279e-03
-1.6570987e-02
-3.1302200e-02
-4.1042624e-02
-5.1972929e-02
-6.7801333e-02
-8.8150028e-02
-1.0894601e-01
-1.2435708e-01
-1.3042666e-01
-1.2690142e-01
-1.1596146e-01
-1.0108601e-01
-8.5989175e-02
-7.3451723e-02
-6.4908913e-02
-5.9294321e-02
-5.3468243e-02
-4.4552985e-02
-3.1106086e-02
-1.3551678e-02
6.1835891e-03
2.5466783e-02
4.2326235e-02
5.5813163e-02
6.4772205e-02
6.7426836e-02
6.1564443e-02
4.7774761e-02
3.1648157e-02
2.0393914e-02
1.8679647e-02
2.6509525e-02
4.1062932e-02
5.8373546e-02
6.9140163e-02
6.0384856e-02
3.0150213e-02
-5.6246534e-03
-2.7125908e-02
-2.6593315e-02
-7.5353982e-03
2.4672803e-02
6.4281084e-02
9.8075222e-02
1.0603140e-01
7.7103281e-02
2.2555337e-02
-3.2092705e-02
-6.8000950e-02
-8.1599772e-02
-7.8642947e-02
-6.7559201e-02
-5.5915892e-02
-4.8649243e-02
-4.7090228e-02
-4.8985310e-02
-5.0836013e-02
-5.0636199e-02
-4.7913287e-02
-4.2332335e-02
-3.3201182e-02
-1.9896746e-02
-2.6471607e-03
1.7550417e-02
3.9026400e-02
5.8819147e-02
7.4271511e-02
8.4185097e-02
8.7770522e-02
8.4929003e-02
7.6989630e-02
6.5473651e-02
5.1253944e-02
3.6335938e-02
2.3427081e-02
1.3819382e-02
7.4735942e-03
2.7916422e-03
-3.6905582e-03
-1.4102163e-02
-2.7772662e-02
-4.3233343e-02
-5.7832892e-02
-6.9993269e-02
-7.8653735e-02
-7.9960476e-02
-7.2276276e-02
-5.8112195e-02
-4.1469674e-02
-2.6347735e-02
-1.3194527e-02
4.0804823e-04
1.6626194e-02
3.6769323e-02
5.9604608e-02
7.9357147e-02
8.6184734e-02
7.2790493e-02
4.1876650e-02
4.5076109e-03
-2.8067766e-02
-5.0804513e-02
-6.4595526e-02
-7.1993529e-02
-7.5225789e-02
-7.6653560e-02
-7.7651486e-02
-7.7263554e-02
-7.3389649e-02
-6.5265634e-02
-5.3813235e-02
-4.0170411e-02
-2.4181811e-02
-4.4350499e-03
1.9297610e-02
4.5080245e-02
6.8695644e-02
8.4662091e-02
9.0309378e-02
8.7379772e-02
7.9510527e-02
7.0188626e-02
6.1717844e-02
5.4361267e-02
4.7198001e-02
3.9846071e-02
3.1945685e-02
2.3526628e-02
1.5809360e-02
9.7917863e-03
6.9461498e-03
8.5139232e-03
1.3618535e-02
1.9761669e-02
2.0620444e-02
7.9704795e-03
-1.8408476e-02
-4.7784023e-02
-6.7263086e-02
-7.0669308e-02
-5.8255444e-02
-3.3335818e-02
-3.3960100e-03
1.9786746e-02
2.6288940e-02
1.5654006e-02
-2.5691973e-03
-1.7048555e-02
-2.1909759e-02
-1.6309410e-02
-3.7055789e-03
8.4671249e-03
1.3479860e-02
1.0137783e-02
3.0069190e-03
-2.2544289e-03
-2.8623263e-03
1.0172497e-03
6.8677444e-03
1.0304775e-02
6.7149906e-03
-5.2879009e-03
-2.1829749e-02
-3.6057024e-02
-4.3164340e-02
-4.2891497e-02
-3.7152556e-02
-2.8984942e-02
-2.0918663e-02
-1.3768156e-02
-9.7543526e-03
-1.1944621e-02
-2.0867204e-02
-3.2838790e-02
-4.1699420e-02
-4.3165896e-02
-3.6845447e-02
-2.5422032e-02
-1.2380514e-02
-3.3688440e-04
1.0454867e-02
2.1692600e-02
3.4404191e-02
4.8295009e-02
6.2150279e-02
7.3493587e-02
7.8275056e-02
7.3524861e-02
6.0624816e-02
4.5112365e-02
3.3537189e-02
2.9293001e-02
3.1266104e-02
3.4932504e-02
3.4781104e-02
2.6865832e-02
1.0356133e-02
-1.1099703e-02
-3.1828580e-02
-4.8301234e-02
-5.9765735e-02
-6.6991169e-02
-7.1181363e-02
-7.3390829e-02
-7.4466156e-02
-7.5108226e-02
-7.5602425e-02
-7.5345920e-02
-7.3402176e-02
-6.9377554e-02
-6.2668178e-02
-5.2369260e-02
-3.8073702e-02
-1.9991833e-02
8.8387500e-04
2.2546319e-02
4.1794730e-02
5.4544137e-02
5.7615150e-02
5.2009244e-02
4.3486275e-02
3.9254251e-02
4.4391697e-02
6.0082186e-02
8.4343859e-02
1.1356274e-01
1.4367609e-01
1.6915059e-01
1.7945097e-01
1.6276882e-01
1.1955519e-01
6.6595840e-02
2.3813874e-02
8.2351277e-04
-4.4943500e-03
7.4553053e-04
8.5894677e-03
1.0570373e-02
1.1019609e-04
-2.2372708e-02
-5.0121308e-02
-7.6958948e-02
-9.9653075e-02
-1.1817821e-01
-1.3352649e-01
-1.4331082e-01
-1.4478938e-01
-1.3829176e-01
-1.2592398e-01
-1.1034029e-01
-9.3016407e-02
-7.4211788e-02
-5.4355984e-02
-3.3843937e-02
-1.2578591e-02
9.1633437e-03
3.0029930e-02
4.8058033e-02
6.0494184e-02
6.3300885e-02
5.3083571e-02
3.1250504e-02
4.8216888e-03
-1.7639337e-02
-3.0630798e-02
-3.3247280e-02
-2.7404156e-02
-1.5648859e-02
-4.5356162e-04
1.5617903e-02
3.0938084e-02
4.5846284e-02
6.1753138e-02
7.9701609e-02
1.0014259e-01
1.2288967e-01
1.4540447e-01
1.6086027e-01
1.5867374e-01
1.3041942e-01
7.8798604e-02
1.9450878e-02
-2.9672794e-02
-6.0005177e-02
-7.3584439e-02
-7.7082216e-02
-7.6546109e-02
-7.6016576e-02
-7.7510152e-02
-8.1557133e-02
-8.7114873e-02
-9.0868276e-02
-8.8917449e-02
-7.9006708e-02
-6.0952360e-02
-3.7593474e-02
-1.4175228e-02
5.1559336e-03
1.6999104e-02
1.8714491e-02
1.1453237e-02
-1.9517610e-04
-1.0443097e-02
-1.4802866e-02
-1.2338326e-02
-5.0995763e-03
4.1530624e-03
1.3119163e-02
2.0428849e-02
2.5310066e-02
2.7475784e-02
2.8547957e-02
3.1318579e-02
3.7179361e-02
4.6004785e-02
5.6929617e-02
6.8420428e-02
7.8801268e-02
8.6156765e-02
8.6953401e-02
7.6851361e-02
5.5202848e-02
2.7202805e-02
4.9968670e-04
-1.9905894e-02
-3.3119888e-02
-4.0447960e-02
-4.4311441e-02
-4.6930550e-02
-4.9126166e-02
-5.1020427e-02
-5.2297623e-02
-5.2353233e-02
-5.0785035e-02
-4.6816650e-02
-3.9790934e-02
-3.0554151e-02
-2.1096647e-02
-1.3158772e-02
-7.6795901e-03
-4.3148955e-03
-1.7754015e-03
2.7850755e-04
1.1166124e-03
-6.4187815e-05
-2.8832301e-03
-4.9211643e-03
-4.4817630e-03
-2.0408080e-03
1.8628631e-03
5.7457547e-03
6.4451238e-03
1.7819110e-03
-7.2649551e-03
-1.6173825e-02
-2.0242124e-02
-1.7491724e-02
-8.2331653e-03
4.3667343e-03
1.4547322e-02
1.6433780e-02
8.2727240e-03
-4.0544929e-03
-1.0975656e-02
-7.4476747e-03
5.4003339e-03
2.4117061e-02
4.4234113e-02
5.9557840e-02
6.3142892e-02
5.2010210e-02
3.0435947e-02
6.7453308e-03
-1.1673405e-02
-2.1510368e-02
-2.3587420e-02
-2.1078040e-02
-1.7665036e-02
-1.5769532e-02
-1.5794275e-02
-1.6536807e-02
-1.7097310e-02
-1.7731300e-02
-1.8408640e-02
-1.8143021e-02
-1.5275801e-02
-8.3648416e-03
2.3179838e-03
1.4469635e-02
2.5192129e-02
3.2314008e-02
3.5216929e-02
3.5390657e-02
3.5041421e-02
3.5457527e-02
3.6954654e-02
3.9204066e-02
4.1566073e-02
4.2715230e-02
4.1227862e-02
3.6430702e-02
2.8041852e-02
1.6749637e-02
2.5467781e-03
-1.3966576e-02
-2.8027833e-02
-3.5623704e-02
-3.6990690e-02
-3.4993433e-02
-3.3915118e-02
-3.6324459e-02
-4.1727253e-02
-4.7576041e-02
-5.0606035e-02
-4.9281174e-02
-4.4493584e-02
-3.8661176e-02
-3.4710761e-02
-3.4374294e-02
-3.7203328e-02
-4.1229287e-02
-4.4673143e-02
-4.7093376e-02
-4.8509351e-02
-4.8215350e-02
-4.4706247e-02
-3.6716869e-02
-2.4770938e-02
-1.0753792e-02
3.4080454e-03
1.5812697e-02
2.5327096e-02
3.2139850e-02
3.7014042e-02
4.1174830e-02
4.6283334e-02
5.3292450e-02
6.1662372e-02
7.0394361e-02
7.8152833e-02
8.3004074e-02
8.2593078e-02
7.3334169e-02
5.2471614e-02
2.1545266e-02
-1.3324380e-02
-4.4445558e-02
-6.6652773e-02
-7.9097950e-02
-8.3492944e-02
-8.2334182e-02
-7.7909971e-02
-7.0919497e-02
-6.1039951e-02
-4.7078912e-02
-2.7166496e-02
-9.7756542e-04
2.9612271e-02
6.2619619e-02
9.6849738e-02
1.2836902e-01
1.4704690e-01
1.4085403e-01
1.0710181e-01
5.7995370e-02
1.2189865e-02
-1.7973409e-02
-3.0665792e-02
-3.0386885e-02
-2.2997248e-02
-1.4236583e-02
-8.8031258e-03
-8.1042397e-03
-9.8026657e-03
-9.5291260e-03
-3.9665311e-03
7.3744547e-03
2.3387845e-02
4.1204345e-02
5.5121962e-02
5.8110668e-02
4.6695313e-02
2.5314158e-02
3.3524382e-03
-1.2182778e-02
-2.0101066e-02
-2.2892792e-02
-2.3443426e-02
-2.4472267e-02
-2.8637909e-02
-3.6529033e-02
-4.5423499e-02
-5.1256593e-02
-5.1611850e-02
-4.6856555e-02
-3.9606514e-02
-3.2888390e-02
-2.8025268e-02
-2.4970214e-02
-2.3721042e-02
-2.4401527e-02
-2.7145375e-02
-3.2903606e-02
-4.2527950e-02
-5.5641256e-02
-7.0586622e-02
-8.4179852e-02
-9.3859762e-02
-9.8918026e-02
-9.9768252e-02
-9.7859904e-02
-9.5581988e-02
-9.4694935e-02
-9.3856914e-02
-8.9573417e-02
-7.8540699e-02
-5.8832862e-02
-3.1077748e-02
2.0105738e-03
3.7301020e-02
7.2296890e-02
1.0451866e-01
1.3163335e-01
1.5341392e-01
1.7120610e-01
1.8652821e-01
2.0153642e-01
2.1844389e-01
2.3742661e-01
2.5508604e-01
2.6315115e-01
2.4847061e-01
2.0050041e-01
1.2369278e-01
3.7782197e-02
-3.6981533e-02
-9.2250825e-02
-1.2981264e-01
-1.5363129e-01
-1.6709831e-01
-1.7320184e-01
-1.7444196e-01
-1.7215536e-01
-1.6551623e-01
-1.5255166e-01
-1.3242003e-01
-1.0584297e-01
-7.4504917e-02
-4.1358697e-02
-9.9287384e-03
1.7254209e-02
3.9567522e-02
5.9009012e-02
7.8915118e-02
1.0118851e-01
1.2591782e-01
1.5128626e-01
1.7093735e-01
1.7371869e-01
1.5135639e-01
1.0715199e-01
5.5141036e-02
1.0335988e-02
-2.1452143e-02
-4.2362778e-02
-5.4632961e-02
-5.9711836e-02
-6.0056461e-02
-5.9480801e-02
-6.2394203e-02
-7.1101077e-02
-8.4696502e-02
-9.9685970e-02
-1.1105973e-01
-1.1529116e-01
-1.1236954e-01
-1.0439439e-01
-9.4132412e-02
-8.4140836e-02
-7.6021322e-02
-7.0098834e-02
-6.5063071e-02
-5.9539924e-02
-5.3090719e-02
-4.5664720e-02
-3.7714908e-02
-2.8919438e-02
-1.7455269e-02
-1.9139953e-03
1.7406616e-02
3.9117146e-02
6.1141538e-02
8.1076412e-02
9.6669933e-02
1.0734990e-01
1.1554833e-01
1.2474117e-01
1.3731071e-01
1.5348418e-01
1.7045140e-01
1.8043018e-01
1.7160395e-01
1.3642862e-01
7.9039729e-02
1.3901479e-02
-4.3018265e-02
-8.2896194e-02
-1.0481592e-01
-1.1223840e-01
-1.1037707e-01
-1.0368098e-01
-9.4392792e-02
-8.2625184e-02
-6.7366696e-02
-4.7267049e-02
-2.1451002e-02
1.0298081e-02
4.7271141e-02
8.5586536e-02
1.1608623e-01
1.2550399e-01
1.0606179e-01
6.4004610e-02
1.4902964e-02
-2.7189606e-02
-5.5997680e-02
-7.1823782e-02
-7.7857359e-02
-7.7788300e-02
-7.5186643e-02
-7.2213171e-02
-6.8192242e-02
-6.1716915e-02
-5.2991293e-02
-4.3166016e-02
-3.3182484e-02
-2.3481266e-02
-1.3125873e-02
-7.1703067e-04
1.4155930e-02
3.1980598e-02
5.2882009e-02
7.6247876e-02
1.0037144e-01
1.1867138e-01
1.2030792e-01
9.9436329e-02
6.2173273e-02
2.2099275e-02
-9.2894685e-03
-2.7943133e-02
-3.6060044e-02
-3.8688384e-02
-4.2163582e-02
-5.1265621e-02
-6.5818499e-02
-8.0821888e-02
-9.0938360e-02
-9.4538667e-02
-9.2944302e-02
-8.8966948e-02
-8.5874166e-02
-8.4715341e-02
-8.2847914e-02
-7.6265735e-02
-6.2653294e-02
-4.1581388e-02
-1.4489926e-02
1.5645777e-02
4.4902840e-02
6.9383184e-02
8.7988698e-02
1.0326769e-01
1.1913978e-01
1.3734541e-01
1.5670923e-01
1.7239624e-01
1.7522181e-01
1.5729558e-01
1.1859186e-01
6.7976020e-02
1.7691947e-02
-2.4128465e-02
-5.5667590e-02
-7.8872672e-02
-9.7037956e-02
-1.1398603e-01
-1.3207954e-01
-1.5010139e-01
-1.6455195e-01
-1.7170246e-01
-1.6884869e-01
-1.5504079e-01
-1.3187706e-01
-1.0354474e-01
-7.5246957e-02
-5.0477331e-02
-2.7992280e-02
-3.8526832e-03
2.4912749e-02
5.9119481e-02
9.6583206e-02
1.3402746e-01
1.6925251e-01
2.0181934e-01
2.3232087e-01
2.5932734e-01
2.7561017e-01
2.6703782e-01
2.2380648e-01
1.5435471e-01
8.0470153e-02
2.0972993e-02
-1.7529754e-02
-3.8869431e-02
-4.9680152e-02
-5.5458767e-02
-6.2335757e-02
-7.6177715e-02
-9.7487139e-02
-1.2107458e-01
-1.4154683e-01
-1.5582975e-01
-1.6485546e-01
-1.7053361e-01
-1.7095785e-01
-1.6549826e-01
-1.5581511e-01
-1.4274260e-01
-1.2702638e-01
-1.0811868e-01
-8.5335330e-02
-5.8534971e-02
-2.6528309e-02
9.8155220e-03
4.5273260e-02
7.3012167e-02
8.9306737e-02
9.6761249e-02
1.0376942e-01
1.1871791e-01
1.4329596e-01
1.7449910e-01
2.0876882e-01
2.3921736e-01
2.5272933e-01
2.3499621e-01
1.8118874e-01
1.0285953e-01
2.2136199e-02
-4.3297262e-02
-8.7182154e-02
-1.1233095e-01
-1.2665531e-01
-1.3740663e-01
-1.4813182e-01
-1.5849849e-01
-1.6500914e-01
-1.6470541e-01
-1.5737603e-01
-1.4405165e-01
-1.2533949e-01
-1.0098164e-01
-7.0712181e-02
-3.5505600e-02
2.2028514e-03
4.0159910e-02
7.6302630e-02
1.0680087e-01
1.2574658e-01
1.2749840e-01
1.1176042e-01
8.6259371e-02
6.2323453e-02
4.7205450e-02
4.1746622e-02
4.2228940e-02
4.2528741e-02
3.8049798e-02
2.7505728e-02
1.2987767e-02
-1.2242648e-03
-1.2169439e-02
-1.9428576e-02
-2.5532776e-02
-3.5139645e-02
-4.9903220e-02
-6.6699077e-02
-8.1046965e-02
-8.9440255e-02
-9.1112337e-02
-8.7882598e-02
-8.2419690e-02
-7.7711976e-02
-7.5056623e-02
-7.3212423e-02
-7.0320985e-02
-6.4937653e-02
-5.6103415e-02
-4.2799685e-02
-2.3986927e-02
8.2239803e-04
3.1189004e-02
6.5722250e-02
1.0240867e-01
1.3800641e-01
1.6941016e-01
1.9510254e-01
2.1451288e-01
2.2740244e-01
2.3156189e-01
2.2082216e-01
1.8649908e-01
1.2543270e-01
4.7374753e-02
-3.0063878e-02
-9.2533042e-02
-1.3445634e-01
-1.5767798e-01
-1.6818148e-01
-1.7288854e-01
-1.7684065e-01
-1.8135560e-01
-1.8372519e-01
-1.7985159e-01
-1.6754410e-01
-1.4682217e-01
-1.1844405e-01
-8.3576737e-02
-4.3971795e-02
-1.0687726e-03
4.3600940e-02
8.8372845e-02
1.3228604e-01
1.7481012e-01
2.1396019e-01
2.4150468e-01
2.4405321e-01
2.1452641e-01
1.6047970e-01
9.9991482e-02
5.0042924e-02
1.6761301e-02
-3.8860149e-03
-1.9257613e-02
-3.5382971e-02
-5.4874227e-02
-7.6672244e-02
-9.6829602e-02
-1.1124946e-01
-1.1799733e-01
-1.1659639e-01
-1.0812792e-01
-9.5310703e-02
-8.0578239e-02
-6.5552338e-02
-5.0901041e-02
-3.6170345e-02
-2.0503245e-02
-3.8121882e-03
1.2567925e-02
2.6914664e-02
3.9037180e-02
4.9973897e-02
5.9541400e-02
6.7261821e-02
7.2433195e-02
7.2254299e-02
6.3806144e-02
4.7900976e-02
2.9865706e-02
1.6212007e-02
1.0864448e-02
1.3347920e-02
2.0226725e-02
2.7628973e-02
3.2786630e-02
3.3831869e-02
2.9069031e-02
1.9168834e-02
7.1611805e-03
-4.4449742e-03
-1.4435180e-02
-2.4728873e-02
-3.7551133e-02
-5.0917521e-02
-6.2507886e-02
-7.1694098e-02
-7.8616158e-02
-8.3725543e-02
-8.6491144e-02
-8.5891449e-02
-8.0315597e-02
-6.8144825e-02
-4.9821499e-02
-2.7795062e-02
-5.7289709e-03
1.2553844e-02
2.4410772e-02
2.9245484e-02
2.9054398e-02
2.6970389e-02
2.5373127e-02
2.4887879e-02
2.4516882e-02
2.3295179e-02
2.0443615e-02
1.5023284e-02
6.3846680e-03
-5.4775196e-03
-1.9021185e-02
-3.1174495e-02
-3.9124150e-02
-4.2060366e-02
-4.0730159e-02
-3.5880593e-02
-2.7924941e-02
-1.7623239e-02
-6.0076590e-03
6.2745944e-03
1.9006774e-02
3.2027986e-02
4.4830236e-02
5.6670151e-02
6.6903858e-02
7.4616633e-02
7.9117286e-02
8.0613139e-02
7.9048641e-02
7.3832255e-02
6.4483982e-02
5.0605558e-02
3.2565281e-02
1.2986854e-02
-4.0625432e-03
-1.5951686e-02
-2.2496440e-02
-2.4701281e-02
-2.4087075e-02
-2.2210885e-02
-1.9806239e-02
-1.7551668e-02
-1.5746327e-02
-1.3604656e-02
-1.0433379e-02
-6.1046313e-03
-1.0317937e-03
3.1296053e-03
2.5576188e-03
-7.0598529e-03
-2.6458522e-02
-5.1314365e-02
-7.4538408e-02
-8.9915682e-02
-9.4965863e-02
-9.0833478e-02
-8.0120312e-02
-6.6064405e-02
-5.1769959e-02
-3.8934990e-02
-2.8073866e-02
-1.8783726e-02
-9.0851641e-03
4.3083623e-03
2.3807841e-02
4.9208677e-02
7.8297425e-02
1.0793867e-01
1.3450152e-01
1.5289338e-01
1.5601731e-01
1.3851015e-01
1.0188232e-01
5.5754184e-02
1.2514080e-02
-1.9171868e-02
-3.7131302e-02
-4.5095801e-02
-4.8321310e-02
-5.0759765e-02
-5.4401229e-02
-5.9096803e-02
-6.4894013e-02
-7.2726832e-02
-8.2307354e-02
-9.0770695e-02
-9.3523742e-02
-8.7595713e-02
-7.3656682e-02
-5.4828841e-02
-3.4978132e-02
-1.7438065e-02
-4.0989038e-03
5.2879585e-03
1.3571611e-02
2.4862608e-02
4.1770778e-02
6.3762572e-02
8.7901739e-02
1.1017905e-01
1.2562978e-01
1.2924003e-01
1.1812768e-01
9.4273556e-02
6.4015081e-02
3.4123780e-02
9.5255794e-03
-7.0927371e-03
-1.5060940e-02
-1.6062151e-02
-1.3610457e-02
-1.1114588e-02
-1.0024080e-02
-9.0064811e-03
-5.3338707e-03
3.0251693e-03
1.5598876e-02
2.8026241e-02
3.3667734e-02
2.7745097e-02
1.1036007e-02
-9.7068598e-03
-2.6740991e-02
-3.6679188e-02
-4.0430867e-02
-4.0037158e-02
-3.7999859e-02
-3.7403791e-02
-3.9769109e-02
-4.4163275e-02
-4.8007771e-02
-4.8229994e-02
-4.2958355e-02
-3.2549950e-02
-1.9423717e-02
-6.9429235e-03
2.5146462e-03
7.8216560e-03
7.7587181e-03
2.9129918e-03
-3.6799374e-03
-9.8090228e-03
-1.4665182e-02
-2.0524160e-02
-2.9185636e-02
-3.6251591e-02
-3.8318792e-02
-3.7112605e-02
-3.6568967e-02
-4.1041921e-02
-5.1808610e-02
-6.5691172e-02
-7.7376143e-02
-8.2757841e-02
-8.0635230e-02
-7.1982157e-02
-5.7603460e-02
-3.8005951e-02
-1.5736703e-02
4.8560502e-03
1.8925252e-02
2.4412634e-02
2.5598957e-02
3.0167583e-02
4.3894812e-02
6.8621412e-02
1.0300487e-01
1.4077320e-01
1.6640941e-01
1.6182796e-01
1.2472890e-01
7.4705658e-02
3.5408373e-02
1.6684003e-02
1.6120272e-02
2.7408139e-02
4.4679691e-02
6.2441407e-02
7.3702329e-02
7.0087576e-02
4.4114520e-02
-3.4536390e-03
-5.9287510e-02
-1.0614866e-01
-1.3340151e-01
-1.3862459e-01
-1.2509083e-01
-1.0048402e-01
-7.3741135e-02
-5.0249690e-02
-3.0114139e-02
-9.5344555e-03
1.5362288e-02
4.4341627e-02
7.1933122e-02
9.0269535e-02
9.6854655e-02
9.8794527e-02
1.0589279e-01
1.2201519e-01
1.4105437e-01
1.4888997e-01
1.3165221e-01
8.5330997e-02
2.0092565e-02
-4.5928985e-02
-9.7872558e-02
-1.2967965e-01
-1.4323423e-01
-1.4448080e-01
-1.3908811e-01
-1.3137486e-01
-1.2320514e-01
-1.1363026e-01
-1.0140957e-01
-8.5841166e-02
-6.6219709e-02
-4.2072198e-02
-1.4015731e-02
1.5871029e-02
4.4769482e-02
6.9960769e-02
8.9462041e-02
1.0275637e-01
1.1061495e-01
1.1407012e-01
1.1368523e-01
1.0889415e-01
9.7424850e-02
7.7625755e-02
5.1062563e-02
2.2023537e-02
-4.9361555e-03
-2.7352571e-02
-4.4214710e-02
-5.5481161e-02
-6.1820109e-02
-6.3815582e-02
-6.2306519e-02
-5.8186538e-02
-5.2035798e-02
-4.4568011e-02
-3.7712404e-02
-3.4452024e-02
-3.7884628e-02
-4.8854514e-02
-6.3249155e-02
-7.4710098e-02
-7.9473961e-02
-7.7192178e-02
-6.8852823e-02
-5.6547981e-02
-4.5435068e-02
-4.2419870e-02
-4.9020261e-02
-5.7624421e-02
-5.7442493e-02
-4.2465444e-02
-1.4066617e-02
2.1470282e-02
5.5761323e-02
8.2204281e-02
9.9952941e-02
1.1391723e-01
1.3072233e-01
1.5319608e-01
1.8061334e-01
2.1035495e-01
2.3412758e-01
2.3831767e-01
2.1319094e-01
1.6008841e-01
8.9748985e-02
1.7226857e-02
-4.4239902e-02
-8.7982356e-02
-1.1470158e-01
-1.2981335e-01
-1.3833245e-01
-1.4309587e-01
-1.4554778e-01
-1.4679527e-01
-1.4800154e-01
-1.4829328e-01
-1.4478566e-01
-1.3465248e-01
-1.1602759e-01
-8.9096738e-02
-5.6051720e-02
-1.9104595e-02
2.0654052e-02
6.2364393e-02
1.0406731e-01
1.4075509e-01
1.6449619e-01
1.6802101e-01
1.4845748e-01
1.1130084e-01
6.7696547e-02
2.7825904e-02
-2.8772818e-03
-2.5268182e-02
-4.2370152e-02
-5.7848286e-02
-7.2297975e-02
-7.9856919e-02
-7.7247307e-02
-6.6050952e-02
-4.8943826e-02
-3.0238232e-02
-1.3708727e-02
-1.3131510e-03
7.2729536e-03
1.5134290e-02
2.5700003e-02
3.9812776e-02
5.1662028e-02
5.0400662e-02
3.1076055e-02
7.9097782e-04
-2.7682890e-02
-4.5593035e-02
-5.1345974e-02
-4.7841545e-02
-3.9264044e-02
-3.0051974e-02
-2.4183333e-02
-2.2987777e-02
-2.3922916e-02
-2.2475151e-02
-1.5018915e-02
-7.9251337e-04
1.6159429e-02
2.7733431e-02
2.6689119e-02
1.2724546e-02
-5.8159123e-03
-1.7810716e-02
-1.6834308e-02
-3.3843044e-03
1.8686984e-02
4.5608173e-02
7.3938698e-02
9.7491360e-02
1.0385076e-01
8.1172131e-02
3.1437885e-02
-2.7962353e-02
-7.7037084e-02
-1.0515526e-01
-1.1268519e-01
-1.0579137e-01
-9.0424113e-02
-7.0667466e-02
-5.0518441e-02
-3.3212683e-02
-1.9085082e-02
-5.0541082e-03
1.3538948e-02
3.9336575e-02
7.2438692e-02
1.1228955e-01
1.5829594e-01
2.0525995e-01
2.3478930e-01
2.2280697e-01
1.6401607e-01
8.1203960e-02
7.1949873e-03
-3.9293457e-02
-5.9462562e-02
-6.3173549e-02
-5.9517393e-02
-5.5441241e-02
-5.6618238e-02
-6.5014766e-02
-7.6905959e-02
-8.5634531e-02
-8.5519968e-02
-7.5109196e-02
-5.5763800e-02
-2.8274045e-02
5.3497067e-03
3.7571446e-02
5.5228230e-02
4.9022452e-02
2.3194673e-02
-7.3913785e-03
-2.8554687e-02
-3.4654768e-02
-2.8118378e-02
-1.4469666e-02
1.2961979e-03
1.4579433e-02
2.2058229e-02
2.3256004e-02
1.9997421e-02
1.5936871e-02
1.4610635e-02
1.6850163e-02
2.0283738e-02
2.1168444e-02
1.7063499e-02
7.7998435e-03
-5.2991814e-03
-2.0085347e-02
-3.4035170e-02
-4.5028628e-02
-5.2089460e-02
-5.5907688e-02
-5.8147051e-02
-6.0698838e-02
-6.4582797e-02
-6.8037272e-02
-6.7506129e-02
-6.0322988e-02
-4.5330736e-02
-2.3641013e-02
1.2605095e-03
2.4918074e-02
4.1561224e-02
4.5485465e-02
3.4642444e-02
1.2237020e-02
-1.5253928e-02
-4.1348415e-02
-6.1203496e-02
-7.3084161e-02
-7.7741799e-02
-7.6588808e-02
-7.1941036e-02
-6.7524838e-02
-6.7161498e-02
-7.1582501e-02
-7.6703507e-02
-7.4842383e-02
-6.0237377e-02
-3.1884670e-02
9.5240165e-03
6.1023061e-02
1.1916495e-01
1.8343494e-01
2.5358904e-01
3.2067996e-01
3.5839904e-01
3.3769749e-01
2.5614455e-01
1.4393846e-01
4.0942474e-02
-2.8302137e-02
-6.0360335e-02
-6.2914035e-02
-4.6435410e-02
-2.2195388e-02
1.1984686e-03
2.0971110e-02
3.9477922e-02
5.8789620e-02
7.2578737e-02
6.6372308e-02
3.0249027e-02
-2.6664761e-02
-8.0333438e-02
-1.1434638e-01
-1.2979759e-01
-1.3395873e-01
-1.3080735e-01
-1.2240104e-01
-1.1189915e-01
-1.0284528e-01
-9.5363664e-02
-8.6670742e-02
-7.4318369e-02
-5.6144175e-02
-3.2084892e-02
-5.9384574e-03
1.6209316e-02
2.8829291e-02
3.0910207e-02
2.7461850e-02
2.4721567e-02
2.5098556e-02
2.8234238e-02
3.2759507e-02
3.6493375e-02
3.7156352e-02
3.2651235e-02
2.2316893e-02
8.6898559e-03
-3.4345773e-03
-1.0186374e-02
-1.0542986e-02
-6.1731849e-03
-3.5437742e-04
3.6027175e-03
3.7353350e-03
-4.7153860e-04
-8.5192399e-03
-1.8608099e-02
-2.8336294e-02
-3.5794333e-02
-3.9790403e-02
-4.0106474e-02
-3.7352856e-02
-3.3073200e-02
-2.9296117e-02
-2.7146827e-02
-2.6280844e-02
-2.5247895e-02
-2.2764987e-02
-1.8958667e-02
-1.5239787e-02
-1.3444495e-02
-1.4807000e-02
-1.8493254e-02
-2.1382255e-02
-2.0089381e-02
-1.3248343e-02
-2.1194119e-03
1.0550809e-02
2.2362368e-02
3.2555409e-02
4.2224521e-02
5.2815121e-02
6.4456089e-02
7.6426986e-02
8.7511666e-02
9.5238566e-02
9.5169104e-02
8.3468418e-02
6.2450452e-02
3.9814017e-02
2.2552570e-02
1.4098586e-02
1.3770929e-02
1.7838395e-02
2.1075976e-02
1.8042372e-02
7.0609996e-03
-6.9833625e-03
-1.6964101e-02
-1.9861790e-02
-1.6346212e-02
-7.8639804e-03
2.8700659e-03
1.0792328e-02
9.7060359e-03
-3.7141738e-03
-2.5553401e-02
-4.6111496e-02
-5.6969791e-02
-5.5111292e-02
-4.2649769e-02
-2.4604842e-02
-5.4666256e-03
1.1785862e-02
2.5444517e-02
3.4373060e-02
3.5056229e-02
2.3343461e-02
2.1823157e-04
-2.6919370e-02
-4.8454673e-02
-5.8851337e-02
-5.8938204e-02
-5.3031756e-02
-4.5713361e-02
-4.1140957e-02
-4.1794813e-02
-4.6010956e-02
-4.9338595e-02
-4.8662454e-02
-4.3604019e-02
-3.5245112e-02
-2.5846140e-02
-1.8106874e-02
-1.3558844e-02
-1.2003768e-02
-1.1820387e-02
-1.1149726e-02
-8.6179479e-03
-3.4686760e-03
3.9676708e-03
1.2183511e-02
1.9824644e-02
2.6704507e-02
3.2627554e-02
3.6471858e-02
3.6268414e-02
3.0593316e-02
2.1258679e-02
1.2598567e-02
8.3711491e-03
9.9746200e-03
1.5729574e-02
2.1562044e-02
2.3294874e-02
1.9806134e-02
1.3782978e-02
9.2561801e-03
8.6728282e-03
1.2079478e-02
1.8043623e-02
2.4045295e-02
2.6923555e-02
2.3860590e-02
1.4819265e-02
3.9604388e-03
-3.3851207e-03
-4.2317934e-03
1.2587174e-03
1.1130338e-02
2.3352535e-02
3.6341426e-02
4.9647437e-02
6.4186891e-02
8.0473338e-02
9.4968580e-02
9.9179898e-02
8.6054043e-02
5.6421303e-02
1.8637051e-02
-1.7976538e-02
-5.0807638e-02
-8.0266871e-02
-1.0286639e-01
-1.1646486e-01
-1.2275754e-01
-1.2411208e-01
-1.2274931e-01
-1.1905619e-01
-1.1246529e-01
-1.0239624e-01
-8.8275695e-02
-7.1208699e-02
-5.3119465e-02
-3.5117711e-02
-1.7201170e-02
1.4446195e-03
2.1466581e-02
4.2922174e-02
6.4408771e-02
8.2555769e-02
9.3911479e-02
9.6980664e-02
9.3318891e-02
8.7490585e-02
8.3807229e-02
8.3545311e-02
8.5196942e-02
8.3869059e-02
7.3319143e-02
5.1591387e-02
2.3930552e-02
-1.7576321e-04
-1.3949548e-02
-1.6816597e-02
-1.1643783e-02
-1.7105219e-03
7.9156352e-03
9.7444824e-03
-1.7117301e-03
-2.4938771e-02
-5.1088227e-02
-7.0421783e-02
-7.8286409e-02
-7.4889483e-02
-6.3643359e-02
-4.9142225e-02
-3.5853295e-02
-2.8289797e-02
-2.8377617e-02
-3.2726802e-02
-3.5242638e-02
-3.1548700e-02
-2.1126289e-02
-6.2858562e-03
1.0485222e-02
2.6311899e-02
3.6377697e-02
3.5383386e-02
2.2519630e-02
3.9715754e-03
-1.1479486e-02
-1.8753782e-02
-1.7844382e-02
-1.0803868e-02
-2.9984927e-04
1.0919743e-02
2.0197362e-02
2.5333786e-02
2.6649839e-02
2.6576212e-02
2.8037905e-02
3.3635595e-02
4.4015635e-02
5.7611434e-02
7.2292510e-02
8.6250991e-02
9.6936231e-02
9.9160912e-02
8.6365159e-02
5.5871047e-02
1.3146586e-02
-3.0767313e-02
-6.6576445e-02
-9.0454311e-02
-1.0319138e-01
-1.0758062e-01
-1.0673489e-01
-1.0423031e-01
-1.0267226e-01
-1.0160569e-01
-9.7980306e-02
-8.8384255e-02
-7.1236867e-02
-4.7087248e-02
-1.8183718e-02
1.1299649e-02
3.6435360e-02
5.4567522e-02
6.6569576e-02
7.4968831e-02
8.1002962e-02
8.2730626e-02
7.7946059e-02
6.7578827e-02
5.4870603e-02
4.3399142e-02
3.5127123e-02
2.9806386e-02
2.6065278e-02
2.2034329e-02
1.5164401e-02
3.2911699e-03
-1.2321075e-02
-2.7230897e-02
-3.7163948e-02
-3.9093556e-02
-3.2577121e-02
-1.9774723e-02
-4.3276524e-03
7.9828251e-03
1.1061616e-02
2.4879887e-03
-1.3865281e-02
-2.9750870e-02
-3.8973068e-02
-4.0521582e-02
-3.5587703e-02
-2.6386778e-02
-1.6869650e-02
-1.0447902e-02
-7.9578153e-03
-7.4478423e-03
-5.2387004e-03
1.5245258e-03
1.2687163e-02
2.5480117e-02
3.6678821e-02
4.3425287e-02
4.3045516e-02
3.4699941e-02
2.1126244e-02
7.4100922e-03
-1.5396218e-03
-3.3680183e-03
5.2470345e-04
6.6447653e-03
1.1424617e-02
1.1728059e-02
6.6416372e-03
-1.2320627e-03
-7.9212134e-03
-1.0758942e-02
-8.9221214e-03
-2.9761232e-03
4.7849246e-03
1.0474764e-02
1.1093815e-02
5.9594313e-03
-4.1485529e-03
-1.7026680e-02
-3.1477877e-02
-4.5382666e-02
-5.3069545e-02
-5.2670677e-02
-4.7675254e-02
-4.2571468e-02
-4.1035178e-02
-4.3247544e-02
-4.5758358e-02
-4.4295989e-02
-3.6725491e-02
-2.3611387e-02
-7.1229859e-03
9.7225817e-03
2.4270483e-02
3.4703758e-02
3.9661168e-02
3.7676888e-02
2.8189660e-02
1.2624270e-02
-5.6018070e-03
-2.1858194e-02
-3.2769311e-02
-3.7245659e-02
-3.5848746e-02
-2.9766306e-02
-1.9693080e-02
-6.3191661e-03
9.2437908e-03
2.6557768e-02
4.6025195e-02
6.8418851e-02
9.4421416e-02
1.2389242e-01
1.5577097e-01
1.8753609e-01
2.1154090e-01
2.1341867e-01
1.8130112e-01
1.1845271e-01
4.4110825e-02
-2.0168961e-02
-6.3891108e-02
-8.8143784e-02
-9.8858699e-02
-1.0204907e-01
-1.0258170e-01
-1.0383345e-01
-1.0688312e-01
-1.1037295e-01
-1.1125250e-01
-1.0655372e-01
-9.5702598e-02
-8.0386820e-02
-6.3040912e-02
-4.6274812e-02
-3.2081571e-02
-2.0610514e-02
-1.0677604e-02
-1.4348674e-03
7.0268018e-03
1.4012853e-02
1.8514163e-02
1.9725387e-02
1.6598021e-02
7.3151204e-03
-8.2396669e-03
-2.7294280e-02
-4.5665062e-02
-5.9189662e-02
-6.5596214e-02
-6.5582126e-02
-6.1341451e-02
-5.4765802e-02
-4.6706950e-02
-3.6851933e-02
-2.4638027e-02
-1.0169322e-02
5.8579519e-03
2.3195917e-02
4.3736630e-02
7.0574494e-02
1.0492945e-01
1.4627180e-01
1.9341586e-01
2.4392765e-01
2.8756067e-01
3.0182982e-01
2.6571833e-01
1.8087848e-01
7.5797652e-02
-1.6394345e-02
-7.9680665e-02
-1.1510863e-01
-1.3231398e-01
-1.4271980e-01
-1.5332617e-01
-1.6257102e-01
-1.6443695e-01
-1.5577325e-01
-1.3706297e-01
-1.1110661e-01
-8.2145048e-02
-5.3670788e-02
-2.8213788e-02
-8.2216818e-03
5.1002364e-03
1.3639824e-02
2.2457400e-02
3.7036468e-02
5.9303173e-02
8.7628749e-02
1.1657946e-01
1.3345377e-01
1.2444674e-01
8.7478121e-02
3.5156621e-02
-1.4677841e-02
-5.0942984e-02
-7.3121334e-02
-8.6817234e-02
-9.8730253e-02
-1.1316712e-01
-1.2963072e-01
-1.4374660e-01
-1.5094607e-01
-1.4913273e-01
-1.3865201e-01
-1.2249926e-01
-1.0439983e-01
-8.5992050e-02
-6.7294886e-02
-4.5949267e-02
-1.8624848e-02
1.6459852e-02
5.9942058e-02
1.1035017e-01
1.6548119e-01
2.2408016e-01
2.8584542e-01
3.5006135e-01
4.0690306e-01
4.3310648e-01
4.0459251e-01
3.1813338e-01
1.9952115e-01
8.5450418e-02
-1.2769040e-04
-5.3514962e-02
-8.2946205e-02
-9.6770387e-02
-1.0293298e-01
-1.1254545e-01
-1.3303332e-01
-1.6157607e-01
-1.8801145e-01
-2.0156209e-01
-1.9831458e-01
-1.8242332e-01
-1.6050516e-01
-1.4123559e-01
-1.2969062e-01
-1.2102207e-01
-1.0984740e-01
-9.5220352e-02
-7.9003393e-02
-6.5096557e-02
-5.7771031e-02
-6.1549932e-02
-7.7119610e-02
-9.7371169e-02
-1.1157261e-01
-1.1283314e-01
-1.0026096e-01
-7.6166921e-02
-4.4583344e-02
-1.1530169e-02
1.5903273e-02
3.2386431e-02
3.7750558e-02
3.9351387e-02
4.7779047e-02
6.9611729e-02
1.0571618e-01
1.5187702e-01
2.0440865e-01
2.6295110e-01
3.2155251e-01
3.5944562e-01
3.4679989e-01
2.7288262e-01
1.6565112e-01
6.9591874e-02
9.3346408e-03
-1.7285869e-02
-2.2502566e-02
-1.7773260e-02
-1.4048331e-02
-2.2603088e-02
-5.0383553e-02
-9.3370976e-02
-1.3753417e-01
-1.6888842e-01
-1.8148826e-01
-1.7731103e-01
-1.6342766e-01
-1.4821899e-01
-1.3641033e-01
-1.2809482e-01
-1.2072304e-01
-1.1109499e-01
-9.8081465e-02
-8.2593836e-02
-6.4688188e-02
-4.2375671e-02
-1.3990381e-02
1.9444075e-02
5.4982858e-02
8.9587832e-02
1.2140193e-01
1.4751950e-01
1.5838233e-01
1.4157232e-01
9.7396785e-02
4.4034777e-02
3.2323891e-03
-1.4981316e-02
-1.3762314e-02
-1.7165400e-03
1.3733149e-02
2.8251740e-02
4.0148678e-02
5.0082250e-02
5.8911582e-02
6.5972435e-02
7.0206480e-02
6.8224137e-02
5.2073436e-02
1.6330243e-02
-3.3305138e-02
-8.2640333e-02
-1.1930401e-01
-1.3820630e-01
-1.3970561e-01
-1.2710415e-01
-1.0505159e-01
-7.8839175e-02
-5.2683376e-02
-2.7933157e-02
-3.6829340e-03
2.0352541e-02
3.8980815e-02
4.2637905e-02
2.7950039e-02
5.4946439e-03
-8.0212591e-03
-3.5958678e-03
1.8768400e-02
5.5670404e-02
9.9881161e-02
1.3351378e-01
1.2972623e-01
7.5878700e-02
-7.5870185e-03
-8.3909740e-02
-1.3017697e-01
-1.4370027e-01
-1.3201380e-01
-1.0532743e-01
-7.3441590e-02
-4.4028994e-02
-1.9274333e-02
5.3426251e-03
3.5948450e-02
7.4117020e-02
1.1767999e-01
1.6353083e-01
2.0384156e-01
2.2283883e-01
2.0608591e-01
1.5501607e-01
8.9031908e-02
3.2025728e-02
-3.3076165e-03
-1.7672056e-02
-1.7275170e-02
-9.0670024e-03
-1.2884730e-03
-3.3383292e-03
-2.0252305e-02
-4.7263667e-02
-7.3130068e-02
-8.8460166e-02
-9.0088081e-02
-8.0297089e-02
-6.4167355e-02
-4.8113436e-02
-3.7809795e-02
-3.5065094e-02
-3.7628227e-02
-4.1271983e-02
-4.2541926e-02
-4.0198530e-02
-3.4250526e-02
-2.5589566e-02
-1.5891510e-02
-6.8193827e-03
6.4748605e-05
3.5481360e-03
3.3505089e-03
1.1889037e-04
-4.6191941e-03
-8.3411608e-03
-8.1196074e-03
-2.2811806e-03
7.7343130e-03
1.8302436e-02
2.5983700e-02
2.7997525e-02
2.3264334e-02
1.1615524e-02
-4.5653089e-03
-1.8565434e-02
-2.5615392e-02
-2.4960457e-02
-1.7707156e-02
-6.6199048e-03
5.2946716e-03
1.4633055e-02
1.8662953e-02
1.8825692e-02
1.8499983e-02
1.9575483e-02
2.2490513e-02
2.5955521e-02
2.8100899e-02
2.7062938e-02
2.0460723e-02
6.3667847e-03
-1.6349157e-02
-4.6755247e-02
-8.0423149e-02
-1.1063349e-01
-1.3086880e-01
-1.3760422e-01
-1.3137727e-01
-1.1560491e-01
-9.4638519e-02
-7.2588751e-02
-5.1767594e-02
-3.2733126e-02
-1.6475821e-02
-3.4500313e-03
7.6520392e-03
1.9621396e-02
3.6242150e-02
6.0137861e-02
9.2238212e-02
1.3195805e-01
1.7637034e-01
2.1745003e-01
2.3967249e-01
2.2937291e-01
1.8898233e-01
1.3577901e-01
8.7389153e-02
5.2393489e-02
3.0334761e-02
1.6084898e-02
4.6500862e-03
-7.2817827e-03
-2.0814698e-02
-3.5168423e-02
-4.9551357e-02
-6.3385436e-02
-7.7168465e-02
-9.3920245e-02
-1.1612342e-01
-1.4154135e-01
-1.6381444e-01
-1.7636144e-01
-1.7623983e-01
-1.6460846e-01
-1.4458463e-01
-1.2064418e-01
-9.6233032e-02
-7.1896573e-02
-4.7137835e-02
-2.0680766e-02
8.5587778e-03
3.9327607e-02
6.9359078e-02
9.6929788e-02
1.2170503e-01
1.4543845e-01
1.6981322e-01
1.9050289e-01
1.9258694e-01
1.6224625e-01
1.0435566e-01
3.9646113e-02
-1.1797872e-02
-4.0741488e-02
-4.7932186e-02
-3.8161681e-02
-1.7423836e-02
7.0618331e-03
3.0567518e-02
5.3263667e-02
7.6754339e-02
9.8636338e-02
1.0892713e-01
9.4480918e-02
5.2306386e-02
-2.5268784e-03
-4.9230163e-02
-7.7687438e-02
-8.9007882e-02
-8.8610237e-02
-8.3262388e-02
-7.9654571e-02
-8.0755663e-02
-8.4901105e-02
-8.8412390e-02
-8.7603695e-02
-8.0627984e-02
-6.8506018e-02
-5.3916425e-02
-3.9654055e-02
-2.7322173e-02
-1.7161203e-02
-9.3418371e-03
-3.8452574e-03
-7.3262119e-06
2.9540343e-03
5.9359889e-03
9.4909843e-03
1.3092482e-02
1.5956469e-02
1.7593027e-02
1.7893102e-02
1.7540532e-02
1.8145697e-02
2.2213130e-02
3.1512497e-02
4.5916700e-02
6.4271687e-02
8.5122054e-02
1.0534746e-01
1.1646542e-01
1.0672422e-01
7.1869098e-02
2.2458509e-02
-2.2810952e-02
-5.0668901e-02
-5.8079914e-02
-4.8662568e-02
-2.8543047e-02
-4.2670024e-03
1.8372277e-02
3.4311599e-02
3.8482510e-02
2.8810538e-02
9.6174119e-03
-1.1213047e-02
-2.6879444e-02
-3.3180836e-02
-3.0170200e-02
-2.1403264e-02
-1.1259110e-02
-3.4403396e-03
5.4805839e-04
1.8377875e-03
3.1567965e-03
5.5527575e-03
6.5979263e-03
3.9236906e-03
-2.2708715e-03
-1.0753164e-02
-2.0654043e-02
-3.3601850e-02
-4.9653283e-02
-6.2902785e-02
-6.8978818e-02
-6.7672551e-02
-5.9909821e-02
-4.8338258e-02
-3.6201599e-02
-2.6361644e-02
-2.0185194e-02
-1.6303389e-02
-1.2620414e-02
-8.2077795e-03
-3.6757906e-03
-4.0574319e-04
6.0323659e-04
-1.7105454e-03
-8.1178437e-03
-1.7823816e-02
-2.9376775e-02
-4.1109824e-02
-5.1159681e-02
-5.8237117e-02
-6.0822074e-02
-5.7303828e-02
-4.7503204e-02
-3.3046252e-02
-1.6421086e-02
7.6225765e-04
1.8523652e-02
3.7341418e-02
5.7784672e-02
8.0479522e-02
1.0552530e-01
1.3233598e-01
1.5993818e-01
1.8648348e-01
2.0685367e-01
2.1354661e-01
2.0041834e-01
1.6587458e-01
1.1483189e-01
5.7560640e-02
5.7968851e-03
-3.2197185e-02
-5.4837060e-02
-6.6001096e-02
-7.0464848e-02
-7.2413362e-02
-7.6211405e-02
-8.5032523e-02
-9.8410032e-02
-1.1178423e-01
-1.1958443e-01
-1.1810400e-01
-1.0677755e-01
-8.8427053e-02
-6.7756570e-02
-4.9163415e-02
-3.5207564e-02
-2.6104698e-02
-2.0293302e-02
-1.5783612e-02
-1.1298489e-02
-6.0972533e-03
9.4184100e-04
1.0890523e-02
2.3715308e-02
3.7933397e-02
5.0463962e-02
5.6801489e-02
5.2045547e-02
3.5042369e-02
1.1302021e-02
-1.0608663e-02
-2.4247166e-02
-2.7664303e-02
-2.2126755e-02
-9.9427657e-03
5.3335824e-03
1.7398793e-02
1.8849444e-02
7.5323671e-03
-1.0020518e-02
-2.3494515e-02
-2.6209193e-02
-1.7432194e-02
-6.1978020e-04
1.8873019e-02
3.5422725e-02
4.4877701e-02
4.7606977e-02
4.7262882e-02
4.7300275e-02
5.0234068e-02
5.4813767e-02
5.4282812e-02
4.0608553e-02
1.2896167e-02
-1.9366007e-02
-4.3452902e-02
-5.2504715e-02
-4.7837780e-02
-3.3842685e-02
-1.5377176e-02
2.8219305e-03
1.7670533e-02
2.7301310e-02
3.0577910e-02
2.6431879e-02
1.5285798e-02
5.9914957e-05
-1.5244673e-02
-2.6797776e-02
-3.2615063e-02
-3.2954142e-02
-2.9333649e-02
-2.3850682e-02
-1.8555102e-02
-1.4537441e-02
-1.2072298e-02
-1.1195803e-02
-1.1764982e-02
-1.3833145e-02
-1.6563080e-02
-1.7808736e-02
-1.5822963e-02
-9.6297032e-03
1.2264538e-03
1.6509846e-02
3.4017447e-02
4.8137271e-02
5.0967354e-02
3.7087973e-02
9.5774592e-03
-2.1433465e-02
-4.6375088e-02
-6.0897762e-02
-6.5771629e-02
-6.3884517e-02
-5.8421686e-02
-5.1961683e-02
-4.5216875e-02
-3.7610960e-02
-2.7777504e-02
-1.4069444e-02
3.8501717e-03
2.5089839e-02
4.8274449e-02
7.2022558e-02
9.5898405e-02
1.2052281e-01
1.4538837e-01
1.6506400e-01
1.6891234e-01
1.4784632e-01
1.0365539e-01
4.9211054e-02
-2.1273720e-03
-4.4209015e-02
-7.8470137e-02
-1.0771919e-01
-1.3045184e-01
-1.4532016e-01
-1.5405861e-01
-1.5897146e-01
-1.6047203e-01
-1.5596706e-01
-1.4329995e-01
-1.2232535e-01
-9.3706801e-02
-6.0424019e-02
-2.8087312e-02
-2.4604733e-03
1.5000717e-02
2.9946597e-02
5.1244136e-02
8.4685249e-02
1.2995151e-01
1.8351656e-01
2.3892587e-01
2.7955965e-01
2.8171488e-01
2.3379707e-01
1.4923273e-01
5.7188930e-02
-1.8108907e-02
-6.8151565e-02
-9.5377059e-02
-1.0680159e-01
-1.1089311e-01
-1.1391516e-01
-1.1805833e-01
-1.2138805e-01
-1.2055707e-01
-1.1444663e-01
-1.0548116e-01
-9.7928709e-02
-9.3165793e-02
-8.8184177e-02
-7.8621260e-02
-6.1882629e-02
-3.8745687e-02
-1.2384289e-02
1.3100411e-02
3.4504739e-02
5.0855317e-02
6.2499475e-02
7.0975243e-02
7.8458236e-02
8.6295430e-02
9.4912748e-02
1.0463834e-01
1.1576237e-01
1.2761796e-01
1.3924083e-01
1.4886280e-01
1.5038939e-01
1.3518780e-01
9.9852723e-02
5.0016133e-02
-2.8602084e-03
-4.7806216e-02
-7.9221388e-02
-9.7156056e-02
-1.0521722e-01
-1.0854178e-01
-1.1118610e-01
-1.1477589e-01
-1.1798376e-01
-1.1758236e-01
-1.1151066e-01
-9.9782492e-02
-8.4088329e-02
-6.6642168e-02
-4.8226002e-02
-2.7744458e-02
-3.7257620e-03
2.3275290e-02
5.0874077e-02
7.6531422e-02
9.7759131e-02
1.1127643e-01
1.1177106e-01
9.4328530e-02
6.0483147e-02
2.1135190e-02
-9.1163756e-03
-2.2306134e-02
-1.9903729e-02
-7.0941025e-03
1.1055948e-02
2.7919299e-02
3.3166109e-02
1.7751507e-02
-1.6147714e-02
-5.5348910e-02
-8.6026209e-02
-1.0067709e-01
-9.9099684e-02
-8.5648864e-02
-6.6174968e-02
-4.6766830e-02
-3.1765196e-02
-2.1033364e-02
-1.0824006e-02
2.0332594e-03
1.8414148e-02
3.7484132e-02
5.7322281e-02
7.5199860e-02
8.8177705e-02
9.4742959e-02
9.5612903e-02
9.3267600e-02
9.0386438e-02
8.7130253e-02
7.8790117e-02
5.9397528e-02
2.9154047e-02
-4.7027145e-03
-3.3516426e-02
-5.2316097e-02
-6.0990554e-02
-6.2048051e-02
-5.8834066e-02
-5.5058299e-02
-5.3099427e-02
-5.3165758e-02
-5.3521590e-02
-5.2139342e-02
-4.8664330e-02
-4.3431638e-02
-3.6187410e-02
-2.5948015e-02
-1.2180713e-02
2.9788819e-03
1.4552663e-02
1.7949831e-02
1.2436570e-02
2.1492375e-03
-6.6600171e-03
-9.7740590e-03
-6.0050242e-03
3.6240400e-03
1.6528796e-02
2.9153913e-02
3.8409153e-02
4.3570067e-02
4.6601040e-02
5.0500711e-02
5.7005394e-02
6.4835516e-02
6.8788313e-02
6.1846086e-02
4.0797527e-02
1.0478725e-02
-1.9862729e-02
-4.4228515e-02
-6.1762193e-02
-7.5967715e-02
-8.7814522e-02
-9.1405446e-02
-8.4160895e-02
-6.8865691e-02
-4.9042520e-02
-2.8887190e-02
-1.0175320e-02
8.4601415e-03
2.9048865e-02
5.2777780e-02
7.8523554e-02
1.0265650e-01
1.1956657e-01
1.2325738e-01
1.1064898e-01
8.3706310e-02
4.8204348e-02
1.1291450e-02
-2.1077564e-02
-4.6136489e-02
-6.3994247e-02
-7.6486894e-02
-8.5783359e-02
-9.3216343e-02
-9.9250561e-02
-1.0397917e-01
-1.0713765e-01
-1.0772818e-01
-1.0418206e-01
-9.5330434e-02
-8.0754082e-02
-6.0654316e-02
-3.5994186e-02
-8.8920671e-03
1.7545053e-02
4.0627965e-02
5.9427640e-02
7.5098750e-02
8.9802750e-02
1.0503141e-01
1.2095235e-01
1.3666912e-01
1.5008495e-01
1.5783393e-01
1.5586008e-01
1.4132787e-01
1.1560028e-01
8.3811290e-02
5.0534786e-02
1.8234384e-02
-1.1854503e-02
-3.9109534e-02
-6.2536273e-02
-8.1417989e-02
-9.5998075e-02
-1.0710379e-01
-1.1589668e-01
-1.2272539e-01
-1.2626481e-01
-1.2477479e-01
-1.1775535e-01
-1.0583398e-01
-9.0258006e-02
-7.2974377e-02
-5.6312656e-02
-4.2338904e-02
-3.1267056e-02
-2.1154011e-02
-9.5255920e-03
5.5858690e-03
2.4466153e-02
4.4102537e-02
5.8639882e-02
6.3513758e-02
5.9531968e-02
5.2644939e-02
4.9522861e-02
5.3490654e-02
6.3946467e-02
7.8239376e-02
9.3678439e-02
1.0765608e-01
1.1851135e-01
1.2534873e-01
1.2418506e-01
1.0925152e-01
8.0020911e-02
4.2846275e-02
6.7207111e-03
-2.1494881e-02
-4.0243663e-02
-5.2075005e-02
-6.1317431e-02
-7.2137300e-02
-8.5290402e-02
-9.8368394e-02
-1.0825789e-01
-1.1229795e-01
-1.1010178e-01
-1.0395374e-01
-9.6387709e-02
-8.8681850e-02
-8.0617778e-02
-7.0544993e-02
-5.7688250e-02
-4.3251248e-02
-2.8078100e-02
-1.2194600e-02
4.5222899e-03
2.1931617e-02
3.8929595e-02
5.2956300e-02
6.1594318e-02
6.5089488e-02
6.4666307e-02
6.1409156e-02
5.6626452e-02
5.1333809e-02
4.6645709e-02
4.3148266e-02
3.9806532e-02
3.4810804e-02
2.6490717e-02
1.4210077e-02
-2.8615548e-04
-1.3837537e-02
-2.3436839e-02
-2.7300138e-02
-2.5831619e-02
-2.1068893e-02
-1.5210328e-02
-9.5948213e-03
-4.6442671e-03
-5.9408853e-04
2.1128615e-03
3.2849973e-03
3.1147418e-03
2.7657884e-03
5.0256151e-03
1.2966139e-02
2.7690736e-02
4.8049884e-02
7.1463478e-02
9.2234221e-02
9.9649008e-02
8.3651713e-02
4.6307382e-02
3.1944986e-03
-2.9062703e-02
-4.3259689e-02
-4.1246459e-02
-2.9027657e-02
-1.3739038e-02
-2.8093799e-03
-2.2869784e-03
-1.2289555e-02
-2.7916053e-02
-4.5485675e-02
-6.3193447e-02
-8.1795159e-02
-1.0113904e-01
-1.1544488e-01
-1.2050127e-01
-1.1669332e-01
-1.0600781e-01
-9.1560539e-02
-7.5903244e-02
-5.8848507e-02
-3.7566890e-02
-9.4671768e-03
2.5869637e-02
6.6426016e-02
1.1009936e-01
1.5575905e-01
1.9733601e-01
2.1994826e-01
2.0865829e-01
1.6386673e-01
1.0452955e-01
5.3519580e-02
2.1694196e-02
7.0611839e-03
3.3864606e-03
4.0310142e-03
2.7408359e-03
-4.6080335e-03
-1.8834592e-02
-3.7374149e-02
-5.6051843e-02
-7.0850530e-02
-7.9588472e-02
-8.3221087e-02
-8.4461894e-02
-8.5262944e-02
-8.5981377e-02
-8.6014486e-02
-8.4746635e-02
-8.2313019e-02
-7.9111727e-02
-7.4754173e-02
-6.8136241e-02
-5.8319926e-02
-4.5070459e-02
-2.8903527e-02
-1.0509879e-02
9.3046642e-03
2.9260616e-02
4.7798603e-02
6.3321004e-02
7.4569273e-02
8.1688487e-02
8.6571216e-02
9.1391775e-02
9.7398554e-02
1.0440460e-01
1.1047197e-01
1.1158524e-01
1.0320897e-01
8.3615594e-02
5.5022236e-02
2.2846657e-02
-6.4080353e-03
-2.8464112e-02
-4.1992370e-02
-4.7966975e-02
-4.9035603e-02
-4.7685640e-02
-4.5012793e-02
-4.1058441e-02
-3.6287643e-02
-3.1331975e-02
-2.6235222e-02
-2.1004341e-02
-1.5848319e-02
-1.1505351e-02
-9.7600387e-03
-1.2535714e-02
-1.9490909e-02
-2.8144365e-02
-3.5932985e-02
-4.1476709e-02
-4.4781752e-02
-4.6557290e-02
-4.7630446e-02
-4.8196055e-02
-4.7654660e-02
-4.4948998e-02
-3.9415755e-02
-3.1425208e-02
-2.1706200e-02
-1.1280600e-02
-7.7066998e-04
1.0222217e-02
2.2222133e-02
3.6090057e-02
5.2831253e-02
7.2380478e-02
9.2897147e-02
1.1091398e-01
1.2162264e-01
1.2112944e-01
1.1039436e-01
9.4104096e-02
7.5900486e-02
5.5747089e-02
3.2017742e-02
4.8790092e-03
-2.2800393e-02
-4.6939789e-02
-6.5064116e-02
-7.6377976e-02
-8.1162906e-02
-8.0659523e-02
-7.6271400e-02
-7.0224409e-02
-6.4910736e-02
-6.0879641e-02
-5.7191794e-02
-5.2135875e-02
-4.3208603e-02
-2.9335603e-02
-1.2528431e-02
4.3348942e-03
1.8912324e-02
2.9770437e-02
3.6590775e-02
3.8970012e-02
3.5022150e-02
2.2156390e-02
1.4016704e-03
-2.2022784e-02
-4.2314467e-02
-5.5630526e-02
-6.1307016e-02
-6.0604279e-02
-5.5041222e-02
-4.6132448e-02
-3.5648983e-02
-2.5296709e-02
-1.5066131e-02
-2.8249885e-03
1.3785134e-02
3.5894193e-02
6.3049356e-02
9.3440054e-02
1.2449570e-01
1.5448058e-01
1.8237891e-01
2.0523501e-01
2.1782219e-01
2.1288423e-01
1.8354703e-01
1.3080617e-01
6.6264072e-02
5.3782879e-03
-4.0937406e-02
-7.1446661e-02
-9.2268381e-02
-1.0991379e-01
-1.3077908e-01
-1.5548829e-01
-1.7474563e-01
-1.8191080e-01
-1.7716304e-01
-1.6290962e-01
-1.4357435e-01
-1.2405039e-01
-1.0800451e-01
-9.5534987e-02
-8.2387041e-02
-6.3947435e-02
-3.8037901e-02
-5.2955268e-03
3.0885673e-02
6.6564198e-02
9.7814728e-02
1.1995670e-01
1.2951635e-01
1.2544826e-01
1.1024122e-01
9.0125901e-02
7.2097442e-02
6.1374278e-02
5.9525716e-02
6.4250294e-02
7.1399887e-02
7.6392754e-02
7.4431885e-02
6.0597244e-02
3.2467983e-02
-5.7761929e-03
-4.4095908e-02
-7.3309511e-02
-8.9829956e-02
-9.4584524e-02
-9.0754502e-02
-8.1811520e-02
-7.0910381e-02
-6.1289983e-02
-5.5400008e-02
-5.3763079e-02
-5.4434730e-02
-5.3373546e-02
-4.7371085e-02
-3.6556285e-02
-2.2926113e-02
-9.2999013e-03
1.4513502e-03
8.6911245e-03
1.4296421e-02
2.0544092e-02
2.9043420e-02
4.0161058e-02
5.2221806e-02
6.3303658e-02
7.2418735e-02
7.8934126e-02
8.1962478e-02
7.9348238e-02
6.7873178e-02
4.5600119e-02
1.5841914e-02
-1.2505419e-02
-3.1107489e-02
-3.6934803e-02
-3.1805304e-02
-2.0753567e-02
-9.9846156e-03
-4.4392638e-03
-5.6868923e-03
-1.1127331e-02
-1.6135561e-02
-1.7598876e-02
-1.5497830e-02
-1.1884233e-02
-9.9626648e-03
-1.2501520e-02
-1.9217046e-02
-2.7297380e-02
-3.3593417e-02
-3.6015891e-02
-3.4270579e-02
-2.9325546e-02
-2.2749898e-02
-1.6591384e-02
-1.2781998e-02
-1.1743390e-02
-1.2049825e-02
-1.1194924e-02
-6.8861080e-03
1.3713759e-03
1.1487652e-02
1.9473538e-02
2.2616838e-02
2.1796604e-02
1.9960898e-02
1.9680370e-02
2.1750797e-02
2.5084715e-02
2.7788537e-02
2.8189791e-02
2.5684686e-02
2.1427905e-02
1.7542093e-02
1.5630180e-02
1.5900716e-02
1.7209915e-02
1.7505095e-02
1.4765814e-02
8.6741189e-03
6.8904518e-04
-7.1247481e-03
-1.3374099e-02
-1.7513960e-02
-1.8967681e-02
-1.7065435e-02
-1.1696058e-02
-3.7977664e-03
5.1950539e-03
1.3726069e-02
1.9744917e-02
2.0959596e-02
1.6731977e-02
9.6465140e-03
3.9461845e-03
2.7386987e-03
6.7597579e-03
1.3906826e-02
1.8877545e-02
1.4627917e-02
-3.3824830e-03
-3.2778307e-02
-6.4615820e-02
-8.8457956e-02
-9.7976452e-02
-9.2769834e-02
-7.6124274e-02
-5.2844143e-02
-2.7889476e-02
-5.4888661e-03
1.2230731e-02
2.6088050e-02
3.8734364e-02
5.2877451e-02
6.9619600e-02
8.8219858e-02
1.0696383e-01
1.2274650e-01
1.2957376e-01
1.2158535e-01
9.8348935e-02
6.5619727e-02
3.2558369e-02
6.3887396e-03
-1.1441556e-02
-2.2643173e-02
-3.0386321e-02
-3.9180412e-02
-5.1361555e-02
-6.8563240e-02
-8.9774757e-02
-1.0772705e-01
-1.1726548e-01
-1.1804265e-01
-1.1127486e-01
-1.0006270e-01
-8.7517242e-02
-7.5572129e-02
-6.4651773e-02
-5.3713422e-02
-4.2235578e-02
-3.1245644e-02
-2.2541766e-02
-1.6668440e-02
-1.1834273e-02
-5.6723319e-03
3.4297125e-03
1.6527636e-02
3.2578058e-02
4.8484372e-02
6.1213958e-02
6.8704466e-02
7.1588860e-02
7.3422145e-02
7.7371056e-02
8.3595584e-02
9.0803125e-02
9.7449491e-02
1.0106288e-01
9.8627408e-02
8.8436828e-02
7.1262287e-02
4.9393002e-02
2.7196235e-02
9.0875797e-03
-3.8660222e-03
-1.3058498e-02
-2.0776219e-02
-2.8785623e-02
-3.7157437e-02
-4.5128275e-02
-5.2528904e-02
-5.9429876e-02
-6.5469570e-02
-6.9939668e-02
-7.1884934e-02
-7.0170745e-02
-6.4063409e-02
-5.3762326e-02
-4.0480028e-02
-2.6302027e-02
-1.3415017e-02
-3.5838478e-03
2.1419840e-03
4.0353324e-03
3.1754007e-03
9.5776068e-04
-4.2745010e-04
6.5442947e-04
4.0246344e-03
8.3553623e-03
1.1734282e-02
1.2864980e-02
1.2288619e-02
1.1272857e-02
1.0391451e-02
1.0422507e-02
1.2190229e-02
1.5324582e-02
1.9028001e-02
2.1835796e-02
2.2370060e-02
2.1312209e-02
2.0579752e-02
2.2354502e-02
2.8143973e-02
3.7812188e-02
4.9829940e-02
6.2360664e-02
7.2259967e-02
7.2863997e-02
5.7807693e-02
2.7425891e-02
-1.0404267e-02
-4.5199190e-02
-6.9629651e-02
-8.1758412e-02
-8.3533948e-02
-7.8545419e-02
-7.0987261e-02
-6.4297584e-02
-5.9837772e-02
-5.6533520e-02
-5.2098971e-02
-4.4798449e-02
-3.4711456e-02
-2.4215671e-02
-1.6253610e-02
-1.2437952e-02
-1.1435516e-02
-9.4333652e-03
-3.2346662e-03
8.5851616e-03
2.5651068e-02
4.5814343e-02
6.5557168e-02
8.1165722e-02
9.0683455e-02
9.4719250e-02
9.5313825e-02
9.4214654e-02
9.1611016e-02
8.4968133e-02
7.0910817e-02
4.8659454e-02
2.0803043e-02
-7.8180484e-03
-3.1936164e-02
-4.8224972e-02
-5.6478150e-02
-5.8536762e-02
-5.7339000e-02
-5.6533060e-02
-5.8589923e-02
-6.2940791e-02
-6.6980632e-02
-6.7568909e-02
-6.2567725e-02
-5.2807009e-02
-4.1692694e-02
-3.3138217e-02
-2.9987312e-02
-3.2082499e-02
-3.5631966e-02
-3.6531167e-02
-3.3484704e-02
-2.7764697e-02
-2.1696960e-02
-1.6964832e-02
-1.3340318e-02
-8.9946540e-03
-2.0354180e-03
7.8069823e-03
1.9717031e-02
3.2695007e-02
4.5723488e-02
5.9462671e-02
7.5828401e-02
9.6472386e-02
1.2262758e-01
1.5342180e-01
1.8236890e-01
1.9503896e-01
1.7535349e-01
1.1954103e-01
4.3089847e-02
-3.0983590e-02
-8.9612070e-02
-1.3142154e-01
-1.6106633e-01
-1.8207086e-01
-1.9155006e-01
-1.8699551e-01
-1.6984632e-01
-1.4274095e-01
-1.0938110e-01
-7.3127688e-02
-3.5566416e-02
3.2505809e-03
4.3073494e-02
8.2963893e-02
1.2195802e-01
1.5607119e-01
1.7594698e-01
1.7157611e-01
1.4078125e-01
9.3881605e-02
4.8274309e-02
1.6158823e-02
-4.0725657e-04
-5.5100877e-03
-5.0413542e-03
-5.0669066e-03
-1.1083686e-02
-2.5334986e-02
-4.5257473e-02
-6.4737285e-02
-7.6991058e-02
-7.8406247e-02
-6.9699572e-02
-5.4330749e-02
-3.7040002e-02
-2.1548358e-02
-9.4473917e-03
-3.2033117e-03
-6.6322545e-03
-1.9781983e-02
-3.5317091e-02
-4.2052631e-02
-3.2462370e-02
-6.9415502e-03
2.8379399e-02
6.7532726e-02
1.0521951e-01
1.3246228e-01
1.3706147e-01
1.1267526e-01
6.6853249e-02
1.7144110e-02
-2.0288984e-02
-3.9432463e-02
-4.3387385e-02
-3.9005195e-02
-3.3630120e-02
-3.2151498e-02
-3.6133183e-02
-4.4754234e-02
-5.5255388e-02
-6.3773518e-02
-6.6946913e-02
-6.3024906e-02
-5.2097357e-02
-3.5842037e-02
-1.7348095e-02
-1.6654675e-03
5.5903961e-03
2.8989311e-03
-4.1687948e-03
-7.1411494e-03
-1.5261971e-03
1.2739781e-02
3.3339135e-02
5.7000326e-02
8.1371072e-02
1.0377234e-01
1.1884158e-01
1.1948763e-01
1.0214628e-01
7.1125640e-02
3.6644365e-02
7.6597188e-03
-1.3112055e-02
-2.7430455e-02
-3.8529609e-02
-4.9552422e-02
-6.2608190e-02
-7.8425542e-02
-9.5855368e-02
-1.1224269e-01
-1.2496003e-01
-1.3172275e-01
-1.3019213e-01
-1.1958976e-01
-1.0155289e-01
-7.9661022e-02
-5.9330188e-02
-4.4736941e-02
-3.5555856e-02
-2.7852761e-02
-1.6964334e-02
-4.3328016e-05
2.3294864e-02
5.1355930e-02
8.1169129e-02
1.1063345e-01
1.3932554e-01
1.6788233e-01
1.9736263e-01
2.2489067e-01
2.4048062e-01
2.3295063e-01
1.9797528e-01
1.4108509e-01
7.5715033e-02
1.5763163e-02
-3.1296414e-02
-6.4285188e-02
-8.5748182e-02
-1.0068265e-01
-1.1401930e-01
-1.2776359e-01
-1.4101944e-01
-1.5121189e-01
-1.5574607e-01
-1.5429825e-01
-1.4812180e-01
-1.3833602e-01
-1.2593734e-01
-1.1027030e-01
-8.8804443e-02
-5.9671421e-02
-2.3080732e-02
1.9064891e-02
6.4867586e-02
1.1266934e-01
1.5755281e-01
1.8768083e-01
1.8910731e-01
1.5847163e-01
1.1025584e-01
6.7137871e-02
4.2700298e-02
3.7533109e-02
4.5892319e-02
6.0685808e-02
7.3488568e-02
7.2577343e-02
4.8603331e-02
5.2280169e-03
-4.1066617e-02
-7.4351936e-02
-8.8484102e-02
-8.6091960e-02
-7.5273043e-02
-6.5294705e-02
-6.2074007e-02
-6.6038073e-02
-7.3844203e-02
-8.3121603e-02
-9.5831344e-02
-1.1048453e-01
-1.1777235e-01
-1.1303140e-01
-9.8729065e-02
-7.8236832e-02
-5.5052710e-02
-3.1160244e-02
-7.3970784e-03
1.5834939e-02
3.8736601e-02
6.0814090e-02
8.1287921e-02
1.0001025e-01
1.1686654e-01
1.3155151e-01
1.4367159e-01
1.5160673e-01
1.5223248e-01
1.4213225e-01
1.1936380e-01
8.6506733e-02
5.1134876e-02
2.0956868e-02
-3.5258741e-04
-1.3593755e-02
-2.3049447e-02
-3.5412985e-02
-5.7365722e-02
-8.9901029e-02
-1.2543397e-01
-1.5294538e-01
-1.6564177e-01
-1.6322531e-01
-1.4936974e-01
-1.2922990e-01
-1.0910418e-01
-9.5244459e-02
-8.9964989e-02
-9.0130849e-02
-8.7939833e-02
-7.5311373e-02
-4.9197743e-02
-1.0596241e-02
3.7509081e-02
9.1592084e-02
1.4855726e-01
2.0686018e-01
2.6487598e-01
3.1111248e-01
3.2211269e-01
2.7684312e-01
1.7555470e-01
4.8138902e-02
-6.2941244e-02
-1.3076496e-01
-1.5252388e-01
-1.3907495e-01
-1.0362281e-01
-5.9200653e-02
-1.9721879e-02
5.5354348e-03
1.6878333e-02
2.1826005e-02
2.8857230e-02
4.1218996e-02
5.6493064e-02
6.6196853e-02
5.8044296e-02
2.7196582e-02
-1.6460504e-02
-5.5108832e-02
-7.6632217e-02
-7.9236388e-02
-6.7103072e-02
-4.7998422e-02
-3.2431672e-02
-2.8896814e-02
-3.7533799e-02
-4.9428402e-02
-5.3625091e-02
-4.5066265e-02
-2.4830865e-02
2.7334186e-03
2.9036962e-02
4.4290687e-02
4.4081450e-02
3.0546396e-02
1.0530233e-02
-8.8293511e-03
-2.3357926e-02
-3.0856289e-02
-3.1840586e-02
-2.9089449e-02
-2.4429382e-02
-1.8428690e-02
-1.2551031e-02
-1.0925726e-02
-1.8134047e-02
-3.2873231e-02
-4.6512917e-02
-5.0140392e-02
-4.0882881e-02
-2.1062993e-02
4.6841284e-03
3.1137248e-02
5.3770423e-02
7.0598303e-02
8.3028041e-02
9.1943972e-02
9.4672311e-02
8.8477874e-02
7.3873077e-02
5.4641312e-02
3.6511007e-02
2.3231838e-02
1.4976535e-02
8.9051611e-03
4.1620148e-04
-1.3683558e-02
-3.3852503e-02
-5.8206552e-02
-8.2669270e-02
-1.0162305e-01
-1.1044218e-01
-1.0770237e-01
-9.4921750e-02
-7.5551511e-02
-5.4721592e-02
-3.7323310e-02
-2.5423932e-02
-1.7182551e-02
-7.7143559e-03
6.9198204e-03
2.7242999e-02
5.1153387e-02
7.3889169e-02
8.8880865e-02
9.2086058e-02
8.5475752e-02
7.6376771e-02
7.2526803e-02
7.7034827e-02
8.8677889e-02
1.0386469e-01
1.1610778e-01
1.1751691e-01
1.0347443e-01
7.4963787e-02
3.7818280e-02
2.6868618e-04
-3.1209005e-02
-5.3556706e-02
-6.6310648e-02
-7.1464208e-02
-7.2204905e-02
-7.0701715e-02
-6.8156453e-02
-6.6062796e-02
-6.6223022e-02
-7.2264260e-02
-8.4307996e-02
-9.5100392e-02
-9.9629047e-02
-9.7237729e-02
-8.8106296e-02
-7.3935199e-02
-5.6695556e-02
-3.9161742e-02
-2.5133111e-02
-1.7139262e-02
-1.5506838e-02
-1.7885755e-02
-1.9747524e-02
-1.6822183e-02
-8.1322618e-03
4.4347435e-03
1.8032449e-02
2.9652018e-02
3.8639822e-02
4.7919540e-02
6.0957009e-02
7.8298413e-02
9.8168782e-02
1.1614610e-01
1.2523041e-01
1.2039479e-01
1.0055316e-01
6.7233805e-02
2.4151301e-02
-2.1323726e-02
-6.0130711e-02
-8.6189642e-02
-9.8442140e-02
-9.9845620e-02
-9.3830699e-02
-8.3169575e-02
-6.9681053e-02
-5.3913886e-02
-3.6468512e-02
-1.8348261e-02
-9.9798714e-04
1.4143176e-02
2.7161748e-02
3.9844397e-02
5.3785862e-02
6.9473497e-02
8.6996520e-02
1.0604521e-01
1.2494998e-01
1.3959514e-01
1.4278931e-01
1.2657864e-01
8.8876265e-02
3.8964282e-02
-7.3346773e-03
-3.9015577e-02
-5.4623168e-02
-5.8921052e-02
-5.8242418e-02
-5.7788790e-02
-6.0276958e-02
-6.5900143e-02
-7.2810843e-02
-7.7899316e-02
-7.8715236e-02
-7.4813993e-02
-6.7535314e-02
-5.9460895e-02
-5.3077331e-02
-4.8718533e-02
-4.4923882e-02
-4.0074385e-02
-3.3471327e-02
-2.5657242e-02
-1.7600062e-02
-9.7158988e-03
-1.7127022e-03
6.3144968e-03
1.3861457e-02
2.0786061e-02
2.7289564e-02
3.3338647e-02
3.8422807e-02
4.2277024e-02
4.5832241e-02
5.1521276e-02
6.1738624e-02
7.6611169e-02
9.2788938e-02
1.0363287e-01
1.0032727e-01
7.7471771e-02
3.9931588e-02
1.3125556e-03
-2.4656340e-02
-3.2290944e-02
-2.3554916e-02
-2.1156785e-03
2.6772853e-02
4.9794720e-02
4.6924719e-02
8.5549978e-03
-5.1091210e-02
-1.0555634e-01
-1.3803367e-01
-1.4676593e-01
-1.3825314e-01
-1.2195246e-01
-1.0678365e-01
-9.7761090e-02
-9.3945833e-02
-8.8983665e-02
-7.5753024e-02
-5.1652205e-02
-1.8987784e-02
1.5321343e-02
4.1826309e-02
5.4399968e-02
5.3046333e-02
4.4553256e-02
3.8390272e-02
4.0482997e-02
5.3289845e-02
7.5439955e-02
1.0322255e-01
1.3384187e-01
1.6129341e-01
1.7152697e-01
1.4834789e-01
8.9737853e-02
1.5326882e-02
-4.7474481e-02
-8.2822500e-02
-9.0917252e-02
-8.0127206e-02
-6.0678097e-02
-4.0488077e-02
-2.2334359e-02
-5.8804226e-03
8.7825609e-03
1.9138211e-02
2.1637375e-02
1.6298504e-02
8.6865009e-03
5.6606499e-03
1.0538954e-02
2.3217312e-02
4.1691557e-02
6.4452319e-02
9.0794429e-02
1.1610018e-01
1.2813751e-01
1.1168306e-01
6.3226329e-02
-1.3132317e-03
-5.9039438e-02
-9.7861403e-02
-1.1983835e-01
-1.3267503e-01
-1.4587519e-01
-1.6232629e-01
-1.7295017e-01
-1.7179775e-01
-1.6021812e-01
-1.4007204e-01
-1.1449019e-01
-8.6534296e-02
-5.8031457e-02
-3.0272597e-02
-3.8453556e-03
2.1630266e-02
4.7851022e-02
7.6685100e-02
1.0789985e-01
1.3978108e-01
1.6927875e-01
1.8895646e-01
1.9042785e-01
1.7193908e-01
1.3926763e-01
1.0092699e-01
6.4221718e-02
3.3809957e-02
1.2119985e-02
-2.3458092e-04
-5.3334837e-03
-6.1678865e-03
-4.6609605e-03
-4.0519005e-03
-1.0646342e-02
-3.0109286e-02
-6.1281460e-02
-9.4115666e-02
-1.1649852e-01
-1.2233743e-01
-1.1226758e-01
-9.0866389e-02
-6.3843537e-02
-3.7335099e-02
-1.8367028e-02
-1.1084352e-02
-1.3215084e-02
-1.7776284e-02
-1.7584828e-02
-9.8249676e-03
3.9632874e-03
2.0483724e-02
3.5243271e-02
4.3464440e-02
4.2667517e-02
3.4320577e-02
2.2775491e-02
1.2572132e-02
6.7573044e-03
6.3170793e-03
1.0152269e-02
1.6027404e-02
2.1027052e-02
2.2929105e-02
2.2623335e-02
2.2691099e-02
2.4548618e-02
2.8304139e-02
3.1914667e-02
3.1041954e-02
2.2374746e-02
6.3693649e-03
-1.3196068e-02
-3.1205378e-02
-4.3677585e-02
-4.9897073e-02
-5.1501906e-02
-5.0847414e-02
-5.0341195e-02
-5.1261431e-02
-5.3125719e-02
-5.3698942e-02
-5.0299422e-02
-4.1786158e-02
-2.9202342e-02
-1.5128901e-02
-2.7633081e-03
5.9303244e-03
1.1741389e-02
1.6176240e-02
1.9649729e-02
2.2474907e-02
2.5476864e-02
2.9820630e-02
3.6140238e-02
4.4545777e-02
5.4642510e-02
6.4613629e-02
7.2189023e-02
7.4815793e-02
6.8610872e-02
4.9973648e-02
1.9962740e-02
-1.4391648e-02
-4.3724072e-02
-6.1552164e-02
-6.7411002e-02
-6.4490938e-02
-5.6023220e-02
-4.4395280e-02
-3.1650059e-02
-1.9403257e-02
-8.3111731e-03
2.5281620e-03
1.5117455e-02
3.0975231e-02
5.0119711e-02
7.0527381e-02
8.7975573e-02
9.6096218e-02
8.8184441e-02
6.2518067e-02
2.7233107e-02
-4.2171679e-03
-2.2889429e-02
-2.7786124e-02
-2.3325463e-02
-1.5725225e-02
-1.0911730e-02
-1.2552738e-02
-2.0736271e-02
-3.2722043e-02
-4.5064021e-02
-5.6041746e-02
-6.5695023e-02
-7.6523581e-02
-9.2987455e-02
-1.1624243e-01
-1.4096340e-01
-1.5799615e-01
-1.5970868e-01
-1.4377140e-01
-1.1321043e-01
-7.3916147e-02
-3.3866404e-02
-1.6990475e-03
1.8216996e-02
2.9285067e-02
4.0705829e-02
6.0549840e-02
9.1888687e-02
1.3399238e-01
1.8414107e-01
2.3972560e-01
2.9886221e-01
3.6026160e-01
4.2294633e-01
4.8144529e-01
5.2168748e-01
5.2742142e-01
4.9409670e-01
4.3508371e-01
3.7073505e-01
3.1344472e-01
2.6332893e-01
