-2.1160736e-02
-5.9407724e-02
-8.3861427e-02
-9.1144843e-02
-8.5855436e-02
-8.8689429e-02
-1.0960734e-01
-1.3137883e-01
-1.4180411e-01
-1.3840191e-01
-1.3540196e-01
-1.4696428e-01
-1.6203059e-01
-1.6982616e-01
-1.6795483e-01
-1.6017415e-01
-1.4926830e-01
-1.3271650e-01
-1.1080407e-01
-8.3766131e-02
-6.3218692e-02
-5.9241929e-02
-6.0243766e-02
-5.3305869e-02
-3.3978217e-02
-8.6811235e-03
1.6387873e-02
4.0010488e-02
5.6291892e-02
6.9334030e-02
8.5214556e-02
1.0887092e-01
1.5276349e-01
2.2374979e-01
3.1661587e-01
4.0097635e-01
4.3454196e-01
3.9550470e-01
2.9483310e-01
1.7644493e-01
7.7080430e-02
1.4670166e-03
-5.4383088e-02
-9.3721202e-02
-1.2531166e-01
-1.6177462e-01
-1.9940317e-01
-2.2953630e-01
-2.5456953e-01
-2.7226391e-01
-2.8610739e-01
-2.9789094e-01
-3.0329412e-01
-3.0193120e-01
-2.8923550e-01
-2.6316754e-01
-2.2412951e-01
-1.7283188e-01
-1.1019122e-01
-3.8458070e-02
3.6670660e-02
1.1630781e-01
1.9751250e-01
2.6645313e-01
3.1378146e-01
3.2891912e-01
3.0953218e-01
2.6013300e-01
1.8181853e-01
9.5671337e-02
2.0301928e-02
-3.7829868e-02
-7.2098760e-02
-8.8468135e-02
-1.0521618e-01
-1.3789797e-01
-1.7494220e-01
-1.8992675e-01
-1.6736620e-01
-1.0802762e-01
-2.7705949e-02
6.0571438e-02
1.4713710e-01
2.1109775e-01
2.3803787e-01
2.2447152e-01
1.7537679e-01
1.0417118e-01
2.9773770e-02
-2.0647036e-02
-4.0742173e-02
-4.0019876e-02
-3.3358444e-02
-4.2322300e-02
-6.7752334e-02
-9.0416606e-02
-8.8548376e-02
-5.5864365e-02
6.5503428e-03
9.2787151e-02
1.7510361e-01
2.2986453e-01
2.3651419e-01
1.7965864e-01
8.5946986e-02
-2.3254605e-03
-6.4750813e-02
-1.0329268e-01
-1.1812512e-01
-1.0378724e-01
-7.1449830e-02
-3.2866127e-02
-3.5788094e-03
-7.5078424e-03
-4.3831957e-02
-8.2884768e-02
-9.3462027e-02
-6.5879606e-02
-3.9761640e-04
9.1148929e-02
1.7139595e-01
2.1243641e-01
2.0114245e-01
1.3656428e-01
4.2144737e-02
-5.9051485e-02
-1.4564389e-01
-2.0216617e-01
-2.2735322e-01
-2.2901638e-01
-2.2232740e-01
-2.1183599e-01
-1.9640503e-01
-1.7872962e-01
-1.5884196e-01
-1.3078906e-01
-8.5090544e-02
-2.8567706e-02
3.4997187e-02
1.1644597e-01
2.0781279e-01
2.9599583e-01
3.6345981e-01
3.7823484e-01
3.2313460e-01
2.2076750e-01
1.1505509e-01
2.2577690e-02
-4.8504777e-02
-8.3850665e-02
-8.7993133e-02
-6.8285573e-02
-3.3885848e-02
-1.1750069e-03
1.5615370e-02
1.4563318e-02
1.0719424e-02
3.7388649e-03
-7.5743941e-03
-9.3823569e-03
-2.3029762e-03
1.4682762e-02
4.5243831e-02
8.2602244e-02
1.0005155e-01
7.9441674e-02
4.6124606e-02
1.5371531e-02
-1.4500089e-02
-4.5720818e-02
-8.1519758e-02
-1.0637284e-01
-1.1506402e-01
-1.2030715e-01
-1.2668765e-01
-1.2681715e-01
-1.1554834e-01
-1.0208162e-01
-9.5927644e-02
-1.0169172e-01
-1.1668195e-01
-1.2788837e-01
-1.2975014e-01
-1.2656135e-01
-1.2504975e-01
-1.2228706e-01
-1.0782011e-01
-8.4777224e-02
-5.6090757e-02
-2.3558706e-02
7.2685393e-03
4.1863580e-02
8.3643801e-02
1.2837385e-01
1.6493658e-01
1.9010034e-01
2.1407134e-01
2.3218529e-01
2.4568433e-01
2.4840204e-01
2.2233034e-01
1.8774640e-01
1.6388230e-01
1.4541947e-01
1.1770441e-01
7.3918493e-02
2.8411746e-02
-1.4141090e-02
-5.2635760e-02
-8.0978124e-02
-1.0023728e-01
-1.1212429e-01
-1.1721099e-01
-1.1723357e-01
-1.2035032e-01
-1.2833035e-01
-1.3532298e-01
-1.4104874e-01
-1.3699847e-01
-1.3030501e-01
-1.3672765e-01
-1.4427907e-01
-1.4423469e-01
-1.4148043e-01
-1.3720429e-01
-1.2070305e-01
-8.4796251e-02
-4.4223999e-02
-1.4374060e-02
-5.6185539e-03
-1.5499220e-02
-2.0533258e-02
-1.0612064e-02
5.0882490e-03
1.1413031e-02
8.6154129e-03
1.3262540e-02
3.3023987e-02
7.3934059e-02
1.1454656e-01
1.3138452e-01
1.4095642e-01
1.5359540e-01
1.6391843e-01
1.6274956e-01
1.5616273e-01
1.5350502e-01
1.4919638e-01
1.4951807e-01
1.3497793e-01
8.7563853e-02
4.1414121e-02
1.8008443e-02
7.5218191e-03
-9.0443914e-03
-3.4085569e-02
-5.3301472e-02
-6.3655784e-02
-5.9345747e-02
-5.1494181e-02
-5.5279298e-02
-5.6222316e-02
-4.5354411e-02
-2.8159094e-02
-1.2332216e-02
3.3410488e-03
2.5012387e-02
5.3440713e-02
8.8831052e-02
1.0360639e-01
7.8531610e-02
3.8101779e-02
-5.7713444e-03
-5.9827898e-02
-1.2105313e-01
-1.6946771e-01
-1.9376915e-01
-2.0393305e-01
-2.0547330e-01
-2.1070210e-01
-2.2984482e-01
-2.4926292e-01
-2.5518760e-01
-2.4285179e-01
-2.1052840e-01
-1.5459254e-01
-8.1890113e-02
-2.3242296e-03
7.7928546e-02
1.2933157e-01
1.4345027e-01
1.5254315e-01
1.7481154e-01
2.0775755e-01
2.3591553e-01
2.5211117e-01
2.6220017e-01
2.6951164e-01
2.8482206e-01
2.9258723e-01
2.7594255e-01
2.5096250e-01
2.2067170e-01
1.7466595e-01
1.0406104e-01
1.9884261e-02
-7.1093054e-02
-1.7332746e-01
-2.6034138e-01
-3.1214010e-01
-3.2907556e-01
-3.1493784e-01
-2.7531060e-01
-2.1187154e-01
-1.3012875e-01
-3.5023232e-02
5.4533271e-02
1.1910448e-01
1.4970947e-01
1.2532985e-01
5.7410845e-02
-1.8527658e-02
-8.4091918e-02
-1.2567542e-01
-1.3556424e-01
-1.1377664e-01
-8.2985212e-02
-6.9897785e-02
-8.0363008e-02
-1.1443991e-01
-1.5513915e-01
-1.8131345e-01
-1.8844183e-01
-1.7549345e-01
-1.3827548e-01
-7.3490700e-02
4.9247910e-03
8.1734123e-02
1.5293137e-01
2.1183849e-01
2.5662541e-01
2.8259766e-01
2.8912947e-01
2.7952646e-01
2.4495372e-01
1.9490618e-01
1.4424700e-01
9.4645372e-02
5.0864605e-02
1.2664775e-02
-1.2582161e-02
-9.9238362e-03
2.8594767e-02
1.0219971e-01
1.9447320e-01
2.7955506e-01
3.2861040e-01
3.3224616e-01
2.9472591e-01
2.1836503e-01
1.1332022e-01
-1.3484158e-02
-1.3622871e-01
-2.2126540e-01
-2.6005369e-01
-2.5772107e-01
-2.3652392e-01
-2.1542715e-01
-2.0916817e-01
-2.2547380e-01
-2.3760866e-01
-2.3171873e-01
-2.1328296e-01
-1.7942171e-01
-1.2954945e-01
-6.8288984e-02
-1.1059443e-02
3.0972637e-02
5.1290029e-02
5.1775010e-02
4.9599735e-02
3.7357141e-02
7.1334192e-03
-2.0899271e-02
-3.0397769e-02
-1.7864620e-02
7.4312423e-03
3.7565191e-02
5.2609201e-02
4.0085297e-02
2.3148895e-02
3.9196146e-03
-2.1131603e-02
-3.1823745e-02
-1.3384510e-02
3.1009571e-02
8.0395690e-02
1.2446857e-01
1.4180937e-01
1.0859617e-01
5.1174313e-02
-7.1999570e-03
-5.9706946e-02
-9.0219942e-02
-9.1276592e-02
-6.8351792e-02
-3.2764669e-02
1.3207965e-02
5.3802868e-02
7.5874666e-02
8.6750725e-02
6.7043935e-02
1.5877277e-02
-2.9329386e-02
-4.9605360e-02
-4.8253290e-02
-3.7529545e-02
-2.4131948e-02
-2.3703331e-02
-4.3484393e-02
-6.5310022e-02
-8.3653752e-02
-9.1142440e-02
-7.7881926e-02
-5.1557351e-02
-2.7115557e-02
-1.4592961e-02
-1.0400927e-02
-6.2309771e-03
7.1804451e-03
2.1550258e-02
8.6497555e-03
-2.3987223e-02
-4.1098804e-02
-2.8902028e-02
4.2907699e-03
4.7476972e-02
9.9412894e-02
1.4419251e-01
1.6866068e-01
1.7130658e-01
1.3387684e-01
7.0522705e-02
2.3376890e-02
9.0717914e-03
1.9810054e-02
4.6261030e-02
9.1786458e-02
1.2643443e-01
1.2215034e-01
9.7872684e-02
4.6703570e-02
-3.5370514e-02
-1.1557502e-01
-1.7284949e-01
-2.0753445e-01
-2.2626426e-01
-2.2816372e-01
-2.1780180e-01
-1.9548392e-01
-1.6464408e-01
-1.4974968e-01
-1.5007589e-01
-1.4101913e-01
-1.1415857e-01
-8.5528738e-02
-6.4612066e-02
-3.3971798e-02
6.8729089e-03
5.2473399e-02
1.0336042e-01
1.3864339e-01
1.5761850e-01
1.7671453e-01
1.9512295e-01
1.9437237e-01
1.5267121e-01
8.6964148e-02
2.8223676e-02
-7.9218336e-03
-2.6751494e-02
-5.5742085e-02
-9.1209719e-02
-1.0415375e-01
-8.3123373e-02
-4.4045509e-02
-3.6701449e-03
3.9181668e-02
5.7480952e-02
3.0556101e-02
-1.4453007e-02
-5.0659230e-02
-6.3447632e-02
-4.6661676e-02
-4.5442565e-04
5.9079834e-02
1.1502910e-01
1.7022645e-01
2.0965197e-01
2.2843169e-01
2.2973556e-01
1.8363985e-01
9.2568235e-02
-1.2129427e-03
-6.8349289e-02
-1.0239607e-01
-1.0766661e-01
-8.9786471e-02
-6.2796419e-02
-3.1566898e-02
-9.2779566e-03
-1.4236703e-02
-2.7002425e-02
-2.4500262e-02
-9.1668994e-04
1.9419168e-02
7.3620731e-03
-2.0754154e-02
-4.0287415e-02
-3.7919939e-02
-2.7222488e-02
-3.4090228e-02
-4.9159094e-02
-5.7155345e-02
-6.3854830e-02
-8.3616359e-02
-1.1797904e-01
-1.5859104e-01
-2.0127902e-01
-2.3496532e-01
-2.5656016e-01
-2.6846425e-01
-2.5360628e-01
-1.9927056e-01
-1.1179381e-01
-1.1807964e-02
9.0597321e-02
1.9436185e-01
2.8782852e-01
3.7660412e-01
4.4645807e-01
4.7346201e-01
4.7471771e-01
4.5947459e-01
4.2564178e-01
3.7021749e-01
2.9455544e-01
2.1328144e-01
1.3347250e-01
6.8020363e-02
1.6027939e-02
-3.1312404e-02
-6.5948063e-02
-8.9739112e-02
-1.0815746e-01
-1.3275850e-01
-1.6925487e-01
-2.0400854e-01
-2.3099499e-01
-2.4800052e-01
-2.5443927e-01
-2.5024768e-01
-2.3560530e-01
-2.1662979e-01
-1.9701594e-01
-1.7994525e-01
-1.6501636e-01
-1.4899846e-01
-1.3056851e-01
-1.0782029e-01
-8.4991035e-02
-6.6239133e-02
-4.7123632e-02
-2.2149367e-02
3.9659379e-03
1.8927073e-02
2.3871040e-02
2.8224571e-02
3.6164315e-02
4.5246083e-02
4.9456699e-02
5.3339606e-02
6.5147384e-02
8.6472321e-02
1.1432360e-01
1.3965422e-01
1.5874418e-01
1.6780749e-01
1.6178757e-01
1.4609320e-01
1.2218086e-01
9.3460579e-02
6.5141179e-02
3.4038266e-02
-1.9296018e-03
-4.1209756e-02
-7.6250421e-02
-1.0257223e-01
-1.1912640e-01
-1.2482568e-01
-1.2844028e-01
-1.3302026e-01
-1.3187177e-01
-1.2277539e-01
-1.0628871e-01
-8.2385225e-02
-5.0407210e-02
-1.6656892e-02
1.4342626e-02
3.8289446e-02
4.7743889e-02
5.3816426e-02
6.1172347e-02
5.4427861e-02
2.8145104e-02
-7.0670660e-03
-3.3804373e-02
-4.1378268e-02
-2.5221739e-02
1.1777442e-02
5.7127311e-02
1.0687648e-01
1.5825433e-01
1.9931902e-01
2.0896370e-01
1.7280113e-01
1.1191991e-01
5.4177056e-02
7.2119462e-03
-3.1380951e-02
-6.5851200e-02
-9.3607555e-02
-1.1507535e-01
-1.3716202e-01
-1.5990612e-01
-1.7322809e-01
-1.6577096e-01
-1.3922480e-01
-9.6532362e-02
-3.9700858e-02
2.0598025e-02
8.3365116e-02
1.3562177e-01
1.5558938e-01
1.4721274e-01
1.2563391e-01
1.0343595e-01
7.5153906e-02
4.1427045e-02
1.2127724e-02
-1.9170559e-02
-4.3284350e-02
-5.1842781e-02
-5.9300613e-02
-7.7248656e-02
-1.0090408e-01
-1.1587605e-01
-1.1915262e-01
-1.0750530e-01
-7.6733740e-02
-3.4792314e-02
1.8357471e-02
7.8367794e-02
1.2661382e-01
1.4126535e-01
1.1303975e-01
6.2742701e-02
7.6838111e-03
-4.3018269e-02
-7.8168359e-02
-1.0008324e-01
-1.0902932e-01
-1.0804370e-01
-1.0885565e-01
-1.1182827e-01
-1.0477808e-01
-7.6353610e-02
-3.1935699e-02
1.6494926e-02
6.2837521e-02
1.0515350e-01
1.5115886e-01
2.0228492e-01
2.4514704e-01
2.4981003e-01
2.0158272e-01
1.2943904e-01
5.4635789e-02
-1.0143991e-02
-5.1718512e-02
-7.6136034e-02
-8.7799582e-02
-8.6941591e-02
-8.0349500e-02
-8.1941032e-02
-8.9921660e-02
-8.6551469e-02
-7.1004202e-02
-4.2592010e-02
-9.6707331e-03
7.9879203e-03
1.9400154e-02
3.7235601e-02
5.6331671e-02
6.3163096e-02
5.6990864e-02
5.4777300e-02
5.9911052e-02
7.3246970e-02
8.8996316e-02
8.9156818e-02
7.8870678e-02
6.9077908e-02
5.7153393e-02
3.2309580e-02
-4.4642303e-03
-3.3252237e-02
-4.9279283e-02
-5.4760297e-02
-5.6013517e-02
-6.2765356e-02
-6.8603241e-02
-7.2178917e-02
-8.1225709e-02
-9.7747617e-02
-1.1157833e-01
-1.1036739e-01
-9.8930508e-02
-8.7388211e-02
-8.1919286e-02
-8.2450194e-02
-8.0083301e-02
-7.0184273e-02
-5.7527948e-02
-5.0462490e-02
-4.5538540e-02
-3.4511912e-02
-2.2190366e-02
-1.2239182e-02
-6.7696915e-03
-6.1281051e-03
-1.3671189e-03
1.3089396e-02
3.4664175e-02
5.6511096e-02
7.9424804e-02
1.0726189e-01
1.3365193e-01
1.5220662e-01
1.4644053e-01
1.0890565e-01
6.6662027e-02
3.7095808e-02
1.4961037e-02
-9.3332109e-03
-3.6043438e-02
-5.6155386e-02
-6.7833693e-02
-7.2238466e-02
-7.7387929e-02
-8.8476757e-02
-9.6125383e-02
-9.7259145e-02
-9.7938654e-02
-1.0313146e-01
-1.0668756e-01
-1.0463733e-01
-9.8169697e-02
-7.4651659e-02
-4.6761004e-02
-3.7488727e-02
-3.9084623e-02
-4.7664846e-02
-7.1283894e-02
-1.1163150e-01
-1.4860678e-01
-1.5185743e-01
-1.0826340e-01
-2.2203140e-02
7.2431547e-02
1.4915694e-01
2.2333543e-01
2.9624191e-01
3.4514872e-01
3.5356343e-01
3.3706651e-01
3.1193166e-01
2.6759843e-01
2.2301853e-01
1.8443697e-01
1.3305930e-01
8.0076363e-02
3.7229399e-02
9.2327269e-03
1.9444352e-03
2.0287643e-02
4.9806150e-02
7.0623236e-02
9.4027617e-02
1.0425828e-01
7.8358313e-02
4.0732200e-02
5.7230968e-03
-3.1797336e-02
-7.1628865e-02
-1.0286018e-01
-1.2245981e-01
-1.3822468e-01
-1.4759114e-01
-1.5739059e-01
-1.6920525e-01
-1.7075182e-01
-1.6122458e-01
-1.4449155e-01
-1.2104755e-01
-8.5768490e-02
-4.9390737e-02
-3.0296532e-02
-2.4356041e-02
-2.9481131e-02
-3.8319639e-02
-3.5942445e-02
-2.3192370e-02
-6.7951275e-03
1.0433978e-02
3.8695088e-02
8.1751593e-02
1.2567555e-01
1.5164253e-01
1.3804716e-01
9.2836246e-02
4.1858177e-02
-8.7434456e-03
-5.9301087e-02
-1.0432658e-01
-1.3116201e-01
-1.4366067e-01
-1.5101186e-01
-1.5027328e-01
-1.4422975e-01
-1.2845851e-01
-1.0161860e-01
-7.0425106e-02
-3.5927441e-02
4.2211597e-03
5.5498187e-02
1.0786914e-01
1.5157762e-01
1.8199059e-01
1.7820416e-01
1.4500511e-01
1.0976771e-01
8.1233098e-02
5.6024548e-02
3.5097150e-02
2.8404801e-02
2.7651502e-02
1.7814077e-02
-4.3623045e-03
-3.9962120e-02
-7.2088338e-02
-8.8254232e-02
-9.1344935e-02
-8.5897489e-02
-7.6365777e-02
-5.7715680e-02
-3.3267955e-02
-8.0805681e-03
1.4317175e-02
2.8163457e-02
4.2995050e-02
5.8688000e-02
7.3457384e-02
8.0878031e-02
6.3078913e-02
3.2818853e-02
5.3158508e-03
-1.8026801e-02
-3.5426884e-02
-5.1080901e-02
-6.3737942e-02
-7.6503216e-02
-9.0133618e-02
-9.2321505e-02
-7.1964668e-02
-2.8105418e-02
1.5555159e-02
4.5614234e-02
5.9039084e-02
4.3967225e-02
2.1151291e-02
8.2573451e-03
1.1455763e-04
-3.3118852e-03
1.4197666e-03
1.8918647e-02
3.8700403e-02
5.2815573e-02
5.0242339e-02
2.2214617e-02
-1.8894983e-03
-6.4267222e-03
-2.5662664e-03
4.7233953e-03
1.9263863e-02
4.5946395e-02
7.0700057e-02
8.4145394e-02
7.8937865e-02
4.9795254e-02
1.1958253e-02
-3.3654770e-02
-8.3092415e-02
-1.1637347e-01
-1.2212621e-01
-1.0425657e-01
-8.3444193e-02
-6.8110469e-02
-6.4376833e-02
-7.8899663e-02
-9.0966755e-02
-9.3752017e-02
-9.5086386e-02
-8.9884951e-02
-7.0017568e-02
-3.1112460e-02
1.6154697e-02
6.3439125e-02
8.9990046e-02
8.0012691e-02
5.6789927e-02
2.6189690e-02
-8.9431557e-03
-3.1463211e-02
-3.5373908e-02
-1.9168625e-02
8.8898078e-03
4.5075499e-02
7.2580463e-02
7.7054968e-02
7.2813794e-02
5.0623195e-02
1.0182371e-02
-1.6018210e-02
-1.0029034e-02
2.1530138e-02
6.0231095e-02
1.0352830e-01
1.3438339e-01
1.2924620e-01
1.0217204e-01
5.4774458e-02
-1.0646844e-02
-6.7935934e-02
-1.0079374e-01
-1.0718679e-01
-9.5356590e-02
-6.9171033e-02
-4.7890284e-02
-4.5879546e-02
-4.8589690e-02
-6.3159837e-02
-9.0193499e-02
-1.0627232e-01
-1.0020035e-01
-7.4509628e-02
-4.1805810e-02
-2.9543353e-03
3.0271937e-02
4.5729011e-02
6.1139778e-02
6.8863910e-02
6.3638407e-02
6.9166329e-02
9.8716936e-02
1.4817952e-01
1.8987595e-01
2.0223411e-01
1.8239818e-01
1.4632964e-01
1.1069363e-01
5.6364777e-02
-1.5396889e-02
-7.4383775e-02
-1.0878877e-01
-1.2747686e-01
-1.4253621e-01
-1.4555955e-01
-1.3461592e-01
-1.1162796e-01
-8.2778396e-02
-7.4185346e-02
-7.5421464e-02
-5.2672339e-02
5.2767548e-03
7.6952230e-02
1.3179004e-01
1.7569042e-01
2.0412488e-01
2.0046445e-01
1.6775947e-01
1.0073664e-01
1.5582600e-02
-5.3234331e-02
-9.3967784e-02
-1.1624227e-01
-1.2850645e-01
-1.2598624e-01
-1.1073699e-01
-7.9778491e-02
-4.0713971e-02
-2.2265579e-02
-1.6771420e-02
4.0543223e-03
4.6562904e-02
9.1697909e-02
1.2220479e-01
1.4403293e-01
1.4870160e-01
1.3406227e-01
1.1028099e-01
6.4093056e-02
2.7446235e-03
-5.1393173e-02
-9.4616257e-02
-1.2954026e-01
-1.5716734e-01
-1.7037985e-01
-1.6938712e-01
-1.5662678e-01
-1.3397744e-01
-1.2068608e-01
-1.2255763e-01
-1.2234861e-01
-1.0885872e-01
-9.2399036e-02
-8.3655814e-02
-7.3151339e-02
-6.1343600e-02
-4.9764131e-02
-3.2362324e-02
-1.5451462e-02
2.7287444e-03
3.5246174e-02
8.7956167e-02
1.5090720e-01
2.0958412e-01
2.5788475e-01
2.7898965e-01
2.6346086e-01
2.2348530e-01
1.6603650e-01
1.0456577e-01
5.7575495e-02
3.3246140e-02
1.6512290e-02
-6.4588689e-03
-2.2894139e-02
-3.2810463e-02
-3.5194286e-02
-3.0910860e-02
-3.8650339e-02
-5.3670726e-02
-6.0205736e-02
-5.5455141e-02
-4.8390712e-02
-4.2896898e-02
-3.0334135e-02
-1.8085047e-02
-1.4134110e-02
-1.6966905e-02
-3.0933296e-02
-5.0702065e-02
-6.2645146e-02
-5.6511780e-02
-4.4799872e-02
-4.1766150e-02
-3.2776861e-02
-1.3302798e-02
1.0317328e-02
2.6601861e-02
1.9058747e-02
-4.0772923e-03
-2.4524775e-02
-3.2120555e-02
-3.3972813e-02
-4.0776067e-02
-4.5424029e-02
-4.4440089e-02
-3.7784218e-02
-2.5604088e-02
-1.0295171e-02
1.1101031e-02
4.0072721e-02
7.7821071e-02
1.0695406e-01
1.1181335e-01
1.0332544e-01
8.3363915e-02
5.7384314e-02
3.6066266e-02
1.9880297e-02
1.0779019e-02
1.0853051e-02
2.1448519e-02
2.3035233e-02
1.2548249e-03
-2.7471990e-02
-5.3652866e-02
-7.1000730e-02
-8.0557152e-02
-9.0467061e-02
-9.5507279e-02
-8.9004629e-02
-6.5806965e-02
-3.8109397e-02
-1.9888749e-02
-2.4350529e-03
1.8320350e-02
4.2218472e-02
6.6762172e-02
8.7040472e-02
9.8441229e-02
8.9204187e-02
6.0746836e-02
2.5516538e-02
-3.4533027e-03
-1.8853233e-02
-2.6490691e-02
-3.1200140e-02
-3.7513386e-02
-4.5233614e-02
-4.8613850e-02
-4.6740467e-02
-4.0811437e-02
-4.3972450e-02
-5.9568885e-02
-7.0065547e-02
-6.6864437e-02
-4.8083684e-02
-2.1487288e-02
2.3636950e-03
2.1956628e-02
3.7680310e-02
5.1868775e-02
5.7992867e-02
5.3444799e-02
4.0169912e-02
1.5168714e-02
-1.2104322e-02
-4.0172294e-02
-7.0013578e-02
-9.0467759e-02
-9.7308020e-02
-9.3025762e-02
-8.7249161e-02
-8.2772166e-02
-7.5241057e-02
-6.0987851e-02
-3.5892903e-02
-4.5808324e-03
3.2018361e-02
7.7877767e-02
1.3060650e-01
1.8319795e-01
2.1260659e-01
2.0651675e-01
1.8047926e-01
1.4970653e-01
1.3069278e-01
1.1894653e-01
1.0023672e-01
7.9375155e-02
5.5369164e-02
2.2518540e-02
-2.1227257e-02
-7.0360207e-02
-1.1302627e-01
-1.4236331e-01
-1.6056467e-01
-1.7627980e-01
-1.8926027e-01
-1.9197631e-01
-1.8005661e-01
-1.5443867e-01
-1.2546909e-01
-9.7482113e-02
-6.7412891e-02
-3.7457886e-02
-1.4103564e-02
-1.5091613e-03
1.2524298e-02
3.8304919e-02
7.0563112e-02
1.0000936e-01
1.1575732e-01
1.1965330e-01
1.1640879e-01
1.1018903e-01
9.8557147e-02
6.7993192e-02
3.4022011e-02
1.6895530e-02
1.3738066e-02
1.8519083e-02
2.8548418e-02
4.7031968e-02
6.0334186e-02
5.7028682e-02
5.2412294e-02
3.9738147e-02
8.4926431e-03
-2.7445460e-02
-5.6838909e-02
-6.9825411e-02
-6.3793660e-02
-4.8497334e-02
-3.9662948e-02
-3.6432237e-02
-1.8609237e-02
2.0493970e-02
7.9965380e-02
1.5161535e-01
2.0884604e-01
2.1544118e-01
1.6080938e-01
8.6720105e-02
3.2266008e-02
2.6365668e-03
-1.0412090e-02
-2.0642899e-02
-3.2668881e-02
-4.6359806e-02
-6.3883540e-02
-8.4879736e-02
-1.0599376e-01
-1.1822897e-01
-1.2248628e-01
-1.2144063e-01
-1.1071327e-01
-9.6540987e-02
-8.2734758e-02
-6.8100773e-02
-5.8012120e-02
-5.9212726e-02
-6.8034762e-02
-7.1834494e-02
-6.8269024e-02
-5.6441232e-02
-3.4213342e-02
-9.0650606e-03
1.6712879e-02
4.2631875e-02
6.3521496e-02
6.8928188e-02
5.5656751e-02
3.7642988e-02
1.9476639e-02
3.8037000e-03
-2.0524768e-03
-5.8863567e-04
9.4082804e-03
3.2421465e-02
6.1839173e-02
7.7823824e-02
7.3490269e-02
6.6405408e-02
5.9155877e-02
5.0545318e-02
5.2983300e-02
6.3463495e-02
7.1796604e-02
7.2690412e-02
6.3958080e-02
4.2587578e-02
1.2208200e-02
-1.1091365e-02
-2.3840529e-02
-3.0973636e-02
-3.4764208e-02
-3.6343634e-02
-2.9897179e-02
-1.3889288e-02
4.3195173e-03
1.0020203e-02
-1.8164608e-03
-1.7558634e-02
-3.3814623e-02
-4.9309091e-02
-6.2067309e-02
-7.9187335e-02
-9.2086967e-02
-9.1605592e-02
-8.7333705e-02
-8.8816842e-02
-8.8267287e-02
-7.3585237e-02
-5.0989678e-02
-2.7377958e-02
-7.4756071e-03
1.9840130e-03
8.0647454e-03
1.5612261e-02
1.7488655e-02
7.0464596e-03
-8.9113941e-03
-1.6295525e-02
-1.4990539e-02
-7.4088429e-03
4.9583880e-03
1.7539584e-02
3.5006119e-02
5.7367022e-02
7.4380938e-02
7.3917143e-02
6.0393718e-02
5.2582014e-02
5.0794526e-02
5.2665775e-02
5.8233770e-02
6.3575246e-02
7.2433262e-02
8.2993401e-02
8.3351745e-02
6.5483178e-02
4.0761637e-02
2.4853949e-02
1.5383214e-02
5.0494542e-03
-1.4805029e-02
-4.6662016e-02
-7.5644251e-02
-9.1076098e-02
-9.6785657e-02
-1.0236462e-01
-1.0739457e-01
-1.0300711e-01
-8.8607140e-02
-6.6148809e-02
-4.2521264e-02
-2.4860329e-02
-8.6572492e-03
9.1184314e-03
2.4648400e-02
2.8409636e-02
2.2763009e-02
2.1014490e-02
2.4670556e-02
3.7503753e-02
4.9920260e-02
4.5077907e-02
3.5020019e-02
3.2391551e-02
3.2695435e-02
2.4794619e-02
1.0829953e-02
4.4199493e-03
5.5989950e-03
1.1090905e-02
1.3258719e-02
6.4205254e-03
-5.6483584e-04
-3.7093454e-03
-6.7647482e-03
-1.5473179e-02
-2.5776588e-02
-3.2554125e-02
-4.0139951e-02
-4.2702905e-02
-4.0502958e-02
-3.8510186e-02
-2.9754066e-02
-1.6815155e-02
-1.1926042e-02
-2.5311557e-02
-4.9122954e-02
-6.4996132e-02
-7.1153183e-02
-6.7761696e-02
-5.5902049e-02
-3.9037305e-02
-1.2695337e-02
2.6363711e-02
7.4567150e-02
1.1571564e-01
1.4322598e-01
1.5564663e-01
1.4667970e-01
1.2984630e-01
1.0698230e-01
7.3724215e-02
4.0158672e-02
1.0594147e-02
-1.6934382e-02
-4.3847279e-02
-6.1399631e-02
-6.9003886e-02
-7.5577974e-02
-8.3265121e-02
-9.7212342e-02
-1.1409642e-01
-1.2473508e-01
-1.3081966e-01
-1.3511133e-01
-1.3658617e-01
-1.2764078e-01
-1.0440124e-01
-7.0637737e-02
-3.0867878e-02
-1.5685418e-03
1.3716237e-02
3.0649929e-02
5.2895384e-02
7.6001966e-02
9.7558205e-02
1.2599022e-01
1.6159499e-01
1.9205742e-01
2.1707049e-01
2.2243664e-01
1.9605647e-01
1.6003252e-01
1.3281820e-01
1.0877736e-01
6.9620208e-02
1.3144109e-02
-4.5500035e-02
-9.3621143e-02
-1.1984660e-01
-1.2857011e-01
-1.3013845e-01
-1.2297108e-01
-1.0484547e-01
-7.6720817e-02
-3.9345576e-02
1.0441919e-02
5.5054071e-02
7.5462465e-02
7.3787428e-02
4.4415845e-02
2.8901987e-03
-2.6281043e-02
-4.0943383e-02
-4.2595903e-02
-2.9924852e-02
-6.9641192e-04
3.1947369e-02
5.9798717e-02
8.0698010e-02
7.4367264e-02
4.5155295e-02
1.6987789e-02
-4.1152586e-03
-2.0853720e-02
-3.1691231e-02
-3.0920282e-02
-2.8502240e-02
-3.2116283e-02
-4.3931149e-02
-6.7666672e-02
-8.5145584e-02
-8.7793716e-02
-8.1094125e-02
-6.2405695e-02
-2.7412093e-02
2.6781818e-02
8.5480915e-02
1.3725611e-01
1.7010209e-01
1.6061034e-01
1.2208803e-01
8.0899564e-02
4.8871801e-02
3.2351844e-02
2.0048698e-02
6.6155739e-04
-2.6518919e-02
-5.7435974e-02
-8.7174660e-02
-1.1205806e-01
-1.2198996e-01
-1.1750756e-01
-1.0840683e-01
-9.6447625e-02
-8.0866840e-02
-6.0392809e-02
-3.9296119e-02
-2.0601574e-02
-1.7085128e-02
-3.7179540e-02
-6.1057314e-02
-8.5429830e-02
-1.1238948e-01
-1.3040394e-01
-1.3530735e-01
-1.2951427e-01
-1.2635897e-01
-1.2693557e-01
-1.2557595e-01
-1.2345111e-01
-1.1710818e-01
-1.1760855e-01
-1.2479426e-01
-1.1889887e-01
-8.7551378e-02
-2.7025275e-02
4.7395777e-02
1.2239313e-01
1.7917915e-01
1.9853290e-01
1.9764636e-01
1.8463590e-01
1.6329963e-01
1.5476932e-01
1.7019606e-01
2.1294028e-01
2.7322135e-01
3.3998486e-01
3.8754163e-01
3.9662313e-01
3.8170754e-01
3.3057070e-01
2.4296368e-01
1.5097118e-01
7.0859013e-02
-8.1093461e-04
-8.2538625e-02
-1.6578966e-01
-2.2816644e-01
-2.6603350e-01
-2.8469377e-01
-3.0409420e-01
-3.2951026e-01
-3.3952888e-01
-3.1836185e-01
-2.6852057e-01
-2.0389225e-01
-1.2990993e-01
-6.2000133e-02
-1.1016050e-02
3.2609071e-02
5.0088795e-02
3.7560291e-02
2.9090344e-02
4.3927778e-02
7.6954018e-02
1.1053961e-01
1.3926269e-01
1.4840293e-01
1.2851829e-01
1.0307009e-01
7.0001109e-02
2.3774587e-02
-1.6619722e-02
-4.0125284e-02
-4.9071630e-02
-4.7236096e-02
-2.9799846e-02
-9.2854346e-03
6.5262648e-03
2.0463535e-02
7.5365303e-03
-3.3570136e-02
-7.2091527e-02
-9.3209499e-02
-9.9724125e-02
-9.6375789e-02
-7.7027512e-02
-4.7955355e-02
-1.8950214e-02
1.1154334e-02
2.8276194e-02
3.0573420e-02
3.4808276e-02
4.8953865e-02
6.3095703e-02
5.8700516e-02
4.4726010e-02
3.7135663e-02
4.4653410e-02
6.7175122e-02
7.6578080e-02
6.3725615e-02
4.9134454e-02
4.5494848e-02
4.4752746e-02
3.9125283e-02
4.5233068e-02
6.2646739e-02
8.5987285e-02
1.1716568e-01
1.2928154e-01
1.1340970e-01
8.7508977e-02
6.3343042e-02
4.0852205e-02
1.9767905e-02
1.4694391e-02
1.7615628e-02
1.7684276e-02
8.6508555e-03
-3.2504542e-02
-9.0176588e-02
-1.3081784e-01
-1.4477382e-01
-1.4502030e-01
-1.4613764e-01
-1.3918898e-01
-1.2342603e-01
-1.0167538e-01
-8.1528633e-02
-8.4518559e-02
-1.0347573e-01
-1.1654918e-01
-1.1479442e-01
-1.0568034e-01
-9.7001460e-02
-7.9687161e-02
-5.3396398e-02
-1.8632203e-02
2.1980928e-02
5.4088768e-02
7.3364465e-02
7.9404003e-02
8.0016080e-02
7.2509670e-02
4.6532565e-02
1.6986467e-02
-7.3157837e-03
-1.9694884e-02
-2.2468619e-02
-3.3531131e-02
-4.6535328e-02
-4.5762148e-02
-2.3071112e-02
7.5058954e-03
2.7916364e-02
4.7015026e-02
6.9936443e-02
1.0217618e-01
1.2787230e-01
1.1534489e-01
8.0874788e-02
5.2878735e-02
4.3679368e-02
4.7643821e-02
5.4247436e-02
6.5096137e-02
7.2162018e-02
7.7679821e-02
7.6310752e-02
5.2988769e-02
2.3609572e-02
4.9436693e-03
-7.2181258e-04
-9.4759667e-03
-3.4051118e-02
-5.8246730e-02
-7.1487050e-02
-7.1563671e-02
-7.1489862e-02
-8.3922638e-02
-8.9829181e-02
-7.5512959e-02
-4.6063259e-02
-2.0159190e-02
-7.9242975e-03
2.7659305e-03
1.7740164e-02
4.0753601e-02
6.1841246e-02
6.4341209e-02
4.8233431e-02
1.6855755e-02
-1.3467050e-02
-3.5001984e-02
-5.3280909e-02
-6.1961039e-02
-5.8510500e-02
-4.3522360e-02
-2.3042766e-02
-4.8846923e-03
1.3048055e-02
3.1496232e-02
4.9155884e-02
5.1962924e-02
3.2822773e-02
9.0652678e-03
-6.9098429e-03
-7.7849418e-03
-4.8707767e-03
-1.2613915e-02
-2.2387793e-02
-2.5324236e-02
-1.8899071e-02
-1.1172599e-02
-1.4678426e-03
1.7125078e-02
4.2064759e-02
7.4646178e-02
9.9711204e-02
1.0376258e-01
9.4660297e-02
7.7826849e-02
5.8793546e-02
3.5841596e-02
6.9714677e-03
-2.2831698e-02
-4.8290044e-02
-6.1152248e-02
-6.9263082e-02
-8.1573620e-02
-9.0207467e-02
-9.0331702e-02
-8.5080000e-02
-8.0583027e-02
-7.6864406e-02
-7.4461785e-02
-7.3434709e-02
-6.8848766e-02
-6.2721922e-02
-5.2257062e-02
-3.4663234e-02
-1.4922742e-02
2.3051650e-03
1.1141344e-02
1.3867870e-02
1.4757014e-02
1.2541922e-02
9.1512019e-03
8.1056928e-03
1.2998049e-02
1.8981659e-02
1.6661836e-02
6.9385353e-03
-4.9682060e-03
-1.2314161e-02
-1.6378776e-02
-2.0391410e-02
-1.8109144e-02
-9.7429352e-03
5.3842526e-03
2.8002505e-02
5.2088546e-02
7.4957723e-02
9.8587832e-02
1.2585429e-01
1.3820314e-01
1.2392390e-01
1.0180544e-01
8.0255035e-02
6.4499225e-02
5.5471685e-02
4.3253789e-02
2.4856826e-02
4.7918598e-03
-7.5332441e-03
-1.7174703e-02
-2.9629310e-02
-3.8832112e-02
-4.5777132e-02
-4.7373053e-02
-4.1927437e-02
-3.7328534e-02
-3.7617095e-02
-3.9247081e-02
-3.4018194e-02
-2.4035399e-02
-1.4047882e-02
-2.9437868e-03
5.2298674e-03
1.0000616e-02
1.0732486e-02
2.0939517e-03
-1.3531040e-02
-2.5721600e-02
-2.5833416e-02
-1.8173092e-02
-1.2984351e-02
-1.7480172e-02
-3.1967973e-02
-4.4557824e-02
-4.7276844e-02
-4.3846664e-02
-4.0596563e-02
-3.6950527e-02
-2.7451037e-02
-1.4931053e-02
-5.9764462e-04
1.2878263e-02
1.9228591e-02
2.6832174e-02
4.0031508e-02
4.9737111e-02
4.3161519e-02
2.0092163e-02
3.9073603e-04
-1.0886236e-02
-1.4309018e-02
-6.6231612e-03
2.3104191e-03
1.2226724e-02
2.5121425e-02
3.1684449e-02
2.4582705e-02
1.0772551e-02
5.4230366e-03
2.8185325e-03
-2.1925723e-03
-3.2967129e-03
-5.3930894e-03
-8.2577275e-03
-7.8794987e-03
-8.6983627e-03
-2.0091830e-02
-3.8280608e-02
-4.7259259e-02
-5.1878203e-02
-5.7231094e-02
-5.9006567e-02
-6.1435342e-02
-5.9385371e-02
-4.6308949e-02
-2.7814970e-02
-1.6638659e-02
-1.6304303e-02
-1.4068565e-02
-6.4581444e-03
3.1806083e-03
7.3449116e-03
8.3383580e-04
5.6369066e-04
1.5180316e-02
3.2130113e-02
2.9846589e-02
4.1666890e-03
-2.3202477e-02
-4.5932834e-02
-5.8003136e-02
-5.3991494e-02
-4.5135235e-02
-2.6652755e-02
9.0607598e-03
5.3480259e-02
8.7773415e-02
1.0989428e-01
1.3767607e-01
1.6020352e-01
1.6813717e-01
1.5914413e-01
1.2024748e-01
7.4136801e-02
4.4227766e-02
2.4702571e-02
8.6073602e-04
-2.9586036e-02
-5.2086724e-02
-6.5442529e-02
-7.1491197e-02
-7.7623257e-02
-9.5291825e-02
-1.1142273e-01
-1.1415417e-01
-1.0882507e-01
-1.0407627e-01
-9.4841050e-02
-6.8629902e-02
-2.7966610e-02
2.3289298e-02
7.2947278e-02
1.0836301e-01
1.3550919e-01
1.4900352e-01
1.3498629e-01
9.5351851e-02
5.1200049e-02
2.2673019e-02
9.4867609e-03
7.2449659e-03
4.4187226e-03
-8.2182833e-03
-1.6621907e-02
-1.3422444e-02
-7.1147555e-03
-9.0609613e-03
-1.6438870e-02
-2.0178831e-02
-2.3955099e-02
-2.1488814e-02
-1.0883294e-02
2.4779606e-04
1.2891766e-02
2.6190794e-02
3.4931559e-02
2.6034138e-02
-4.6395378e-04
-2.4308375e-02
-3.4584524e-02
-2.8398346e-02
-1.5952455e-02
-1.1095779e-02
-1.1434620e-02
-1.3810880e-02
-1.9454262e-02
-3.3008529e-02
-5.0215015e-02
-6.0009875e-02
-5.9403676e-02
-4.5895610e-02
-2.9563458e-02
-2.2190204e-02
-1.6808491e-02
-8.9863869e-03
-3.0975977e-03
-7.6067701e-03
-1.9963175e-02
-2.9919688e-02
-3.5952334e-02
-3.1461224e-02
-2.0563199e-02
-1.1386300e-02
4.4216973e-03
2.8926139e-02
5.4187741e-02
6.4354689e-02
5.4336336e-02
3.9240537e-02
2.6554004e-02
1.8831712e-02
1.4383348e-02
8.6409440e-03
4.1619966e-03
4.1308725e-03
4.8479838e-03
-6.9490925e-03
-2.4948621e-02
-3.5762325e-02
-4.2315822e-02
-4.0895110e-02
-3.2888406e-02
-2.4864220e-02
-1.6536123e-02
-6.8870469e-03
5.2301524e-03
9.0169846e-03
1.0422336e-03
-4.2864773e-03
1.0566604e-03
1.8867858e-02
2.7755086e-02
7.6652346e-03
-2.2872704e-02
-4.4212184e-02
-5.1935091e-02
-4.4868738e-02
-1.9986321e-02
2.0142821e-02
6.8562400e-02
1.1782144e-01
1.3809135e-01
1.1753056e-01
8.8389371e-02
6.7254013e-02
4.9031221e-02
2.9187093e-02
1.0112878e-02
-3.9784017e-03
-1.0008735e-02
-1.2591708e-03
1.9159065e-02
4.8112515e-02
8.2188399e-02
1.1227643e-01
1.2777137e-01
1.0544347e-01
4.2592619e-02
-2.7384844e-02
-8.2389178e-02
-1.1863668e-01
-1.3819727e-01
-1.4542270e-01
-1.4313888e-01
-1.3591482e-01
-1.2814032e-01
-1.1818254e-01
-9.8207524e-02
-7.6572282e-02
-6.1923489e-02
-4.7819636e-02
-3.3691290e-02
-1.2029399e-02
2.1457180e-02
5.8563701e-02
9.6940515e-02
1.4158864e-01
1.9657028e-01
2.3227242e-01
2.2717230e-01
1.9408307e-01
1.3402904e-01
6.4991591e-02
8.1613709e-03
-3.9021225e-02
-8.1615705e-02
-1.1929666e-01
-1.4325593e-01
-1.5636490e-01
-1.6256275e-01
-1.6038235e-01
-1.5479292e-01
-1.4024174e-01
-1.1399485e-01
-8.1965019e-02
-4.5248622e-02
-2.5257527e-03
4.8450818e-02
9.6849520e-02
1.3547767e-01
1.6291433e-01
1.6689602e-01
1.5100363e-01
1.2227682e-01
8.1298213e-02
3.7503984e-02
3.3284114e-03
-1.4373417e-02
-2.6241089e-02
-4.4054070e-02
-6.8018364e-02
-9.0877702e-02
-9.9860158e-02
-9.4097651e-02
-8.0821950e-02
-6.4003568e-02
-4.3204888e-02
-1.2900788e-02
1.9030076e-02
4.2839840e-02
4.6866088e-02
2.2684176e-02
-5.5342479e-03
-2.3610841e-02
-3.7170833e-02
-4.5918376e-02
-4.3585272e-02
-2.4179488e-02
-6.8435969e-04
1.6574586e-02
1.9450136e-02
1.1291957e-03
-2.0233620e-02
-3.8051737e-02
-5.4215042e-02
-5.7203958e-02
-3.5216928e-02
1.3620369e-02
6.4284625e-02
1.0087135e-01
1.1933405e-01
1.1018115e-01
8.8163397e-02
6.1796459e-02
3.1522217e-02
8.4640124e-03
1.0689055e-03
1.1954708e-02
2.6199130e-02
3.6987233e-02
4.2321273e-02
3.7482455e-02
3.5142797e-02
3.2760178e-02
2.4978563e-02
1.9353006e-02
2.1506973e-02
3.3805384e-02
3.5841480e-02
1.7029159e-02
-1.0345390e-02
-3.8372885e-02
-5.6733460e-02
-6.6753328e-02
-7.3997957e-02
-7.3275699e-02
-5.7021984e-02
-2.4415782e-02
1.1798075e-02
4.7850438e-02
6.8968904e-02
6.1067238e-02
4.2974047e-02
1.5333234e-02
-2.5775408e-02
-6.2989010e-02
-8.3421228e-02
-8.6728801e-02
-8.4046941e-02
-7.6227736e-02
-7.1591380e-02
-8.4732798e-02
-9.9114326e-02
-1.0737390e-01
-1.1748269e-01
-1.2393643e-01
-1.2059876e-01
-1.0764159e-01
-9.2486504e-02
-7.5671453e-02
-5.9053862e-02
-4.2801152e-02
-1.4609867e-02
1.9050969e-02
4.9429468e-02
8.0671895e-02
1.2028578e-01
1.7484083e-01
2.3440147e-01
2.9057014e-01
3.2066461e-01
3.0863753e-01
2.7065101e-01
2.0158886e-01
1.0895309e-01
2.3717261e-02
-3.9142272e-02
-7.6332947e-02
-9.7901644e-02
-1.1210107e-01
-1.2329810e-01
-1.2702115e-01
-1.1736959e-01
-1.1394626e-01
-1.2363849e-01
-1.2896283e-01
-1.1866095e-01
-9.1896722e-02
-5.5219361e-02
-1.2176020e-02
1.8531514e-02
2.5263190e-02
2.8452100e-02
2.8222189e-02
1.7438232e-02
9.5199391e-03
1.5046323e-02
2.8894553e-02
3.9850169e-02
5.2877111e-02
5.8252071e-02
4.3031523e-02
2.2398045e-02
-1.8552180e-03
-2.7804255e-02
-4.2122472e-02
-3.8308202e-02
-1.9200730e-02
3.9934585e-03
3.1254512e-02
5.8691179e-02
8.5375177e-02
1.0513636e-01
8.2625697e-02
2.0775397e-02
-3.8027928e-02
-7.3329421e-02
-9.2328957e-02
-1.0545586e-01
-1.0828429e-01
-1.0672806e-01
-1.0309114e-01
-8.8396222e-02
-7.6312976e-02
-7.3039175e-02
-6.1193009e-02
-2.7802342e-02
5.3107244e-03
9.8203765e-03
5.1705279e-03
1.6001708e-02
4.9617568e-02
8.7880822e-02
9.1417897e-02
6.6929037e-02
4.5745498e-02
3.8828045e-02
4.2462003e-02
4.9351852e-02
6.2013662e-02
7.1216301e-02
7.2401226e-02
6.7808352e-02
3.6619081e-02
-1.2759130e-02
-4.5412581e-02
-4.9575265e-02
-3.4636819e-02
-8.9557018e-03
3.1147212e-02
6.5034024e-02
7.7209898e-02
8.2300862e-02
6.9901674e-02
3.4331869e-02
-4.5177800e-03
-3.3752280e-02
-5.3235353e-02
-6.4031970e-02
-5.8989776e-02
-4.9716182e-02
-4.5408312e-02
-4.1386278e-02
-4.9697259e-02
-6.8142681e-02
-7.8002791e-02
-7.1356445e-02
-5.5006023e-02
-3.3912130e-02
-1.2767521e-03
3.3582198e-02
6.3004011e-02
8.5736808e-02
8.3850819e-02
5.6504719e-02
2.2914061e-02
-1.7402367e-03
-1.9262934e-02
-3.9139969e-02
-5.1606155e-02
-4.8639399e-02
-2.8375342e-02
-5.7816347e-03
-8.6693424e-03
-2.7552708e-02
-3.8984843e-02
-3.2855205e-02
-1.7911864e-02
-6.6662934e-03
9.9189586e-03
2.9033768e-02
4.5802268e-02
6.0695614e-02
5.8356749e-02
4.0705926e-02
2.3547111e-02
1.3448036e-02
4.1770297e-03
-7.9705968e-03
-1.0617221e-02
-2.1060447e-03
1.8296575e-02
4.1491042e-02
4.3710410e-02
3.1888553e-02
2.4065389e-02
2.5638640e-02
2.6009354e-02
1.6053980e-02
6.4700315e-03
-3.4461680e-03
-1.3694251e-02
-2.1758018e-02
-3.5915900e-02
-5.0046908e-02
-5.3295484e-02
-4.4718272e-02
-3.4757681e-02
-2.9507920e-02
-1.9706571e-02
-7.6642045e-03
3.8644328e-03
8.1727479e-03
-9.0686623e-03
-3.3941263e-02
-4.5613983e-02
-4.1262089e-02
-3.4032667e-02
-2.8669362e-02
-1.5668487e-02
5.8405710e-04
1.8850888e-02
3.5476329e-02
4.1966845e-02
4.6689341e-02
5.6309844e-02
7.2763773e-02
7.6961140e-02
4.9106904e-02
4.9413693e-03
-4.0833570e-02
-7.8573319e-02
-1.0143224e-01
-1.1162255e-01
-1.1206583e-01
-1.0568732e-01
-9.1619834e-02
-7.9044420e-02
-7.1823178e-02
-6.0061106e-02
-4.5463142e-02
-2.9701065e-02
-1.8758627e-02
-1.7991612e-02
-1.8134709e-02
-1.3691144e-02
5.6542784e-05
1.2302364e-02
1.4886729e-02
2.5047673e-02
4.8904903e-02
8.9283353e-02
1.3030652e-01
1.4564985e-01
1.4518839e-01
1.4330978e-01
1.4767123e-01
1.4922604e-01
1.3919446e-01
1.3255945e-01
1.3693307e-01
1.6029395e-01
1.8328788e-01
1.6549551e-01
1.0691035e-01
3.1363578e-02
-3.6274559e-02
-8.1050111e-02
-1.0337078e-01
-1.0903356e-01
-1.0708957e-01
-9.7586425e-02
-8.6689073e-02
-8.6050887e-02
-8.8425415e-02
-8.4827191e-02
-7.4328573e-02
-6.5409836e-02
-6.1905001e-02
-5.8632293e-02
-5.4240394e-02
-4.5267803e-02
-4.3537593e-02
-5.9613732e-02
-7.6628255e-02
-7.9545489e-02
-6.8617386e-02
-5.6005589e-02
-5.0283899e-02
-4.6996517e-02
-3.9576828e-02
-2.4658673e-02
-1.0254198e-02
-7.2769778e-04
1.0878957e-02
2.7616080e-02
4.8912884e-02
6.4893020e-02
6.5197644e-02
5.3278114e-02
3.6466556e-02
1.9823592e-02
5.3936075e-03
-4.0727012e-03
-3.9079244e-03
9.5927952e-03
3.4769454e-02
6.3247857e-02
9.1572100e-02
1.1658794e-01
1.3257828e-01
1.3906675e-01
1.3121072e-01
1.0657894e-01
7.3343228e-02
3.6738671e-02
-3.1706906e-03
-4.2454926e-02
-7.0892413e-02
-8.4064387e-02
-8.7588014e-02
-8.7024933e-02
-8.4916438e-02
-7.8699265e-02
-6.4835636e-02
-4.6362535e-02
-3.1778247e-02
-2.7201539e-02
-2.9372296e-02
-3.4333384e-02
-3.8197163e-02
-3.7942011e-02
-3.8504054e-02
-3.9210404e-02
-3.3245241e-02
-1.8947270e-02
4.8338677e-04
1.9801857e-02
3.8145019e-02
5.0281537e-02
5.3234267e-02
5.2204620e-02
4.5605464e-02
3.8683887e-02
3.5830804e-02
3.1365610e-02
2.2843506e-02
9.6568389e-03
-5.0020070e-03
-1.9078904e-02
-2.8490386e-02
-2.8021124e-02
-2.3802980e-02
-1.8199213e-02
-9.8786055e-03
-3.7849804e-03
-2.7188940e-03
-4.5883990e-03
-4.9771426e-03
-4.7277342e-03
-2.3797659e-04
1.4674415e-02
3.1165595e-02
4.3002537e-02
5.1259074e-02
5.3579164e-02
4.8001095e-02
3.6341313e-02
2.6009805e-02
2.0570795e-02
1.8211111e-02
1.5327637e-02
5.7335894e-03
-8.9805978e-03
-2.4042418e-02
-4.2584398e-02
-6.8183603e-02
-9.2786086e-02
-1.0265213e-01
-1.0127912e-01
-9.5108040e-02
-8.1199882e-02
-6.1544527e-02
-3.3586465e-02
3.1505753e-03
3.9510342e-02
6.9756085e-02
9.6752793e-02
1.2531718e-01
1.4387734e-01
1.4200649e-01
1.2072262e-01
7.9172975e-02
2.9266628e-02
-1.8618526e-02
-6.6777854e-02
-1.1603606e-01
-1.6154732e-01
-1.9711878e-01
-2.2643175e-01
-2.5205172e-01
-2.7260439e-01
-2.8913960e-01
-2.9687302e-01
-2.9307792e-01
-2.8223172e-01
-2.6779435e-01
-2.4478562e-01
-2.0317440e-01
-1.4278346e-01
-6.6275593e-02
2.7475893e-02
1.3906554e-01
2.6706253e-01
3.9369548e-01
4.9132731e-01
5.4373764e-01
5.4749523e-01
5.0734693e-01
4.3727443e-01
3.6272553e-01
3.0235646e-01
2.5942217e-01
2.2942754e-01
1.9546047e-01
1.4249135e-01
7.0124768e-02
-8.9780293e-03
-7.5855445e-02
-1.2343430e-01
-1.5050996e-01
-1.5887211e-01
-1.5633753e-01
-1.4389384e-01
-1.2394349e-01
-1.0460943e-01
-9.4276528e-02
-8.9974284e-02
-7.6692581e-02
-5.7305855e-02
-4.0502995e-02
-3.2210239e-02
-3.8900963e-02
-4.9513371e-02
-5.4665133e-02
-5.6888985e-02
-5.9760195e-02
-6.1422762e-02
-5.7500073e-02
-5.1783045e-02
-4.6845513e-02
-4.3377935e-02
-4.3437220e-02
-4.2928046e-02
-3.9630753e-02
-3.7134793e-02
-4.0342933e-02
-4.6465838e-02
-4.5574191e-02
-3.7102615e-02
-2.3044096e-02
-7.1381566e-03
4.7212970e-03
1.9016220e-02
4.0864968e-02
6.4959925e-02
7.8638930e-02
7.5173253e-02
6.4491552e-02
5.2631617e-02
3.9212944e-02
2.0987877e-02
-3.6620330e-03
-2.4051603e-02
-3.2441517e-02
-3.4579667e-02
-4.1002650e-02
-4.9382024e-02
-5.0269063e-02
-4.7913524e-02
-4.7497325e-02
-5.1653862e-02
-6.1692945e-02
-6.8423253e-02
-6.5334835e-02
-5.5064993e-02
-4.4028583e-02
-2.7348843e-02
4.8517375e-03
4.4982939e-02
8.7849126e-02
1.1531208e-01
1.0603823e-01
8.3057476e-02
6.7167317e-02
5.3938862e-02
3.4866125e-02
1.0424287e-02
-7.4016755e-03
-1.4659435e-02
-1.1167296e-02
-1.8942775e-03
8.4342090e-03
2.3916412e-02
4.0737987e-02
4.7179912e-02
2.9056233e-02
-9.8901940e-03
-4.7124931e-02
-7.2333667e-02
-7.9793060e-02
-7.3973428e-02
-6.6740898e-02
-5.4558236e-02
-3.2913839e-02
-5.5777988e-03
1.7857555e-02
3.3583675e-02
4.5664208e-02
5.3831113e-02
5.9359758e-02
6.0782485e-02
5.5881179e-02
5.1737694e-02
5.0123116e-02
4.2780344e-02
2.2113988e-02
-6.5201330e-03
-3.2600850e-02
-5.1100032e-02
-5.6975672e-02
-5.7223023e-02
-6.0553794e-02
-6.0960125e-02
-5.5298433e-02
-4.8435687e-02
-4.5004224e-02
-4.0078099e-02
-3.1709958e-02
-2.4803755e-02
-1.2588384e-02
2.5993852e-03
1.2618255e-02
2.3619781e-02
4.0346702e-02
5.8777339e-02
6.7933629e-02
6.9049503e-02
6.2466670e-02
3.9654000e-02
1.3248678e-02
-1.0077580e-02
-3.2374936e-02
-4.7201177e-02
-5.4473786e-02
-5.7663279e-02
-6.4012884e-02
-7.5196560e-02
-8.3652533e-02
-8.1544427e-02
-6.1198423e-02
-2.3845160e-02
2.4311743e-02
7.4625412e-02
1.1700427e-01
1.4492014e-01
1.4682784e-01
1.2194173e-01
7.6642030e-02
1.4406131e-02
-4.5768636e-02
-8.7947031e-02
-1.0658070e-01
-9.9792093e-02
-7.1378790e-02
-2.7177185e-02
1.1096029e-02
2.5140825e-02
1.4400043e-02
-1.4519357e-02
-4.5013375e-02
-6.8639706e-02
-8.2818152e-02
-8.2541428e-02
-6.8039163e-02
-4.2179752e-02
-5.7905623e-03
4.7114914e-02
1.0398349e-01
1.4733046e-01
1.8048404e-01
1.9100285e-01
1.7383911e-01
1.5129282e-01
1.3585759e-01
1.2629657e-01
1.1607687e-01
1.0155057e-01
7.2146083e-02
2.1559387e-02
-3.5122167e-02
-9.1227021e-02
-1.4267166e-01
-1.8171379e-01
-2.0933706e-01
-2.2443473e-01
-2.2290463e-01
-2.0133023e-01
-1.6582900e-01
-1.2291657e-01
-7.2102558e-02
-1.9174608e-02
3.1951153e-02
8.3208336e-02
1.3692353e-01
1.8863230e-01
2.2068142e-01
2.2421868e-01
2.0238938e-01
1.6246597e-01
1.2189191e-01
9.5554767e-02
8.1351807e-02
6.2844377e-02
3.7400806e-02
1.5629950e-02
-1.9570617e-04
-1.2531281e-02
-3.8415896e-02
-8.8214093e-02
-1.4114912e-01
-1.7616260e-01
-1.8658967e-01
-1.7888008e-01
-1.5995024e-01
-1.2897920e-01
-8.4878918e-02
-2.7226393e-02
2.9722218e-02
7.5249279e-02
1.0581752e-01
1.1572195e-01
1.2270110e-01
1.3617279e-01
1.4492956e-01
1.4068678e-01
1.2041447e-01
9.5290090e-02
7.0986376e-02
4.4496002e-02
1.4543939e-02
-1.4161888e-02
-3.3092767e-02
-5.1833191e-02
-7.5765642e-02
-9.4344461e-02
-9.8998540e-02
-8.8091749e-02
-7.1330257e-02
-5.4776220e-02
-4.6768456e-02
-5.1570185e-02
-5.6052174e-02
-5.9651077e-02
-6.5596434e-02
-7.1108151e-02
-8.0289650e-02
-9.3924652e-02
-1.0979748e-01
-1.2340835e-01
-1.2512264e-01
-1.0612427e-01
-7.4198797e-02
-5.1519314e-02
-3.9901836e-02
-2.9532739e-02
-1.6881415e-02
1.0524994e-03
2.0468740e-02
4.2081096e-02
5.9709439e-02
6.5698053e-02
7.0573755e-02
7.3961384e-02
7.3650868e-02
7.6700801e-02
9.0121983e-02
1.1743540e-01
1.4936480e-01
1.8406175e-01
2.0635011e-01
1.9491609e-01
1.6149973e-01
1.1126008e-01
5.1295965e-02
1.6255112e-03
-3.2666829e-02
-5.5220999e-02
-6.9882822e-02
-7.6457278e-02
-8.3019392e-02
-9.0409874e-02
-8.8295297e-02
-8.6739749e-02
-9.1917832e-02
-9.3981881e-02
-8.3950582e-02
-6.0931397e-02
-3.3442641e-02
-2.5145814e-03
2.2822622e-02
3.7722068e-02
4.5418574e-02
3.0294774e-02
-1.3279662e-03
-2.7218793e-02
-4.0913915e-02
-4.5729741e-02
-5.0567085e-02
-5.5255248e-02
-5.8229820e-02
-5.2784195e-02
-3.1858840e-02
-1.1642597e-02
-2.8147082e-03
2.0380687e-03
9.6629176e-03
1.6253531e-02
1.6735038e-02
2.0891903e-02
2.9057389e-02
4.0765571e-02
5.7057605e-02
5.9108555e-02
4.5447780e-02
3.4666570e-02
3.7113541e-02
4.4082483e-02
4.3829722e-02
4.3900769e-02
4.1259203e-02
3.4500224e-02
2.8737611e-02
1.0615142e-02
-1.3791035e-02
-2.6996235e-02
-2.7855568e-02
-2.7502425e-02
-3.4253301e-02
-4.1217698e-02
-5.0821128e-02
-6.3678035e-02
-7.8218003e-02
-1.0528419e-01
-1.3657483e-01
-1.5449644e-01
-1.5572634e-01
-1.4735619e-01
-1.3263022e-01
-1.0632406e-01
-7.3635921e-02
-3.6191739e-02
7.2194831e-03
4.6043155e-02
8.0254074e-02
1.1012253e-01
1.2593350e-01
1.1667904e-01
8.6046714e-02
6.5649933e-02
7.6039970e-02
1.1565415e-01
1.5503046e-01
1.5658297e-01
1.2921210e-01
9.6028521e-02
6.8988338e-02
4.1366531e-02
4.6725730e-03
-2.0317426e-02
-2.3112377e-02
-6.5027058e-03
7.3059751e-03
-1.1669998e-02
-4.7235092e-02
-7.2784227e-02
-8.0198416e-02
-8.0867304e-02
-8.8923254e-02
-9.1482921e-02
-8.1896279e-02
-6.0813349e-02
-3.0698410e-02
-3.8078576e-03
2.1315334e-02
5.1363447e-02
8.8357550e-02
1.1476207e-01
1.1487843e-01
1.0898430e-01
1.1334829e-01
1.2993509e-01
1.4547701e-01
1.3699913e-01
1.0666605e-01
7.1294858e-02
4.2790719e-02
1.8007223e-02
-7.4259175e-03
-2.7064703e-02
-4.8205726e-02
-8.0425063e-02
-1.1761523e-01
-1.4851875e-01
-1.6490151e-01
-1.6793102e-01
-1.6541489e-01
-1.6710344e-01
-1.7347160e-01
-1.7264205e-01
-1.5656387e-01
-1.2795341e-01
-9.5346277e-02
-6.1443096e-02
-2.4840927e-02
5.4972478e-03
1.5079096e-02
-6.3461605e-03
-5.1323785e-02
-9.6802726e-02
-1.2695875e-01
-1.3538009e-01
-1.3116119e-01
-1.2243695e-01
-9.8075723e-02
-4.9358477e-02
2.2230677e-02
9.4269147e-02
1.5022124e-01
1.9464285e-01
2.2373489e-01
2.4089481e-01
2.5607507e-01
2.8171499e-01
3.2497627e-01
3.5990831e-01
3.4982289e-01
2.8121985e-01
1.7574977e-01
7.0621548e-02
-1.3524331e-02
-7.0208880e-02
-1.0357709e-01
-1.1754038e-01
-1.0974594e-01
-7.9959579e-02
-3.1271468e-02
2.0535823e-02
5.7485770e-02
6.9450825e-02
5.9259074e-02
5.0616531e-02
5.1335719e-02
4.7074194e-02
2.7726430e-02
-1.2068290e-02
-6.5013959e-02
-1.1813249e-01
-1.6007993e-01
-1.8293962e-01
-1.8805599e-01
-1.8185694e-01
-1.7318327e-01
-1.6267644e-01
-1.4190823e-01
-1.0638739e-01
-6.1017172e-02
-2.0055798e-02
5.7148924e-03
8.4723078e-03
-6.3590520e-03
-1.4119885e-02
-6.7157129e-03
1.2571118e-02
4.3104670e-02
7.5230132e-02
9.6041552e-02
9.8724733e-02
8.1800928e-02
4.8396254e-02
1.3769623e-02
-7.9620445e-03
-2.4319761e-02
-4.4659586e-02
-6.3715910e-02
-7.5103815e-02
-7.8665271e-02
-7.3049115e-02
-5.4361542e-02
-3.3556616e-02
-1.9921022e-02
-7.0604736e-03
8.1800355e-03
3.5093891e-02
8.3121672e-02
1.4124786e-01
1.8140119e-01
1.7847581e-01
1.3149896e-01
5.9931116e-02
-4.8951178e-03
-3.8484432e-02
-4.2807842e-02
-2.6176887e-02
9.2841716e-03
5.5588976e-02
9.5346548e-02
1.0959212e-01
9.4674447e-02
5.7376895e-02
3.3646854e-03
-5.6826490e-02
-1.1128155e-01
-1.5355244e-01
-1.8385279e-01
-2.0389524e-01
-2.1230641e-01
-2.0601370e-01
-1.8371344e-01
-1.5049316e-01
-1.0831649e-01
-6.0580671e-02
-1.4383206e-02
3.6395628e-02
9.9217579e-02
1.6064811e-01
1.9395846e-01
1.9606900e-01
1.8321687e-01
1.5499955e-01
1.1647454e-01
8.4552427e-02
6.1171942e-02
4.7025061e-02
4.3514952e-02
4.5029951e-02
4.4989161e-02
4.4891757e-02
4.8903783e-02
4.8741578e-02
4.1117003e-02
2.1090661e-02
-1.8369213e-02
-6.1698307e-02
-9.5678158e-02
-1.2283050e-01
-1.4951509e-01
-1.7393277e-01
-1.8525820e-01
-1.8473685e-01
-1.7250682e-01
-1.4159207e-01
-9.4814292e-02
-4.0572977e-02
1.1336151e-02
5.4565962e-02
8.4360743e-02
9.8937177e-02
1.0358736e-01
1.0359996e-01
1.0591815e-01
1.1642226e-01
1.3256245e-01
1.4523768e-01
1.3931194e-01
1.0816672e-01
6.2423681e-02
1.5665021e-02
-2.3801006e-02
-5.8082420e-02
-8.5113032e-02
-9.9438172e-02
-1.0243329e-01
-8.9874522e-02
-6.0625226e-02
-2.2600751e-02
1.0613398e-02
3.7353058e-02
6.4848677e-02
8.3606502e-02
9.1111318e-02
8.4762879e-02
5.6968825e-02
2.3952014e-02
9.7786862e-04
-1.2578473e-02
-2.4444822e-02
-3.6848865e-02
-4.3778042e-02
-4.6105545e-02
-4.2639198e-02
-3.3008447e-02
-2.2195350e-02
-1.1307044e-02
-2.2111696e-03
3.0728189e-03
2.5999206e-03
2.6936042e-03
1.3671306e-02
3.3052351e-02
5.7000502e-02
7.7091840e-02
8.6080713e-02
9.0323056e-02
8.6778721e-02
6.0435086e-02
8.8521377e-03
-4.4424992e-02
-7.9306669e-02
-1.0111145e-01
-1.1828512e-01
-1.3578406e-01
-1.5375338e-01
-1.6225397e-01
-1.5755212e-01
-1.4933338e-01
-1.5332437e-01
-1.7289637e-01
-1.9500351e-01
-2.1054628e-01
-2.1535580e-01
-2.1376050e-01
-2.0918069e-01
-1.9327604e-01
-1.5972409e-01
-1.0694487e-01
-3.9440085e-02
3.8453762e-02
1.2441048e-01
2.1727121e-01
3.1993030e-01
4.1628253e-01
4.8214906e-01
5.0863669e-01
4.8414290e-01
4.0435410e-01
2.9509646e-01
1.9728765e-01
1.2946244e-01
8.7573037e-02
6.5333019e-02
3.7923572e-02
-1.1201866e-02
-6.3368596e-02
-1.0363187e-01
-1.2957107e-01
-1.4077875e-01
-1.3707642e-01
-1.2020657e-01
-9.2367441e-02
-5.2237902e-02
-1.0483838e-02
2.4725104e-02
5.7937873e-02
8.0869936e-02
7.9962627e-02
5.2506659e-02
9.1268518e-03
-3.7469878e-02
-8.0764795e-02
-1.1008230e-01
-1.2484526e-01
-1.3373523e-01
-1.3871314e-01
-1.3847295e-01
-1.3249050e-01
-1.2395439e-01
-1.1237379e-01
-9.7084228e-02
-7.8207126e-02
-5.0778344e-02
-1.6027674e-02
2.4592767e-02
7.0484434e-02
1.1099037e-01
1.3059018e-01
1.1341590e-01
6.2598655e-02
1.9076076e-03
-5.1139506e-02
-8.6272875e-02
-9.8930126e-02
-9.4505180e-02
-8.4137659e-02
-7.2619542e-02
-5.8281124e-02
-3.9808979e-02
-1.1086869e-02
2.4480353e-02
5.8444142e-02
8.3023695e-02
7.2368363e-02
2.4402456e-02
-2.8180313e-02
-7.0516831e-02
-1.0453549e-01
-1.2974327e-01
-1.4267135e-01
-1.4292911e-01
-1.3114259e-01
-1.1041291e-01
-9.1386581e-02
-7.2865942e-02
-4.4953345e-02
-4.1575609e-03
4.1937260e-02
7.9428007e-02
1.1052726e-01
1.4751229e-01
1.9846147e-01
2.6437286e-01
3.1995565e-01
3.4442280e-01
3.5071804e-01
3.3761422e-01
2.8452744e-01
1.9188324e-01
8.8779363e-02
-3.1749300e-03
-7.9277268e-02
-1.3314802e-01
-1.6204263e-01
-1.6492783e-01
-1.4829427e-01
-1.2068235e-01
-8.3320431e-02
-3.7129903e-02
1.6690715e-02
6.0003695e-02
7.9550750e-02
8.0467526e-02
5.8893451e-02
2.4885430e-02
-5.7362529e-03
-3.1749774e-02
-5.3312613e-02
-6.5896412e-02
-6.5116190e-02
-6.1122870e-02
-5.8371353e-02
-5.5359120e-02
-5.6480303e-02
-5.7889452e-02
-5.8496494e-02
-5.8960229e-02
-5.6911672e-02
-5.0823200e-02
-3.9260637e-02
-3.0746488e-02
-2.6508712e-02
-2.1486865e-02
-1.8311672e-02
-1.4680358e-02
-1.5834534e-02
-2.6958601e-02
-3.9734393e-02
-4.3931253e-02
-3.4263253e-02
-1.9365651e-02
-6.6789488e-03
-9.5861276e-04
-7.3692849e-03
-1.5365174e-02
-1.9097312e-02
-2.0857656e-02
-1.6700339e-02
-1.0880970e-03
2.7651993e-02
5.5932756e-02
7.3497190e-02
7.4046399e-02
5.3253943e-02
2.7625286e-02
2.4978107e-03
-2.5045576e-02
-4.8613602e-02
-6.2344268e-02
-6.1751896e-02
-5.7045192e-02
-5.6068120e-02
-6.6560227e-02
-1.0013086e-01
-1.4186271e-01
-1.7815319e-01
-2.0605752e-01
-2.1751732e-01
-2.0744627e-01
-1.7502944e-01
-1.3557857e-01
-9.7678341e-02
-7.1087986e-02
-6.9039524e-02
-7.2676317e-02
-7.8215462e-02
-9.0584250e-02
-9.9566027e-02
-9.8331903e-02
-7.3640351e-02
-3.0656686e-02
2.0398525e-02
6.9397949e-02
9.6971170e-02
1.0947870e-01
1.1839159e-01
1.3817405e-01
1.8962208e-01
2.7229721e-01
3.6415751e-01
4.3007724e-01
4.6422511e-01
4.8491164e-01
5.0167489e-01
5.1988878e-01
5.1441295e-01
4.6597296e-01
3.8682778e-01
2.9251657e-01
2.1532567e-01
1.6933837e-01
1.4503285e-01
1.2331952e-01
8.7974968e-02
4.1643822e-02
-3.1888506e-02
-1.2890316e-01
-2.1732556e-01
-2.8180582e-01
-3.2049794e-01
-3.4265260e-01
-3.4767562e-01
-3.3853987e-01
-3.2470654e-01
-3.0995610e-01
-3.1051471e-01
-3.2232461e-01
-3.2130050e-01
-2.9623636e-01
-2.5006087e-01
-1.9802228e-01
-1.4850035e-01
-1.0648469e-01
-7.1610931e-02
-3.7981031e-02
-2.0020583e-02
-1.9148451e-02
-1.3985803e-02
7.9719456e-03
4.7574411e-02
9.4865359e-02
1.4253502e-01
1.7923076e-01
1.9669833e-01
2.0074351e-01
1.8570821e-01
1.5363884e-01
1.1729623e-01
8.2542893e-02
5.2056056e-02
1.5590208e-02
-2.6549831e-02
-6.0128132e-02
-7.5634773e-02
-7.1719857e-02
-6.5923219e-02
-6.7114826e-02
-6.3229049e-02
-4.6375638e-02
-1.8043117e-02
1.6047417e-02
4.9994367e-02
7.1231807e-02
7.5999381e-02
7.0389952e-02
4.7632806e-02
1.3877380e-02
-1.2101339e-02
-2.2310266e-02
-1.7671974e-02
-5.5260486e-03
1.1664488e-02
2.5733939e-02
3.0504710e-02
2.5986858e-02
1.7662134e-03
-3.2766772e-02
-5.6109059e-02
-6.3303321e-02
-6.1649441e-02
-5.9389137e-02
-5.6251256e-02
-5.6723252e-02
-6.1098110e-02
-6.1853376e-02
-6.4433293e-02
-6.9154885e-02
-6.5755236e-02
-4.9290628e-02
-2.4841331e-02
-2.3442246e-03
2.0129683e-02
3.7352496e-02
4.3637262e-02
4.7374655e-02
4.6665802e-02
4.3963218e-02
4.8474530e-02
5.8385189e-02
5.5629314e-02
2.6874625e-02
-8.4616406e-03
-2.8311821e-02
-2.8714326e-02
-2.1936147e-02
-2.6915318e-02
-3.9620754e-02
-4.4235301e-02
-3.1847282e-02
-1.1851111e-02
3.4736043e-04
1.2374898e-02
2.4192944e-02
3.3872234e-02
4.2074228e-02
3.2792359e-02
1.3997979e-02
9.9040970e-03
3.1395605e-02
6.8745519e-02
1.0679404e-01
1.5156389e-01
1.8476000e-01
1.8737369e-01
1.7031124e-01
1.2395956e-01
5.3149436e-02
-1.5512117e-02
-6.8386351e-02
-1.0407795e-01
-1.2640442e-01
-1.3373273e-01
-1.3134394e-01
-1.1794164e-01
-9.9070298e-02
-1.0282662e-01
-1.2703472e-01
-1.4688284e-01
-1.5299117e-01
-1.5009455e-01
-1.4227716e-01
-1.2654284e-01
-1.1528550e-01
-1.1507996e-01
-1.1297648e-01
-1.0282714e-01
-7.6780599e-02
-3.2021910e-02
2.4842276e-02
8.4293899e-02
1.2670871e-01
1.4097195e-01
1.2938342e-01
1.0970486e-01
9.1696499e-02
6.3268612e-02
3.9203846e-02
3.9779127e-02
6.8268209e-02
1.1238979e-01
1.5603500e-01
2.0405750e-01
2.4197403e-01
2.6219519e-01
2.6607670e-01
2.2182327e-01
1.3193710e-01
3.8142287e-02
-3.4633319e-02
-8.6420685e-02
-1.2171439e-01
-1.3273651e-01
-1.2322622e-01
-9.7814967e-02
-7.0675846e-02
-7.5074448e-02
-1.0656533e-01
-1.3787012e-01
-1.5621253e-01
-1.6667987e-01
-1.7632787e-01
-1.7511499e-01
-1.6102245e-01
-1.3327701e-01
-1.0707403e-01
-1.1076338e-01
-1.2904072e-01
-1.3702775e-01
-1.2541031e-01
-9.7190452e-02
-6.2111796e-02
-1.4415112e-02
4.5958877e-02
1.1861064e-01
1.9443045e-01
2.4172009e-01
2.6070586e-01
2.7856604e-01
3.0914575e-01
3.4995138e-01
3.8921501e-01
4.0926248e-01
3.8590267e-01
3.3335280e-01
2.7276919e-01
1.8586591e-01
7.8231211e-02
-2.1842719e-02
-1.0199166e-01
-1.6079780e-01
-1.9738176e-01
-2.0999005e-01
-2.0904404e-01
-2.0317751e-01
-1.9719659e-01
-2.0011189e-01
-2.0561200e-01
-2.0227628e-01
-1.8633639e-01
-1.6354458e-01
-1.4084225e-01
-1.1542691e-01
-9.3467521e-02
-7.3743667e-02
-5.5288284e-02
-5.6877843e-02
-7.5014102e-02
-9.0450060e-02
-9.5795302e-02
-9.7913817e-02
-9.9312593e-02
-8.8394107e-02
-6.9314906e-02
-4.3734672e-02
-1.9890192e-02
-2.4805385e-02
-4.8376143e-02
-6.3438610e-02
-6.0710309e-02
-4.2057662e-02
-1.0609246e-02
3.4641167e-02
8.2066934e-02
1.3123301e-01
1.8092792e-01
2.0553377e-01
2.0314051e-01
1.9012464e-01
1.8087760e-01
1.7628469e-01
1.6588866e-01
1.5403696e-01
1.4001360e-01
1.2550130e-01
1.1401420e-01
9.9478014e-02
8.5124092e-02
7.1546574e-02
5.4190681e-02
2.2578454e-02
-2.6867786e-02
-7.3423361e-02
-1.0694972e-01
-1.2624163e-01
-1.3323775e-01
-1.3948378e-01
-1.4205162e-01
-1.3250660e-01
-1.0762350e-01
-8.0766723e-02
-6.3127352e-02
-4.3313435e-02
-2.6399793e-02
-1.6130402e-02
-1.1207353e-02
-2.2187698e-02
-4.0151494e-02
-5.0169998e-02
-4.7755834e-02
-3.6526523e-02
-1.9093946e-02
4.9782982e-03
2.8078456e-02
5.5163818e-02
8.4652278e-02
1.0052402e-01
1.1113670e-01
1.2957579e-01
1.5752315e-01
1.7760916e-01
1.7384984e-01
1.5811896e-01
1.3848505e-01
1.2616325e-01
1.1601227e-01
8.2762161e-02
3.2196587e-02
-2.0625923e-02
-7.6008667e-02
-1.3464921e-01
-1.8454813e-01
-2.1266413e-01
-2.2481590e-01
-2.3514500e-01
-2.4621999e-01
-2.4449226e-01
-2.2041393e-01
-1.7821953e-01
-1.2732716e-01
-8.6593715e-02
-6.3094817e-02
-4.3675036e-02
-2.4798238e-02
-6.3649647e-03
8.7478106e-03
1.0574754e-02
-5.0512603e-03
-3.2236231e-02
-4.9667898e-02
-3.9641106e-02
1.2313340e-03
5.9493147e-02
1.0176897e-01
1.0483580e-01
7.6943659e-02
4.5232739e-02
2.9481092e-02
3.8131939e-02
7.0391952e-02
1.0384308e-01
1.2010281e-01
1.2718616e-01
1.3689253e-01
1.6374595e-01
2.0000329e-01
2.1113288e-01
1.9115586e-01
1.5132840e-01
1.0219702e-01
5.6358191e-02
2.1167151e-02
-2.4664196e-04
-1.7116201e-02
-4.0991071e-02
-7.8964514e-02
-1.2712297e-01
-1.6598773e-01
-1.8514396e-01
-1.9153192e-01
-1.9519442e-01
-1.8949198e-01
-1.5828847e-01
-9.6462471e-02
-3.0583924e-03
9.9840471e-02
1.7524999e-01
2.1989945e-01
2.4231394e-01
2.4412017e-01
2.2671370e-01
1.8755517e-01
1.2687577e-01
4.8121642e-02
-3.3354492e-02
-1.0377696e-01
-1.6022546e-01
-1.9871171e-01
-2.1901275e-01
-2.2292518e-01
-2.1855031e-01
-2.1411623e-01
-2.0758682e-01
-1.9656274e-01
-1.8091636e-01
-1.6982660e-01
-1.6702325e-01
-1.6041359e-01
-1.4095280e-01
-1.0412424e-01
-5.0807784e-02
2.0934152e-02
1.1744714e-01
2.3553036e-01
3.6104916e-01
4.5839382e-01
4.9030123e-01
4.5334806e-01
3.7356888e-01
2.8934728e-01
2.1340365e-01
1.3894854e-01
6.9830683e-02
8.4922027e-03
-3.1354250e-02
-5.1047561e-02
-7.2928566e-02
-9.1360108e-02
-9.6731746e-02
-9.1674692e-02
-8.2778110e-02
-7.6548636e-02
-7.0164053e-02
-6.5280308e-02
-6.2689189e-02
-6.3380735e-02
-7.2883448e-02
-8.8528556e-02
-1.0485052e-01
-1.1748712e-01
-1.2839302e-01
-1.3724090e-01
-1.3927143e-01
-1.3537348e-01
-1.2270535e-01
-1.0358775e-01
-8.2637917e-02
-5.4460177e-02
-1.4515842e-02
3.8042113e-02
9.7793153e-02
1.5697303e-01
2.0210209e-01
2.1256583e-01
1.8836882e-01
1.4331623e-01
8.6708953e-02
3.0089399e-02
-1.3496902e-02
-3.8588057e-02
-5.6299997e-02
-7.2843083e-02
-8.2078465e-02
-8.2904561e-02
-7.3369970e-02
-5.8422413e-02
-4.6484670e-02
-4.1255468e-02
-4.6146617e-02
-5.4233459e-02
-6.8125064e-02
-9.2503760e-02
-1.1235765e-01
-1.1867931e-01
-1.0905959e-01
-9.2253578e-02
-7.6214257e-02
-4.7279720e-02
1.2516360e-03
6.0385108e-02
1.1525809e-01
1.6012569e-01
1.8971934e-01
1.8347017e-01
1.4417979e-01
9.7953922e-02
6.2415115e-02
4.8528539e-02
5.6235819e-02
7.2899767e-02
8.0858465e-02
7.3107908e-02
5.7205806e-02
4.1124340e-02
3.1447063e-02
2.4197270e-02
8.0861032e-03
-1.5339356e-02
-3.6972857e-02
-5.0980838e-02
-5.7560708e-02
-5.5509963e-02
-4.8773865e-02
-4.6074946e-02
-4.1962436e-02
-3.6640006e-02
-3.6726887e-02
-4.0592633e-02
-4.6536463e-02
-5.3137210e-02
-6.2572027e-02
-7.5521456e-02
-8.8618429e-02
-9.7197310e-02
-9.4935688e-02
-9.2855499e-02
-1.0547392e-01
-1.2563350e-01
-1.4079339e-01
-1.4169659e-01
-1.2599155e-01
-9.3081026e-02
-4.1554818e-02
2.4614600e-02
1.0099156e-01
1.7822586e-01
2.4664141e-01
3.0222005e-01
3.3631088e-01
3.4312414e-01
3.2213191e-01
2.8115771e-01
2.2918725e-01
1.5655669e-01
7.1640317e-02
-3.9932622e-03
-6.4573171e-02
-1.0900064e-01
-1.4157573e-01
-1.6542516e-01
-1.8275805e-01
-1.9250113e-01
-1.9130294e-01
-1.7863830e-01
-1.5459240e-01
-1.2869632e-01
-1.0617931e-01
-8.0769801e-02
-4.8879008e-02
-1.2295667e-02
1.9791003e-02
4.3328443e-02
5.5234786e-02
5.2801677e-02
4.6071580e-02
3.3272515e-02
1.0300000e-02
-1.4605164e-02
-3.4403912e-02
-4.2971663e-02
-4.7800470e-02
-5.7591593e-02
-6.6728480e-02
-6.6882947e-02
-5.0883876e-02
-2.7761908e-02
-7.9167735e-03
1.1404439e-02
3.1078990e-02
5.1555205e-02
6.8118982e-02
8.2904900e-02
1.0433391e-01
1.3514768e-01
1.8115454e-01
2.2105829e-01
2.2841241e-01
2.0792832e-01
1.6380288e-01
1.0495006e-01
4.0485982e-02
-2.6256740e-02
-8.6255971e-02
-1.3711744e-01
-1.7820617e-01
-2.1007497e-01
-2.3292462e-01
-2.4514384e-01
-2.4615281e-01
-2.3397195e-01
-2.1347800e-01
-1.8723988e-01
-1.5365614e-01
-1.1440229e-01
-6.8297838e-02
-1.6108318e-02
4.1892714e-02
1.0616715e-01
1.7262441e-01
2.3360363e-01
2.6766439e-01
2.6804639e-01
2.4283923e-01
1.9607324e-01
1.5502059e-01
1.3172591e-01
1.1575881e-01
1.0852021e-01
1.0709131e-01
1.0660291e-01
9.9002406e-02
7.9737654e-02
5.0584398e-02
1.2787013e-02
-2.1305949e-02
-5.0814037e-02
-8.1465598e-02
-1.1148984e-01
-1.4242041e-01
-1.7086311e-01
-1.8967139e-01
-1.9077934e-01
-1.7809149e-01
-1.6270478e-01
-1.4556254e-01
-1.2754853e-01
-1.0604776e-01
-7.9904289e-02
-5.5551875e-02
-3.6712669e-02
-2.5636517e-02
-1.6519121e-02
-1.9179091e-03
1.7638928e-02
3.7732177e-02
4.9761746e-02
5.4601975e-02
5.9541807e-02
6.4175418e-02
6.5172493e-02
6.0985473e-02
5.9488367e-02
6.3246496e-02
6.9726930e-02
8.6337599e-02
1.0772919e-01
1.2297423e-01
1.2332585e-01
9.9565581e-02
5.8999847e-02
1.3450035e-02
-2.5754354e-02
-5.0503120e-02
-6.0426416e-02
-5.8606618e-02
-5.1112007e-02
-3.5188207e-02
-1.1549293e-02
9.2456871e-03
1.8716665e-02
1.3302792e-02
1.7809026e-03
-8.5887930e-03
-1.7802536e-02
-2.4901407e-02
-3.0826978e-02
-3.2867601e-02
-3.0932538e-02
-3.0322412e-02
-3.4493249e-02
-4.6252777e-02
-6.1039756e-02
-7.5058600e-02
-8.6566941e-02
-8.9739106e-02
-8.7358669e-02
-7.8439365e-02
-5.9184433e-02
-3.6121142e-02
-1.4148345e-02
6.9517355e-03
2.9383739e-02
5.0305842e-02
6.4352628e-02
7.2130934e-02
7.5238492e-02
7.7767677e-02
8.1441543e-02
8.1007561e-02
7.1014534e-02
4.9389414e-02
2.5901309e-02
6.5729191e-03
-1.0987912e-02
-2.4466886e-02
-3.6008846e-02
-4.3248940e-02
-4.2775855e-02
-3.9426121e-02
-3.5929039e-02
-3.1375493e-02
-1.9927041e-02
-3.8738713e-03
1.1109091e-02
2.6340531e-02
3.9817124e-02
5.4768812e-02
7.1831390e-02
8.1558645e-02
7.7836294e-02
6.2725786e-02
4.5889456e-02
3.1761775e-02
1.9238474e-02
7.9869402e-03
-5.3669756e-03
-2.0311443e-02
-3.5024736e-02
-5.1932512e-02
-7.2163264e-02
-9.2768193e-02
-1.0625869e-01
-1.1136075e-01
-1.0846234e-01
-9.5246439e-02
-7.7517582e-02
-5.6085382e-02
-3.1346204e-02
-1.2859124e-02
-1.3455534e-03
1.2866380e-02
3.8650183e-02
7.0763098e-02
9.5095695e-02
1.0748544e-01
1.0817899e-01
9.8268468e-02
7.8756788e-02
4.8274557e-02
1.1553031e-02
-1.8404705e-02
-3.1944320e-02
-3.8509209e-02
-4.5028298e-02
-4.5158991e-02
-4.1138252e-02
-3.1402452e-02
-1.2344863e-02
7.3071985e-03
1.6803737e-02
1.4987584e-02
1.0555162e-02
4.0266644e-03
-2.4803501e-03
-1.2282109e-03
7.7205995e-04
5.2727751e-04
1.4323119e-03
-2.4279464e-04
-7.7026337e-03
-1.6746924e-02
-1.8342445e-02
-1.4579926e-02
-7.4368390e-03
3.5714433e-03
1.0863526e-02
1.7027539e-02
2.6155066e-02
3.1470774e-02
2.3204945e-02
2.7065625e-03
-1.5366175e-02
-2.9338528e-02
-3.9399776e-02
-4.0704402e-02
-3.9485284e-02
-3.5081013e-02
-2.5558447e-02
-1.9346030e-02
-2.2309898e-02
-2.9143955e-02
-2.9612944e-02
-2.6312376e-02
-2.2215442e-02
-1.3688051e-02
-2.6980718e-03
1.3609404e-02
3.7636840e-02
6.0602416e-02
6.7800269e-02
5.6310281e-02
4.5282947e-02
3.8167310e-02
2.9825831e-02
2.9821003e-02
3.5211311e-02
4.0780967e-02
4.4333371e-02
3.8502831e-02
2.5703749e-02
2.3158751e-02
4.1608630e-02
6.0492602e-02
6.7228551e-02
6.5462916e-02
4.7789701e-02
2.4941672e-02
9.8067354e-03
-4.8391131e-03
-2.8919145e-02
-5.7967980e-02
-7.5811824e-02
-8.6297543e-02
-9.3987844e-02
-9.4022747e-02
-9.1978664e-02
-8.5740216e-02
-7.2081934e-02
-5.9448331e-02
-5.4896196e-02
-5.5348458e-02
-5.1693023e-02
-4.3784086e-02
-3.2559530e-02
-1.8682478e-02
-7.0049180e-03
6.4574856e-03
2.3525605e-02
3.8491780e-02
4.2356907e-02
3.3386895e-02
2.5725167e-02
2.5523770e-02
3.0217004e-02
3.4936000e-02
3.3459762e-02
3.4330844e-02
4.6964996e-02
6.6395787e-02
7.6019180e-02
6.9546390e-02
6.2927480e-02
6.0324412e-02
5.9028443e-02
5.8921171e-02
5.3595476e-02
4.7913984e-02
4.5984441e-02
3.9708056e-02
2.1954046e-02
2.3068034e-03
-5.3340866e-03
-1.2821864e-02
-2.5247451e-02
-3.2457894e-02
-3.7532361e-02
-3.8881073e-02
-3.4982217e-02
-3.6460231e-02
-5.0487596e-02
-6.7423568e-02
-7.2647201e-02
-7.0735638e-02
-6.5163681e-02
-5.4572686e-02
-4.7477499e-02
-4.2450268e-02
-3.5040151e-02
-3.1126533e-02
-3.7915076e-02
-4.9927823e-02
-5.5003442e-02
-5.5892248e-02
-5.4337539e-02
-5.0352905e-02
-5.1068504e-02
-5.2046860e-02
-5.0122759e-02
-5.2344821e-02
-6.2812260e-02
-7.5798237e-02
-8.0938683e-02
-7.9359957e-02
-7.2616050e-02
-5.9245598e-02
-4.1772267e-02
-1.6928237e-02
1.7826812e-02
5.2583376e-02
6.8590690e-02
6.5106979e-02
5.7617548e-02
4.9481701e-02
4.5937009e-02
5.0531277e-02
5.9941823e-02
8.0349263e-02
1.1324570e-01
1.5095724e-01
1.7980513e-01
1.9408613e-01
2.0361198e-01
2.0887624e-01
2.0615160e-01
1.8239057e-01
1.2831702e-01
6.8415444e-02
2.1024684e-02
-1.5855598e-02
-4.7525875e-02
-7.3013952e-02
-8.5450173e-02
-8.5639261e-02
-7.4557766e-02
-6.0104491e-02
-5.2235567e-02
-4.5488111e-02
-3.6726307e-02
-3.3615080e-02
-4.7024950e-02
-7.1133628e-02
-8.5601721e-02
-8.3215698e-02
-6.3321768e-02
-3.3961819e-02
-6.1236164e-03
2.4292851e-02
5.7142604e-02
8.3153919e-02
8.6257815e-02
6.1818397e-02
3.2934849e-02
1.3847179e-02
2.7535734e-03
-9.4652750e-03
-3.0062558e-02
-5.1031813e-02
-6.7962871e-02
-8.5548245e-02
-1.0793631e-01
-1.2756170e-01
-1.3483920e-01
-1.3307879e-01
-1.2416354e-01
-1.1008662e-01
-9.2344284e-02
-6.6683021e-02
-3.3210559e-02
3.5455672e-03
3.8137988e-02
7.3479261e-02
1.1027442e-01
1.3780961e-01
1.5261973e-01
1.4101384e-01
9.4685842e-02
4.1022999e-02
2.1968893e-04
-3.0164747e-02
-5.8064880e-02
-8.0291479e-02
-8.7680740e-02
-8.2726463e-02
-6.7170042e-02
-4.5506919e-02
-2.1441769e-02
9.5145180e-03
4.7257381e-02
8.6764445e-02
1.1942241e-01
1.4852854e-01
1.7942744e-01
2.0365827e-01
2.1675445e-01
2.0287731e-01
1.5703807e-01
1.0312643e-01
4.9178670e-02
-1.0258305e-02
-7.4861933e-02
-1.3341900e-01
-1.7320006e-01
-1.9395097e-01
-1.9702467e-01
-1.8778514e-01
-1.7220393e-01
-1.4887909e-01
-1.1809090e-01
-8.1730088e-02
-4.4819677e-02
-8.8351900e-03
2.4926872e-02
5.4086887e-02
8.4117395e-02
1.0558095e-01
1.1104724e-01
1.1216061e-01
1.1341477e-01
1.0902844e-01
8.9170473e-02
5.9951269e-02
3.6335131e-02
2.4540567e-02
2.8289542e-02
2.9677116e-02
1.3567837e-02
-6.7424472e-03
-2.2176704e-02
-3.6849366e-02
-5.6425834e-02
-7.5799839e-02
-9.1134217e-02
-1.0413910e-01
-1.0915867e-01
-1.1005662e-01
-1.1213855e-01
-1.1055284e-01
-1.0316083e-01
-9.2402897e-02
-8.1717242e-02
-6.7182605e-02
-4.7849932e-02
-2.4913155e-02
7.0721779e-03
3.9376714e-02
6.5402688e-02
9.4109710e-02
1.2550149e-01
1.5225109e-01
1.7211664e-01
1.9176688e-01
2.0227964e-01
1.9123204e-01
1.6905651e-01
1.3473500e-01
9.1515567e-02
5.4839553e-02
2.5790790e-02
-5.7578063e-04
-2.8900831e-02
-5.4332576e-02
-7.1639291e-02
-8.0706481e-02
-8.1004790e-02
-8.2311177e-02
-8.7285567e-02
-8.9204825e-02
-8.9238091e-02
-8.9644232e-02
-9.1172220e-02
-9.1770041e-02
-9.3568936e-02
-9.6476647e-02
-9.3128259e-02
-8.4707395e-02
-7.2635321e-02
-5.9433260e-02
-5.0427580e-02
-4.4753776e-02
-4.1124754e-02
-3.5162252e-02
-2.5411367e-02
-1.2498654e-02
2.1997896e-03
8.0700262e-03
7.5328762e-03
1.1426615e-02
2.0490240e-02
3.4507460e-02
5.3094525e-02
7.7742258e-02
1.0319411e-01
1.2513639e-01
1.4543675e-01
1.5012494e-01
1.3389076e-01
1.1071831e-01
9.0166782e-02
7.0292167e-02
4.6083340e-02
2.6183606e-02
1.3653765e-02
4.3325798e-03
4.1259313e-03
6.2405788e-03
-8.1628490e-04
-1.3863610e-02
-2.7573187e-02
-3.9144340e-02
-4.5129213e-02
-4.0958156e-02
-3.3273350e-02
-2.8447396e-02
-2.8389886e-02
-3.7770543e-02
-4.7994837e-02
-5.5920681e-02
-6.4759436e-02
-7.0758693e-02
-7.0858188e-02
-6.2291963e-02
-5.4649546e-02
-5.2758230e-02
-5.0233294e-02
-4.8843637e-02
-4.6469749e-02
-4.3900146e-02
-4.2547988e-02
-3.7217470e-02
-2.5260593e-02
-4.2516889e-03
1.9980814e-02
4.0981561e-02
5.1638600e-02
4.3596462e-02
2.7407692e-02
1.3285455e-02
1.9857168e-03
-2.1763909e-03
5.5739677e-03
2.7700548e-02
5.2284245e-02
7.2375002e-02
8.5038119e-02
7.8948481e-02
6.7109592e-02
6.2505995e-02
6.3459909e-02
6.7130843e-02
6.6616513e-02
6.0347036e-02
3.6942740e-02
-4.4009765e-03
-4.1877288e-02
-6.5634526e-02
-7.3961606e-02
-7.4162156e-02
-7.4421468e-02
-6.9838254e-02
-5.1514529e-02
-1.6026647e-02
2.4299693e-02
6.2140852e-02
8.9529495e-02
9.3549783e-02
8.2406195e-02
6.0680561e-02
2.7356242e-02
-1.0455472e-02
-4.6163795e-02
-7.3970948e-02
-9.7375435e-02
-1.1763614e-01
-1.3685551e-01
-1.5768760e-01
-1.6897951e-01
-1.7180867e-01
-1.7247187e-01
-1.6809134e-01
-1.5419468e-01
-1.2571986e-01
-8.8905131e-02
-4.8971612e-02
-6.3872210e-03
3.8846022e-02
7.7477845e-02
8.8260986e-02
8.0725321e-02
8.0245772e-02
9.5142895e-02
1.2911322e-01
1.7879471e-01
2.3738393e-01
2.8822310e-01
3.2003606e-01
3.2854420e-01
2.8944083e-01
2.1224740e-01
1.3589225e-01
7.4234427e-02
2.4353275e-02
-2.4410223e-02
-7.3203534e-02
-1.0993574e-01
-1.2478176e-01
-1.2029316e-01
-1.1673389e-01
-1.2452376e-01
-1.3217292e-01
-1.2803031e-01
-1.0963885e-01
-8.3662660e-02
-5.1176651e-02
-1.7867875e-02
1.2351089e-02
3.4840553e-02
2.5163856e-02
-8.6886083e-03
-3.7851906e-02
-5.1164767e-02
-4.8992627e-02
-4.1316944e-02
-2.9415793e-02
-1.6843647e-02
-8.0267499e-03
1.5397063e-03
1.7448343e-03
-1.1814654e-02
-2.5411611e-02
-2.7813421e-02
-1.9033671e-02
-1.0229931e-02
-8.7625297e-04
8.4770008e-03
1.4423642e-02
2.2274366e-02
2.1172855e-02
9.0952006e-03
7.5427556e-04
3.4626517e-03
1.4272254e-02
2.6004212e-02
3.9683887e-02
4.8182677e-02
5.0304993e-02
5.3020309e-02
3.9828129e-02
8.6566974e-03
-1.5674267e-02
-1.8621539e-02
-6.2621143e-03
8.7998024e-03
2.4520225e-02
3.6354231e-02
4.7170608e-02
6.0093237e-02
5.2804740e-02
2.2997397e-02
-7.1024156e-03
-2.5476560e-02
-3.2112262e-02
-3.3351444e-02
-3.1592270e-02
-3.6548686e-02
-5.0612085e-02
-6.0703113e-02
-6.7468319e-02
-7.0379123e-02
-6.3766626e-02
-5.0062546e-02
-3.5683132e-02
-2.2255265e-02
-2.7993334e-03
9.0027678e-03
1.7822964e-03
-1.0326054e-02
-2.7279295e-02
-4.7852175e-02
-6.0638626e-02
-6.3205773e-02
-5.8493137e-02
-4.5387519e-02
-1.7006634e-02
1.3356034e-02
3.7703095e-02
6.0195274e-02
6.5635438e-02
5.3678564e-02
3.9769732e-02
3.5368952e-02
3.6813961e-02
3.4758893e-02
3.8433140e-02
4.4898272e-02
5.1976544e-02
5.8502376e-02
4.2719692e-02
8.0366307e-03
-2.7315662e-02
-5.4170157e-02
-7.2075845e-02
-8.8712307e-02
-9.5161194e-02
-8.3713992e-02
-5.7467353e-02
-2.9929632e-02
-1.9638863e-02
-1.9162123e-02
-1.0918729e-02
1.2455206e-02
4.1637427e-02
6.6713824e-02
9.6000787e-02
1.2882128e-01
1.6597509e-01
1.9197929e-01
1.6799281e-01
1.0754940e-01
5.0806901e-02
1.3068919e-02
-8.1985143e-03
-1.8779723e-02
-1.5988991e-02
-9.9289948e-03
-9.4648222e-03
-1.2395995e-02
-2.2436653e-02
-3.6357537e-02
-4.5488786e-02
-4.5756258e-02
-4.4041116e-02
-4.6074556e-02
-4.5778322e-02
-4.4338217e-02
-4.1762669e-02
-3.9747711e-02
-4.6583541e-02
-5.5655681e-02
-5.8792479e-02
-5.3213800e-02
-4.3472340e-02
-3.3874486e-02
-1.8267643e-02
-3.0093616e-03
7.5149497e-03
1.5189011e-02
1.6837117e-02
1.6625022e-02
1.7577856e-02
2.2131678e-02
2.9826542e-02
3.7614100e-02
4.5179998e-02
4.3962907e-02
3.3073435e-02
2.0349070e-02
7.8870029e-03
-1.6467231e-03
-6.7367089e-03
-7.3901788e-03
-1.2709538e-02
-2.7554547e-02
-4.1164214e-02
-5.4019290e-02
-6.8042909e-02
-7.8493202e-02
-8.3602038e-02
-7.9897631e-02
-6.4580454e-02
-3.8873634e-02
-1.5595675e-02
-3.6810286e-04
1.7073611e-02
3.8152130e-02
6.2766333e-02
8.2428744e-02
8.4416280e-02
7.6276914e-02
6.6490067e-02
5.8647203e-02
4.8453907e-02
3.3562278e-02
2.3559485e-02
2.0690809e-02
2.6425771e-02
3.0024990e-02
1.7058063e-02
-2.9664031e-03
-1.8794724e-02
-2.7712665e-02
-3.6982893e-02
-5.0398501e-02
-6.1830456e-02
-7.1832991e-02
-7.9064891e-02
-8.1043566e-02
-7.2774038e-02
-5.2310669e-02
-2.9417214e-02
-9.0631832e-03
8.0191114e-03
2.5336327e-02
4.4410226e-02
5.5316181e-02
5.7273044e-02
5.1549948e-02
3.5143681e-02
1.2923035e-02
-1.0094617e-02
-2.6665286e-02
-3.3741129e-02
-3.1772318e-02
-2.2574684e-02
-1.0614718e-02
7.3804663e-03
2.5422351e-02
3.5045602e-02
4.0647555e-02
4.5781107e-02
5.1209808e-02
5.3090002e-02
5.2006967e-02
5.1075580e-02
5.0823028e-02
5.1606586e-02
4.4437083e-02
3.1899116e-02
2.3220665e-02
1.6080445e-02
8.3021777e-03
-2.3439337e-03
-1.2648910e-02
-1.9898420e-02
-2.6855615e-02
-3.0939652e-02
-3.3511199e-02
-3.7021577e-02
-3.9499629e-02
-4.0954927e-02
-4.2244671e-02
-4.7618762e-02
-5.4948800e-02
-5.9885346e-02
-6.0751395e-02
-5.4848532e-02
-4.8510202e-02
-3.9984502e-02
-2.4455433e-02
-8.4159876e-03
3.7332630e-03
9.5979341e-03
1.2626863e-02
1.7391802e-02
2.2190338e-02
2.3496445e-02
1.7365310e-02
7.4013510e-03
-2.4358973e-03
-1.5826504e-02
-3.5007056e-02
-5.7161659e-02
-7.2965282e-02
-7.9191722e-02
-7.6999663e-02
-6.3291934e-02
-4.3688224e-02
-2.1506118e-02
5.6288716e-03
3.5705268e-02
6.6764401e-02
9.5720757e-02
1.2049004e-01
1.3229438e-01
1.3021380e-01
1.2375428e-01
1.0715177e-01
8.5467319e-02
7.0105243e-02
5.7534694e-02
4.4863707e-02
3.0791487e-02
1.7463083e-02
4.4581945e-03
-6.3826935e-03
-7.7217251e-03
-7.0552948e-03
-9.2787143e-03
-1.0671042e-02
-1.4834076e-02
-2.6332355e-02
-4.4262576e-02
-5.7862776e-02
-6.5492482e-02
-7.1494723e-02
-7.0603724e-02
-6.4802751e-02
-5.5414284e-02
-4.2451974e-02
-3.2673715e-02
-2.8054062e-02
-2.3960113e-02
-1.4644947e-02
-1.8293249e-03
1.1048821e-02
2.1112596e-02
2.2327076e-02
1.9607128e-02
1.9830300e-02
1.7673445e-02
6.1184927e-03
-1.0795556e-02
-2.2405810e-02
-3.3134691e-02
-4.5481346e-02
-5.2111566e-02
-5.7800941e-02
-6.2131695e-02
-5.8146578e-02
-4.8875500e-02
-4.0232989e-02
-3.1101921e-02
-1.5903247e-02
-9.9924674e-04
1.1630122e-02
3.0497950e-02
5.3018172e-02
7.7668205e-02
1.0264204e-01
1.2057755e-01
1.1549689e-01
8.2943938e-02
4.9450270e-02
2.5953417e-02
1.1653461e-02
9.3080189e-03
1.0291436e-02
1.4830557e-02
2.5576118e-02
3.3388912e-02
2.6141134e-02
6.2152092e-03
-6.9660362e-03
-1.1783141e-02
-1.2243640e-02
-5.6127739e-03
8.2317649e-04
9.3599516e-03
1.5817739e-02
5.5683971e-03
-1.7421115e-02
-3.8232303e-02
-4.6305146e-02
-4.5653813e-02
-4.4403290e-02
-4.4982390e-02
-4.9074812e-02
-5.1499264e-02
-4.5818933e-02
-3.5874317e-02
-3.2541054e-02
-3.4191878e-02
-2.8712817e-02
-1.7699041e-02
-9.4446219e-04
2.3118506e-02
4.3822395e-02
6.1869639e-02
8.4107571e-02
1.0648438e-01
1.0982251e-01
8.7677146e-02
6.1491420e-02
3.5222415e-02
1.1173229e-02
-3.3338364e-03
-1.8763648e-02
-3.3467761e-02
-4.0688433e-02
-4.5573390e-02
-5.4963271e-02
-6.4670803e-02
-6.6125608e-02
-6.3914176e-02
-5.9363542e-02
-5.2296770e-02
-4.7688162e-02
-4.2347172e-02
-3.3582979e-02
-2.4447826e-02
-1.9338686e-02
-1.3522385e-02
4.0894758e-04
1.4995055e-02
2.5934152e-02
3.6576344e-02
4.7504365e-02
5.9971987e-02
7.3471166e-02
8.3672569e-02
7.8359294e-02
5.4533767e-02
2.8670161e-02
1.2169122e-02
7.6072235e-03
7.1082165e-03
1.9057637e-03
1.2008385e-03
1.0173943e-02
2.0342828e-02
1.7794299e-02
3.4699947e-03
-5.6973411e-03
-8.8349274e-03
-1.0817601e-02
-1.6386782e-02
-2.8262250e-02
-3.7777189e-02
-4.2015016e-02
-4.5787994e-02
-5.4377152e-02
-6.2374055e-02
-5.9479300e-02
-4.7317357e-02
-2.9141512e-02
-1.6126191e-02
-1.8311587e-02
-2.4950417e-02
-2.7361904e-02
-2.8838430e-02
-3.4794712e-02
-3.9834009e-02
-3.6662080e-02
-2.9272659e-02
-1.8874670e-02
-9.0510159e-03
-2.9418538e-03
6.5306209e-03
2.3642459e-02
4.5222160e-02
5.9964021e-02
6.7353920e-02
7.7797303e-02
8.9841652e-02
1.0307279e-01
1.0859235e-01
9.7184200e-02
8.3295289e-02
7.5554398e-02
6.7867980e-02
5.0820380e-02
2.6127532e-02
5.7807983e-03
-5.8875265e-03
-7.7143494e-03
-1.0966117e-02
-2.4329653e-02
-3.7049125e-02
-4.4826368e-02
-5.1588380e-02
-5.9645150e-02
-6.4209730e-02
-6.2760295e-02
-5.8659277e-02
-4.8126156e-02
-3.3927184e-02
-2.0715647e-02
-5.5078387e-03
1.1334002e-02
2.4107969e-02
2.5479094e-02
2.1836936e-02
1.8325011e-02
9.8925726e-03
1.3621607e-03
-6.6281495e-03
-1.4336486e-02
-1.5696809e-02
-1.0415498e-02
-2.4969444e-03
2.2408431e-03
3.8684946e-03
3.7184435e-03
2.1220358e-03
1.4304735e-03
-2.8099280e-03
-1.0062856e-02
-1.3458356e-02
-1.3285497e-02
-1.2247427e-02
-1.1149625e-02
-7.5490231e-03
-7.2627694e-03
-1.6340399e-02
-2.8440629e-02
-4.1120738e-02
-4.8827188e-02
-4.4131452e-02
-2.6592501e-02
-8.4182784e-04
2.0263905e-02
3.5906513e-02
5.1444740e-02
5.9800832e-02
5.3158342e-02
3.4786416e-02
1.9006545e-02
1.0100904e-02
5.8634870e-03
8.9476348e-03
1.7263059e-02
2.8794739e-02
4.0226762e-02
4.8909993e-02
5.3716952e-02
4.6668260e-02
2.9204278e-02
9.2594401e-03
-1.1809066e-02
-3.2113792e-02
-4.7243156e-02
-5.1289951e-02
-4.9833317e-02
-5.0665643e-02
-5.3592603e-02
-6.1653427e-02
-6.9974665e-02
-7.4644347e-02
-7.8759349e-02
-8.0415156e-02
-7.6541783e-02
-6.3127746e-02
-4.6256680e-02
-3.1159755e-02
-1.8218794e-02
-1.2697812e-02
-7.2541113e-03
3.1437991e-03
1.5196159e-02
2.9676455e-02
4.8237541e-02
7.2359029e-02
9.5809252e-02
1.1710823e-01
1.3372291e-01
1.3545960e-01
1.3178844e-01
1.3301424e-01
1.3621308e-01
1.3645451e-01
1.2694626e-01
1.0471561e-01
6.3475964e-02
8.5729288e-03
-3.6172079e-02
-5.9503942e-02
-6.7827426e-02
-7.4511431e-02
-8.4398521e-02
-9.4910816e-02
-1.0366719e-01
-1.0583810e-01
-1.1011134e-01
-1.2059850e-01
-1.3617359e-01
-1.6066150e-01
-1.7666233e-01
-1.7759157e-01
-1.7784981e-01
-1.8500257e-01
-1.9604785e-01
-1.9875223e-01
-1.8969244e-01
-1.6644446e-01
-1.3288385e-01
-9.7128294e-02
-6.0731905e-02
-3.6104367e-02
-1.7124521e-02
1.2723846e-02
5.8593728e-02
1.2532744e-01
2.0235598e-01
2.8247530e-01
3.4932148e-01
3.7748513e-01
3.6543413e-01
3.0227112e-01
1.9904552e-01
9.7730408e-02
1.8729256e-02
-3.1068323e-02
-5.5836605e-02
-6.1955708e-02
-7.2939739e-02
-1.0720043e-01
-1.3893198e-01
-1.5381231e-01
-1.4948475e-01
-1.2050511e-01
-7.4991700e-02
-2.7334641e-02
2.2571152e-03
7.3966392e-03
1.5229034e-03
1.0386210e-03
-1.1207275e-03
-2.5765994e-02
-5.1027184e-02
-4.5651927e-02
-6.9078492e-03
5.4896154e-02
1.2011541e-01
1.8489723e-01
2.3857049e-01
2.7379622e-01
3.0091550e-01
2.9540946e-01
2.4706947e-01
1.7052156e-01
7.6238426e-02
-1.4207513e-02
-9.1205275e-02
-1.4457987e-01
-1.7264968e-01
-1.8301168e-01
-1.7876031e-01
-1.8740476e-01
-2.1679635e-01
-2.3598513e-01
-2.2672919e-01
-1.9163831e-01
-1.3973812e-01
-7.3444737e-02
-4.5957266e-03
5.0434229e-02
8.0474962e-02
6.7517312e-02
2.8476760e-02
6.3044952e-03
2.2390528e-02
7.1833253e-02
1.4062715e-01
2.2339033e-01
2.9826085e-01
3.3691750e-01
3.3810178e-01
3.0822342e-01
2.5432348e-01
1.9407204e-01
1.4231064e-01
9.2850947e-02
3.2304695e-02
-2.9911717e-02
-7.2059926e-02
-7.9158447e-02
-6.8974081e-02
-8.9504842e-02
-1.4891223e-01
-2.1282859e-01
-2.5377176e-01
-2.6479163e-01
-2.5004635e-01
-2.1232237e-01
-1.5960031e-01
-9.4233268e-02
-2.9956046e-02
-6.9586628e-03
-2.5638463e-02
-5.1958569e-02
-6.8339259e-02
-8.0977736e-02
-1.0044727e-01
-1.1400367e-01
-1.2148596e-01
-1.2615922e-01
-1.1699792e-01
-9.9181236e-02
-7.1592497e-02
-2.2269978e-02
4.9996893e-02
1.2842322e-01
1.9626733e-01
2.4909358e-01
2.6486024e-01
2.4393260e-01
2.1930369e-01
1.8742264e-01
1.4138951e-01
1.0131567e-01
7.8152472e-02
6.8420693e-02
7.2515508e-02
8.9072099e-02
9.5611190e-02
7.6534124e-02
3.4985444e-02
-2.2273336e-02
-7.7557812e-02
-1.1537540e-01
-1.3403193e-01
-1.3923942e-01
-1.3363559e-01
-1.1565201e-01
-9.2173367e-02
-6.9901974e-02
-5.3492994e-02
-4.5227146e-02
-3.4048419e-02
-1.0438414e-02
2.2369340e-02
4.6041231e-02
4.9583777e-02
4.4381583e-02
3.5386825e-02
2.5176633e-02
1.3433703e-02
-5.7654225e-03
-2.4558111e-02
-3.3937998e-02
-3.1989845e-02
-3.6323058e-02
-6.0240555e-02
-8.3628824e-02
-9.6069835e-02
-9.5645255e-02
-8.6160020e-02
-8.2339483e-02
-8.4782571e-02
-8.9884867e-02
-9.2983133e-02
-1.0664243e-01
-1.4050072e-01
-1.7168002e-01
-1.8762130e-01
-1.8399281e-01
-1.5002087e-01
-8.0053811e-02
1.8401713e-02
1.2334844e-01
2.1398462e-01
2.7530396e-01
3.0228146e-01
3.0484200e-01
3.0164223e-01
3.1249891e-01
3.2148858e-01
2.9013038e-01
2.1752633e-01
1.2722579e-01
3.9676756e-02
-3.6896016e-02
-1.0001305e-01
-1.4367898e-01
-1.6493379e-01
-1.6703670e-01
-1.6135397e-01
-1.5139377e-01
-1.3086589e-01
-1.0114148e-01
-6.8196112e-02
-4.0033378e-02
-1.9652552e-02
-4.5256825e-03
1.0728490e-02
3.5529415e-02
5.6800895e-02
5.5798559e-02
3.7776787e-02
1.7535511e-02
5.8182012e-03
2.0984562e-03
8.4281124e-03
2.1764351e-02
3.1302908e-02
4.5123015e-02
5.8625097e-02
5.3587476e-02
3.4599227e-02
1.2926601e-02
-6.0173720e-03
-2.4846973e-02
-4.2756961e-02
-5.2929120e-02
-5.2265466e-02
-4.2049965e-02
-3.4833345e-02
-3.6829988e-02
-4.4346169e-02
-5.5147180e-02
-6.5578020e-02
-7.7422584e-02
-8.7758969e-02
-9.1400732e-02
-9.0443731e-02
-8.2846927e-02
-7.1864705e-02
-6.1358410e-02
-4.8180585e-02
-2.9951045e-02
-1.7731566e-03
3.3886569e-02
6.6854179e-02
8.9961391e-02
9.9433980e-02
9.8881111e-02
9.2112136e-02
8.0131251e-02
6.3797251e-02
4.1486034e-02
1.3943160e-02
-1.3923301e-02
-3.1839507e-02
-3.7415298e-02
-3.4512370e-02
-2.2745336e-02
-8.6909995e-03
7.3254345e-03
2.9911279e-02
5.5956670e-02
8.2082475e-02
1.0151893e-01
1.1186853e-01
1.0526904e-01
7.9057259e-02
5.3114553e-02
3.2424675e-02
1.5139575e-02
3.7171775e-03
-9.7078193e-03
-3.0882510e-02
-5.4046004e-02
-6.6997854e-02
-6.9483785e-02
-6.5306285e-02
-5.3597403e-02
-4.0172450e-02
-2.2294586e-02
2.7265934e-03
2.3414455e-02
2.8951970e-02
1.9856397e-02
1.0388490e-02
4.1190149e-03
-1.5291553e-03
-1.4897293e-03
-3.8981934e-04
-2.1251936e-03
-7.4992936e-03
-1.9254809e-02
-3.3216293e-02
-4.2787885e-02
-4.3685150e-02
-4.0958149e-02
-4.1141659e-02
-4.4683542e-02
-5.1897309e-02
-5.7218827e-02
-5.7331511e-02
-5.8136188e-02
-6.3900184e-02
-6.8773129e-02
-6.5648946e-02
-5.9878706e-02
-5.2428518e-02
-4.0575358e-02
-2.9495580e-02
-1.5010881e-02
7.1787826e-03
2.9654629e-02
4.5596599e-02
6.0271543e-02
8.3898233e-02
1.0931681e-01
1.3279056e-01
1.4897810e-01
1.4189366e-01
1.2631219e-01
1.1828249e-01
1.0963569e-01
8.3177783e-02
3.6162409e-02
-7.5009906e-03
-3.8941502e-02
-5.7995231e-02
-6.4052771e-02
-6.7942268e-02
-6.8309743e-02
-6.0857167e-02
-5.2975287e-02
-5.2946863e-02
-5.7847831e-02
-5.9405894e-02
-6.1379312e-02
-6.2855842e-02
-5.8704549e-02
-5.2451350e-02
-4.1931437e-02
-2.5917709e-02
-1.1103495e-02
-1.5042485e-03
8.1623002e-03
2.4298883e-02
4.1163671e-02
5.1247063e-02
5.2032428e-02
4.5823044e-02
3.8833132e-02
3.1023063e-02
1.8995010e-02
-2.3140285e-03
-2.6605247e-02
-3.9487269e-02
-4.5476168e-02
-5.0034281e-02
-5.1939106e-02
-5.3192457e-02
-4.9499133e-02
-3.7180859e-02
-2.0961115e-02
-1.0560593e-02
-3.6273087e-03
9.4444602e-03
2.2338312e-02
3.5116957e-02
4.6200311e-02
4.3131932e-02
3.5682994e-02
3.6881275e-02
4.2151647e-02
4.1449641e-02
3.9224390e-02
4.7444011e-02
6.0878166e-02
7.5179804e-02
8.6848686e-02
8.7739275e-02
8.3499652e-02
8.0412373e-02
7.4204056e-02
5.6199688e-02
3.0020099e-02
7.6980694e-03
-1.2663506e-02
-3.2092878e-02
-5.0954025e-02
-7.3530860e-02
-9.7309065e-02
-1.1973537e-01
-1.3767476e-01
-1.4612329e-01
-1.3931338e-01
-1.1717040e-01
-9.0136736e-02
-6.5479856e-02
-5.1032846e-02
-5.0634914e-02
-5.2919500e-02
-5.1785234e-02
-5.0862529e-02
-5.3260013e-02
-5.5137148e-02
-5.1288357e-02
-4.3612910e-02
-3.2159156e-02
-1.9481482e-02
-6.7547707e-03
1.2216584e-02
3.8764379e-02
6.9701478e-02
1.0022426e-01
1.3291768e-01
1.6821959e-01
1.9703068e-01
2.1729784e-01
2.1647201e-01
1.8797890e-01
1.5437154e-01
1.2979553e-01
1.1216233e-01
9.3043668e-02
6.9966443e-02
4.7783641e-02
2.5132701e-02
2.7164823e-03
-2.8360286e-02
-7.1015020e-02
-1.0580921e-01
-1.2434251e-01
-1.3125548e-01
-1.2849057e-01
-1.1363321e-01
-9.0853789e-02
-6.5974634e-02
-3.7790382e-02
-1.4875847e-02
-1.0015039e-03
1.2273281e-02
2.5257393e-02
3.0040223e-02
1.5301514e-02
-1.2845648e-02
-3.0861732e-02
-3.0786063e-02
-2.3407376e-02
-2.4174069e-02
-3.4687650e-02
-4.3298120e-02
-4.7874557e-02
-5.5783602e-02
-7.1246409e-02
-8.8026769e-02
-1.0124102e-01
-1.0965621e-01
-1.0926264e-01
-1.0705185e-01
-1.0595779e-01
-9.8822847e-02
-8.7786784e-02
-7.6841284e-02
-6.5806263e-02
-4.8198161e-02
-1.6459971e-02
3.0845982e-02
8.7661109e-02
1.1876425e-01
1.0278471e-01
7.1000077e-02
4.7310319e-02
3.1798337e-02
2.0640615e-02
1.8721929e-02
2.4230075e-02
2.7099574e-02
3.2294160e-02
3.3640385e-02
3.1205944e-02
3.4430771e-02
3.9843319e-02
4.7561253e-02
5.9565687e-02
8.1806389e-02
1.1336651e-01
1.4916426e-01
1.8652404e-01
2.1013685e-01
2.1073357e-01
1.8583225e-01
1.3969930e-01
8.2143892e-02
1.9142827e-02
-3.0133654e-02
-5.4868663e-02
-6.3317358e-02
-6.2784734e-02
-6.9222279e-02
-8.8693362e-02
-1.0409957e-01
-1.0385842e-01
-8.8752635e-02
-6.3132055e-02
-2.5387469e-02
1.3703048e-02
4.2378776e-02
6.1630344e-02
5.3453788e-02
1.9413390e-02
-1.3192941e-02
-3.4233493e-02
-4.3589797e-02
-4.1408602e-02
-2.6053003e-02
-4.9013425e-03
1.7658474e-02
4.4248769e-02
5.6928322e-02
4.7403358e-02
3.3245495e-02
2.2751072e-02
1.3691144e-02
4.3760374e-03
-4.5576870e-03
-1.6845342e-02
-3.4409789e-02
-5.2254504e-02
-6.8161957e-02
-7.7187381e-02
-8.0305755e-02
-8.2259243e-02
-8.1274675e-02
-7.6605393e-02
-6.8042297e-02
-5.9887846e-02
-5.2627212e-02
-4.1805611e-02
-2.5390353e-02
-1.3552599e-03
2.1921588e-02
4.3109559e-02
6.7070961e-02
8.8129744e-02
9.8509116e-02
7.9819437e-02
3.0742580e-02
-1.9500073e-02
-5.1789082e-02
-6.2041294e-02
-5.7110008e-02
-4.6320004e-02
-3.0010226e-02
-6.4329305e-03
2.4468050e-02
5.2161538e-02
7.1496030e-02
8.1827560e-02
8.0501570e-02
7.8160777e-02
7.4344232e-02
6.3427517e-02
4.9271298e-02
3.8854569e-02
4.0490092e-02
3.8280742e-02
2.0916478e-02
-1.0298807e-03
-2.2062110e-02
-3.4254338e-02
-4.3379040e-02
-5.9845815e-02
-7.8924469e-02
-9.2262105e-02
-9.3283827e-02
-8.9696792e-02
-8.6503860e-02
-8.6312245e-02
-9.1592201e-02
-8.7585801e-02
-7.5047652e-02
-6.4498268e-02
-5.2482261e-02
-3.3526739e-02
-5.6398465e-03
2.3477773e-02
4.9692484e-02
6.7931441e-02
7.6029618e-02
8.9186087e-02
1.0938275e-01
1.2833842e-01
1.4077867e-01
1.3999527e-01
1.2721063e-01
1.0866422e-01
9.1338689e-02
8.0518151e-02
7.5166395e-02
