-3.6407064e-01
2.3363941e-01
6.7115800e-01
7.9234449e-01
5.5184712e-01
9.1249461e-02
-3.7206330e-01
-7.0896594e-01
-8.9863028e-01
-9.7389432e-01
-9.9002306e-01
-1.0042457e+00
-1.0413354e+00
-1.0705658e+00
-1.0370784e+00
-9.0866952e-01
-6.8702507e-01
-3.8800523e-01
-2.1279997e-02
3.8419857e-01
7.2752629e-01
8.5924834e-01
7.0597948e-01
3.6803899e-01
4.2075037e-02
-1.4049769e-01
-1.5945122e-01
-5.7163184e-02
1.1424520e-01
3.3128578e-01
6.0546268e-01
9.5176263e-01
1.3383011e+00
1.6335978e+00
1.6464652e+00
1.2976153e+00
7.2754640e-01
1.8331004e-01
-1.7672893e-01
-3.3106929e-01
-3.3657582e-01
-2.9214957e-01
-2.8514030e-01
-3.2089901e-01
-3.2880149e-01
-2.4139285e-01
-7.3529943e-02
5.3632811e-02
5.7870001e-03
-2.2588495e-01
-5.2885600e-01
-7.7633824e-01
-8.9791022e-01
-8.8336591e-01
-7.5070872e-01
-5.2551107e-01
-2.2975455e-01
1.2138191e-01
5.0507089e-01
8.4984491e-01
1.0245334e+00
9.2137080e-01
5.6857016e-01
1.2260738e-01
-2.7088746e-01
-5.6643599e-01
-7.8757333e-01
-9.6022467e-01
-1.0688079e+00
-1.0680253e+00
-9.2979541e-01
-6.5795030e-01
-2.7129032e-01
2.0434976e-01
7.1549648e-01
1.1481274e+00
1.3448968e+00
1.2193701e+00
8.5060134e-01
4.2630684e-01
1.0043775e-01
-7.3343409e-02
-9.6652474e-02
3.7609014e-03
1.6526887e-01
2.8575150e-01
2.6425292e-01
8.7920613e-02
-1.4738518e-01
-3.1702187e-01
-3.4738701e-01
-2.4721662e-01
-1.1451156e-01
-8.2826231e-02
-1.9106508e-01
-3.4696657e-01
-4.3901009e-01
-4.2024776e-01
-3.1515167e-01
-2.1389298e-01
-2.2540623e-01
-3.7757011e-01
-5.8801804e-01
-7.3975255e-01
-7.6109807e-01
-6.3921326e-01
-3.8612264e-01
-2.4654769e-02
3.9643752e-01
7.5463907e-01
8.7003668e-01
6.6627031e-01
2.8153504e-01
-4.2924168e-02
-1.5265088e-01
-2.8292330e-02
2.7263619e-01
6.0140797e-01
7.2601269e-01
5.4574650e-01
2.2599554e-01
2.9872072e-03
-3.2904030e-02
8.6252898e-02
3.0829831e-01
5.8924836e-01
8.8993710e-01
1.1961168e+00
1.5189461e+00
1.8192926e+00
1.9535286e+00
1.7508564e+00
1.1628070e+00
3.5872717e-01
-3.8167444e-01
-8.9071208e-01
-1.1651737e+00
-1.2859306e+00
-1.3385813e+00
-1.3694218e+00
-1.3900972e+00
-1.3943287e+00
-1.3629255e+00
-1.2663627e+00
-1.0817538e+00
-8.1009338e-01
-4.8633437e-01
-1.8898691e-01
-1.7271323e-02
-1.8614257e-02
-1.4535621e-01
-2.9340866e-01
-3.8201206e-01
-3.8773692e-01
-3.1392444e-01
-1.6501237e-01
5.4222601e-02
3.2048520e-01
5.6430598e-01
6.8805876e-01
6.5686266e-01
5.3626920e-01
4.1149525e-01
3.2069170e-01
2.7343113e-01
2.8960444e-01
3.8390896e-01
5.1500949e-01
5.6998285e-01
4.4437990e-01
1.5754660e-01
-1.6395656e-01
-4.1188180e-01
-5.5590877e-01
-6.2082155e-01
-6.5638070e-01
-6.8888837e-01
-6.9110815e-01
-6.2597940e-01
-4.8702785e-01
-2.8828040e-01
-3.9704712e-02
2.6474595e-01
6.2396874e-01
9.9162665e-01
1.2487831e+00
1.2460786e+00
9.3683707e-01
4.5123316e-01
1.6738589e-03
-2.7095488e-01
-3.4413560e-01
-2.6718541e-01
-1.3730548e-01
-6.6559714e-02
-8.9823000e-02
-1.3562913e-01
-1.1390503e-01
-1.0482164e-02
9.2017780e-02
6.9956748e-02
-1.2202141e-01
-3.9211462e-01
-6.0139990e-01
-6.7517412e-01
-6.1254138e-01
-4.3841097e-01
-1.8062543e-01
1.3276091e-01
4.4076875e-01
6.1393180e-01
5.1717175e-01
1.4806345e-01
-3.2031650e-01
-6.8212724e-01
-8.3994408e-01
-8.0255016e-01
-6.2548220e-01
-3.5839906e-01
-1.6582425e-02
4.0649143e-01
9.1265119e-01
1.4689905e+00
1.9379316e+00
2.0711613e+00
1.7072229e+00
9.7463301e-01
1.8896942e-01
-4.2433828e-01
-8.1002790e-01
-9.9510514e-01
-1.0335038e+00
-9.8032307e-01
-8.7580833e-01
-7.4847337e-01
-6.2631040e-01
-5.2744037e-01
-4.4207336e-01
-3.5171125e-01
-2.6243356e-01
-1.8600761e-01
-8.9002368e-02
9.6225175e-02
4.1267006e-01
8.6284749e-01
1.4147976e+00
1.9501415e+00
2.2302975e+00
2.0605763e+00
1.5130470e+00
8.4922598e-01
2.7029605e-01
-1.5918094e-01
-4.5047764e-01
-6.3661525e-01
-7.5706302e-01
-8.6254712e-01
-9.8394128e-01
-1.0928028e+00
-1.1409224e+00
-1.1232182e+00
-1.0766154e+00
-1.0290507e+00
-9.6834076e-01
-8.6242197e-01
-6.9909049e-01
-5.0993737e-01
-3.6674398e-01
-3.3215039e-01
-3.8205186e-01
-4.2300650e-01
-3.9128824e-01
-2.9295137e-01
-1.8837257e-01
-1.5128392e-01
-2.0142753e-01
-2.8424213e-01
-3.2416739e-01
-2.8339357e-01
-1.6665955e-01
8.8008700e-03
2.3631303e-01
5.2383185e-01
8.6688886e-01
1.2143257e+00
1.4473118e+00
1.4297789e+00
1.1419285e+00
7.2951541e-01
3.8761466e-01
2.2425124e-01
2.3039687e-01
3.0420880e-01
3.0056686e-01
1.6226549e-01
-8.9687667e-03
-7.7359193e-02
2.4202301e-03
1.8511188e-01
3.5512571e-01
3.4946500e-01
7.3069353e-02
-3.8220093e-01
-8.1637193e-01
-1.0978023e+00
-1.2031198e+00
-1.1585262e+00
-1.0070042e+00
-7.9104708e-01
-5.4754968e-01
-3.2248550e-01
-1.6490863e-01
-7.9074414e-02
7.7067440e-03
1.8855046e-01
4.7573530e-01
7.4291941e-01
8.0628133e-01
6.3115618e-01
3.8949552e-01
2.7740902e-01
3.6837615e-01
6.1738689e-01
8.7055650e-01
9.2319634e-01
7.0203068e-01
3.4158426e-01
4.3079144e-02
-8.2769667e-02
-3.0789223e-02
1.6527197e-01
4.6516809e-01
7.9654723e-01
1.0152592e+00
9.6534760e-01
6.2590023e-01
1.5087025e-01
-2.5892156e-01
-4.9472530e-01
-5.5649659e-01
-4.8780019e-01
-3.3509712e-01
-1.7321304e-01
-1.2719559e-01
-2.5651860e-01
-4.6186095e-01
-6.1598235e-01
-6.7504464e-01
-6.4840536e-01
-5.6158850e-01
-4.5286991e-01
-3.7012401e-01
-3.5754521e-01
-4.3112306e-01
-5.5545173e-01
-6.6508517e-01
-7.1148869e-01
-6.8039711e-01
-5.7729425e-01
-4.3205604e-01
-3.1224141e-01
-3.0493304e-01
-4.4834169e-01
-6.7345825e-01
-8.5870774e-01
-9.2397299e-01
-8.5313582e-01
-6.9713255e-01
-5.4401646e-01
-4.1152642e-01
-2.2272366e-01
9.7342066e-02
5.6891729e-01
1.1696020e+00
1.8260846e+00
2.3507257e+00
2.4668524e+00
2.0568136e+00
1.3384085e+00
6.6842493e-01
2.5347612e-01
1.2456071e-01
2.4158036e-01
5.3393503e-01
8.5943582e-01
9.9144980e-01
7.8739599e-01
3.4989589e-01
-7.9235139e-02
-3.3328459e-01
-3.7656977e-01
-2.5876825e-01
-9.8324140e-02
-7.0181819e-02
-2.5411259e-01
-5.1723220e-01
-6.8776493e-01
-7.1596302e-01
-6.4907664e-01
-5.6898384e-01
-5.4131365e-01
-5.7898349e-01
-6.3608520e-01
-6.4727723e-01
-5.7786416e-01
-4.2894024e-01
-2.1254451e-01
5.0182327e-02
3.1813443e-01
5.0458451e-01
4.8954824e-01
2.1429546e-01
-2.4096695e-01
-6.9565707e-01
-1.0003377e+00
-1.1116880e+00
-1.0648487e+00
-9.0818119e-01
-6.5145896e-01
-2.7541523e-01
2.2250874e-01
8.1749178e-01
1.4634229e+00
2.0457159e+00
2.3373297e+00
2.1390471e+00
1.5175462e+00
7.6367689e-01
1.1304260e-01
-3.6063795e-01
-6.5834713e-01
-8.0108373e-01
-8.2861639e-01
-7.9147729e-01
-7.3107863e-01
-6.7441093e-01
-6.3518236e-01
-6.0896327e-01
-5.8919956e-01
-5.7884314e-01
-5.6726651e-01
-5.0934473e-01
-3.4857940e-01
-5.9872525e-02
3.4113880e-01
8.1118804e-01
1.2735210e+00
1.6030372e+00
1.6733469e+00
1.4510149e+00
1.0161158e+00
4.8862589e-01
-3.7198820e-02
-4.8915254e-01
-8.0972081e-01
-9.8077121e-01
-1.0272383e+00
-9.9058117e-01
-9.0694917e-01
-8.1083675e-01
-7.3537164e-01
-6.7246942e-01
-5.5713464e-01
-3.3039847e-01
1.8453965e-02
4.6355175e-01
9.2463934e-01
1.2126085e+00
1.1238140e+00
6.7880684e-01
1.1970257e-01
-3.3067822e-01
-5.9440934e-01
-7.0027727e-01
-7.1865736e-01
-7.2582065e-01
-7.7517334e-01
-8.6004763e-01
-9.2133607e-01
-8.9857424e-01
-7.5942793e-01
-4.9803500e-01
-1.2097645e-01
3.5354850e-01
8.8631981e-01
1.3739272e+00
1.6335170e+00
1.5149654e+00
1.0490803e+00
4.6283470e-01
2.9838730e-03
-2.1754491e-01
-2.0265116e-01
-4.6390708e-03
3.1863123e-01
7.0370893e-01
1.0650901e+00
1.3156335e+00
1.3948259e+00
1.2673107e+00
9.2836162e-01
4.4333018e-01
-5.5844001e-02
-4.5020775e-01
-6.9295829e-01
-8.0017466e-01
-8.1560019e-01
-7.8342142e-01
-7.3052088e-01
-6.7361566e-01
-6.5330566e-01
-7.4671422e-01
-9.3196386e-01
-1.0577055e+00
-1.0688200e+00
-1.0388276e+00
-1.0167074e+00
-9.6444078e-01
-8.0177683e-01
-4.8637341e-01
-3.2736120e-02
5.1507048e-01
1.0952433e+00
1.5942184e+00
1.8116651e+00
1.5884637e+00
1.0206553e+00
3.9130264e-01
-9.8527029e-02
-4.0312176e-01
-5.4381526e-01
-5.6169552e-01
-5.0364606e-01
-4.0705913e-01
-2.9851360e-01
-2.1527425e-01
-1.9995512e-01
-2.4005970e-01
-2.5684961e-01
-1.7700707e-01
2.9896023e-02
3.5722228e-01
7.3973570e-01
1.0274062e+00
1.0861344e+00
9.4901626e-01
7.3898138e-01
4.9489499e-01
1.7227553e-01
-2.4092519e-01
-6.6991330e-01
-1.0144416e+00
-1.2193907e+00
-1.2817510e+00
-1.2227817e+00
-1.0662853e+00
-8.2813165e-01
-5.2158886e-01
-1.8158181e-01
1.1093807e-01
2.6140199e-01
2.5162686e-01
1.6900504e-01
1.3522713e-01
2.2522340e-01
4.5469702e-01
8.0921091e-01
1.2382633e+00
1.5895457e+00
1.6156123e+00
1.2007184e+00
5.2946746e-01
-1.0429273e-01
-5.4465294e-01
-7.9031528e-01
-9.1232580e-01
-9.7253703e-01
-9.7451817e-01
-8.9106589e-01
-7.0670572e-01
-4.2395613e-01
-5.8267828e-02
3.6149547e-01
7.8652793e-01
1.1479264e+00
1.3559476e+00
1.3146684e+00
9.8556160e-01
4.4423920e-01
-1.4362799e-01
-6.1812103e-01
-9.0141571e-01
-9.9679001e-01
-9.6684661e-01
-8.9877952e-01
-8.2549544e-01
-6.9948572e-01
-4.7015443e-01
-1.5435554e-01
1.5196763e-01
2.9744096e-01
1.9006079e-01
-7.6398661e-02
-2.9975409e-01
-3.5618294e-01
-2.3697378e-01
2.7161251e-02
3.9849365e-01
8.0930147e-01
1.1042533e+00
1.0801655e+00
6.7359917e-01
5.8814228e-02
-4.8800652e-01
-7.9188617e-01
-8.3128790e-01
-6.8340893e-01
-4.6841878e-01
-2.6693860e-01
-6.0231117e-02
2.2108051e-01
6.1485431e-01
1.0905767e+00
1.5065182e+00
1.6089399e+00
1.2351947e+00
5.3241158e-01
-1.7663832e-01
-6.8733307e-01
-9.6500919e-01
-1.0452416e+00
-9.8636575e-01
-8.4868640e-01
-6.7529570e-01
-4.9090147e-01
-3.0602228e-01
-1.0799540e-01
1.2537160e-01
3.7068711e-01
5.4520484e-01
6.2196762e-01
6.3517110e-01
5.4652371e-01
3.4113220e-01
1.2939802e-01
3.7073364e-02
1.1452635e-01
3.2382411e-01
5.5990244e-01
7.0980416e-01
7.1878246e-01
5.9109165e-01
3.4142647e-01
-6.8020567e-04
-3.5171450e-01
-6.1304782e-01
-7.3804618e-01
-7.3917476e-01
-6.6505062e-01
-5.8115671e-01
-5.3403399e-01
-5.2418139e-01
-5.3166856e-01
-5.4665739e-01
-5.6138721e-01
-5.5047301e-01
-4.7967399e-01
-3.3561591e-01
-1.3227539e-01
1.1663218e-01
4.1012189e-01
7.1595527e-01
9.3781474e-01
9.7431230e-01
8.0737009e-01
5.1622509e-01
2.1137708e-01
-3.0729169e-02
-1.8078616e-01
-2.4454671e-01
-2.4153084e-01
-1.8393176e-01
-7.7234639e-02
5.4499997e-02
1.5122044e-01
1.4188053e-01
-7.6045926e-03
-2.6144421e-01
-5.2974518e-01
-7.3185526e-01
-8.3879333e-01
-8.6485268e-01
-8.3102397e-01
-7.3160303e-01
-5.4199402e-01
-2.5062966e-01
1.3288980e-01
5.8805998e-01
1.0653472e+00
1.4379936e+00
1.5289050e+00
1.2703359e+00
7.9268271e-01
3.0410344e-01
-6.3816653e-02
-2.7871292e-01
-3.5216291e-01
-3.1403154e-01
-2.0994470e-01
-1.1084046e-01
-1.1570091e-01
-2.8794476e-01
-5.7234192e-01
-8.2481205e-01
-9.3347315e-01
-8.7622549e-01
-6.9067129e-01
-4.1904095e-01
-7.3961081e-02
3.4894564e-01
8.4071654e-01
1.3595101e+00
1.8100794e+00
2.0457692e+00
1.9442436e+00
1.5116332e+00
8.8661248e-01
2.3243826e-01
-3.4884848e-01
-8.1216102e-01
-1.1413991e+00
-1.3486776e+00
-1.4687112e+00
-1.5359839e+00
-1.5698387e+00
-1.5745119e+00
-1.5388567e+00
-1.4402977e+00
-1.2695184e+00
-1.0520634e+00
-8.1946603e-01
-5.5660328e-01
-2.1317024e-01
2.4203397e-01
8.0580388e-01
1.4530149e+00
2.0974239e+00
2.5264177e+00
2.5057819e+00
2.0157467e+00
1.2826692e+00
5.7313640e-01
2.6566184e-02
-3.3840482e-01
-5.4145015e-01
-6.0332877e-01
-5.4696588e-01
-3.9898667e-01
-1.9430609e-01
1.0062222e-02
1.4535762e-01
1.7225850e-01
1.0296184e-01
-1.5382097e-03
-5.7282678e-02
-8.8655011e-03
1.2800484e-01
2.6141538e-01
2.5359327e-01
1.4257960e-02
-3.8761892e-01
-7.7565143e-01
-1.0197836e+00
-1.0828864e+00
-9.9286674e-01
-8.1615442e-01
-6.1956261e-01
-4.3260278e-01
-2.4439322e-01
-3.2507246e-02
2.1949429e-01
5.2483204e-01
8.7650351e-01
1.1957008e+00
1.3185858e+00
1.1031616e+00
5.7245756e-01
-7.6379448e-02
-6.2641262e-01
-9.7398105e-01
-1.1150271e+00
-1.0967216e+00
-9.8930785e-01
-8.4271007e-01
-6.5743184e-01
-3.9975153e-01
-3.8229891e-02
4.3194031e-01
9.7341752e-01
1.4700954e+00
1.7422187e+00
1.6751082e+00
1.3014605e+00
7.6316801e-01
2.2279369e-01
-2.0703765e-01
-4.6912416e-01
-5.5062697e-01
-4.8177883e-01
-3.4719956e-01
-2.8813812e-01
-4.2306871e-01
-7.2251030e-01
-1.0183361e+00
-1.1586037e+00
-1.0962701e+00
-8.5775330e-01
-4.9000913e-01
-3.1165059e-02
4.8870611e-01
1.0381449e+00
1.5864509e+00
2.0750989e+00
2.3769583e+00
2.3427126e+00
1.9300573e+00
1.2624607e+00
5.3375700e-01
-1.2087140e-01
-6.5097316e-01
-1.0459468e+00
-1.3126978e+00
-1.4716643e+00
-1.5503762e+00
-1.5855094e+00
-1.6206786e+00
-1.6753917e+00
-1.7144042e+00
-1.6694649e+00
-1.4927905e+00
-1.1812588e+00
-7.6471891e-01
-2.7785419e-01
2.6110657e-01
8.4648083e-01
1.4731944e+00
2.0983149e+00
2.5759934e+00
2.6913851e+00
2.3452048e+00
1.6724531e+00
9.2964333e-01
3.0028402e-01
-1.6431275e-01
-4.7959393e-01
-6.7504387e-01
-7.7856112e-01
-8.0970237e-01
-7.8429564e-01
-7.2956415e-01
-6.8401695e-01
-6.8212570e-01
-7.4194338e-01
-8.4514205e-01
-9.3442486e-01
-9.5083022e-01
-8.7032534e-01
-7.0865088e-01
-5.0570741e-01
-2.9144353e-01
-5.3063706e-02
2.4752664e-01
6.3067272e-01
1.0732824e+00
1.4769825e+00
1.6743609e+00
1.5593830e+00
1.1943618e+00
7.1881434e-01
2.2592115e-01
-2.3555441e-01
-6.1664361e-01
-8.6499867e-01
-9.5707692e-01
-9.1965261e-01
-8.2257660e-01
-7.4874025e-01
-7.4796523e-01
-7.9518492e-01
-8.0063189e-01
-6.8261103e-01
-4.1707664e-01
-2.2031992e-02
4.7005682e-01
1.0122717e+00
1.5280676e+00
1.8996382e+00
1.9826601e+00
1.6925212e+00
1.1022405e+00
4.1124032e-01
-1.8663767e-01
-5.8440459e-01
-7.6462531e-01
-7.7046830e-01
-6.7545585e-01
-5.6760723e-01
-5.2555058e-01
-5.6683526e-01
-6.2023207e-01
-5.8652981e-01
-4.1826695e-01
-1.2964964e-01
2.1473303e-01
4.9248540e-01
5.6494376e-01
3.9660157e-01
1.0507627e-01
-1.5342149e-01
-3.0032099e-01
-3.3164295e-01
-2.6811019e-01
-1.3022270e-01
6.7490196e-02
3.1928792e-01
5.9877779e-01
8.0640703e-01
7.9931477e-01
5.3828472e-01
1.5714422e-01
-1.7157408e-01
-3.6996518e-01
-4.4673007e-01
-4.4379144e-01
-4.1988498e-01
-4.5057726e-01
-5.8608716e-01
-7.9069948e-01
-9.5843187e-01
-9.9880462e-01
-8.8334393e-01
-6.2948072e-01
-2.6716533e-01
1.8073759e-01
7.0179745e-01
1.2870840e+00
1.8811563e+00
2.3072517e+00
2.3375999e+00
1.9211399e+00
1.2461562e+00
5.5742404e-01
-1.0238335e-02
-4.3701137e-01
-7.3839046e-01
-9.2689871e-01
-1.0185168e+00
-1.0431917e+00
-1.0519935e+00
-1.1033254e+00
-1.2143519e+00
-1.3397820e+00
-1.4228274e+00
-1.4395558e+00
-1.3865359e+00
-1.2541672e+00
-1.0218998e+00
-6.7600002e-01
-2.2693366e-01
2.9238929e-01
8.2801952e-01
1.2977775e+00
1.6273673e+00
1.8094036e+00
1.8724563e+00
1.8048105e+00
1.5631760e+00
1.1518791e+00
6.6226520e-01
2.1894993e-01
-9.3244703e-02
-2.4420943e-01
-2.3712784e-01
-1.1884692e-01
-2.5988055e-03
-1.1060290e-02
-1.6475052e-01
-3.6038776e-01
-4.7029729e-01
-4.3239165e-01
-2.5228191e-01
5.4063716e-03
2.1793501e-01
2.7260085e-01
1.5171914e-01
-7.3550301e-02
-3.1109651e-01
-4.9588767e-01
-6.1729110e-01
-7.0756576e-01
-7.9290294e-01
-8.6170991e-01
-8.8011373e-01
-8.2257929e-01
-6.8436597e-01
-4.7454442e-01
-2.0236805e-01
1.1527685e-01
4.4320689e-01
7.1204454e-01
8.2375992e-01
7.1940763e-01
4.5128629e-01
1.6320536e-01
-2.7811066e-02
-1.0012951e-01
-9.3436386e-02
-4.6423765e-02
3.6282015e-02
1.7452691e-01
3.9138439e-01
6.7567453e-01
9.3183904e-01
1.0005046e+00
8.6662643e-01
7.0008875e-01
5.8684913e-01
4.7695338e-01
2.9861782e-01
1.9609094e-02
-3.1298079e-01
-6.2109020e-01
-8.6157713e-01
-1.0307861e+00
-1.1407302e+00
-1.2107630e+00
-1.2623465e+00
-1.3012293e+00
-1.3054522e+00
-1.2403635e+00
-1.0781442e+00
-8.0428104e-01
-4.1903358e-01
6.2629235e-02
6.1994180e-01
1.2332990e+00
1.8275189e+00
2.2044256e+00
2.1503134e+00
1.6667668e+00
9.9055138e-01
3.7342153e-01
-6.9558577e-02
-3.3255023e-01
-4.4131540e-01
-4.2243728e-01
-3.0187238e-01
-1.1895530e-01
5.1014713e-02
1.1525893e-01
4.5882240e-02
-7.9347109e-02
-1.5767802e-01
-1.4200687e-01
-3.8605621e-02
1.1400269e-01
2.4878924e-01
2.9265091e-01
2.2401027e-01
9.6385959e-02
-1.6783858e-02
-7.5779964e-02
-7.0518730e-02
-9.8495603e-03
6.5886217e-02
8.9973209e-02
2.7178813e-02
-9.0716029e-02
-2.2078594e-01
-3.6163765e-01
-5.2269705e-01
-6.8154351e-01
-8.0283349e-01
-8.7408549e-01
-9.0774276e-01
-9.2565823e-01
-9.4763631e-01
-9.7936082e-01
-9.9907200e-01
-9.6942187e-01
-8.6776744e-01
-7.0204261e-01
-4.8980010e-01
-2.2379085e-01
1.2418561e-01
5.7409709e-01
1.1262271e+00
1.7580565e+00
2.3836281e+00
2.8051085e+00
2.7974704e+00
2.3053488e+00
1.5055870e+00
6.6138853e-01
-4.7762108e-02
-5.5397338e-01
-8.4294188e-01
-9.3604859e-01
-9.0008910e-01
-8.4154478e-01
-8.5552552e-01
-9.5333950e-01
-1.0552385e+00
-1.0586818e+00
-9.0703778e-01
-6.0407784e-01
-1.9215350e-01
2.8116525e-01
7.8357410e-01
1.2655332e+00
1.5999266e+00
1.6235142e+00
1.3009712e+00
7.8712337e-01
2.8497761e-01
-9.7091848e-02
-3.4837159e-01
-5.0301527e-01
-5.9703903e-01
-6.4754802e-01
-6.6176072e-01
-6.4663891e-01
-6.0772374e-01
-5.5743861e-01
-5.3446953e-01
-5.9513355e-01
-7.5733466e-01
-9.5722733e-01
-1.0896444e+00
-1.0897786e+00
-9.6717763e-01
-7.7580794e-01
-5.4823326e-01
-2.6130339e-01
1.2770856e-01
6.3682098e-01
1.2398351e+00
1.8277139e+00
2.2177213e+00
2.2844821e+00
2.0643837e+00
1.7131578e+00
1.3122823e+00
8.1245072e-01
2.3583979e-01
-2.9403316e-01
-6.8958903e-01
-9.2963487e-01
-1.0304777e+00
-1.0414533e+00
-1.0348038e+00
-1.0470396e+00
-1.0394892e+00
-9.4386045e-01
-7.2505113e-01
-3.8906797e-01
3.2168952e-02
4.4985983e-01
6.9756352e-01
6.4715284e-01
3.4788760e-01
-2.0032061e-02
-3.1393178e-01
-4.9759608e-01
-5.9876165e-01
-6.6330573e-01
-7.1916783e-01
-7.5543190e-01
-7.4074082e-01
-6.5208470e-01
-4.8404971e-01
-2.4201502e-01
6.4549066e-02
4.0942533e-01
7.3523546e-01
9.4695085e-01
9.5573386e-01
7.7778738e-01
5.4470056e-01
3.9600298e-01
3.9839760e-01
5.3689601e-01
7.1403116e-01
7.5209362e-01
5.3625101e-01
1.7294786e-01
-1.3909547e-01
-3.0736730e-01
-3.5996973e-01
-3.7569959e-01
-4.2073355e-01
-5.0955270e-01
-5.9921647e-01
-6.2702625e-01
-5.5842518e-01
-3.9425799e-01
-1.4937481e-01
1.4524617e-01
4.1786962e-01
5.4084130e-01
3.9983811e-01
1.7921019e-02
-4.3931608e-01
-7.8659628e-01
-9.2508323e-01
-8.5141476e-01
-6.1247730e-01
-2.5888989e-01
1.7738323e-01
6.5454595e-01
1.0962596e+00
1.4264612e+00
1.6049918e+00
1.5988788e+00
1.3528933e+00
8.6148804e-01
2.4493762e-01
-3.1816390e-01
-7.1618474e-01
-9.3433449e-01
-1.0078903e+00
-9.8379822e-01
-8.9976292e-01
-7.7947586e-01
-6.4250708e-01
-5.0934805e-01
-3.8389434e-01
-2.5189148e-01
-1.2344799e-01
-4.9444503e-02
-6.4242456e-02
-1.2013866e-01
-1.1575130e-01
2.4166594e-02
3.1781106e-01
7.4208578e-01
1.2538629e+00
1.7677207e+00
2.1060125e+00
2.0757502e+00
1.6610744e+00
1.0560475e+00
4.7554846e-01
1.1243696e-02
-3.3175503e-01
-5.6764316e-01
-7.1521387e-01
-7.9336348e-01
-8.1638967e-01
-7.9800282e-01
-7.5221869e-01
-6.8968556e-01
-6.1686163e-01
-5.2931966e-01
-4.0711365e-01
-2.3198901e-01
-2.0588980e-02
1.4184668e-01
1.4324716e-01
-1.9311299e-02
-2.2040178e-01
-3.3979741e-01
-3.4659786e-01
-2.9090302e-01
-2.5637031e-01
-2.8748188e-01
-3.5630591e-01
-4.0920856e-01
-4.2448261e-01
-4.2267602e-01
-4.2870105e-01
-4.4587069e-01
-4.7294431e-01
-5.1371556e-01
-5.6219654e-01
-5.9107390e-01
-5.6759349e-01
-4.7803177e-01
-3.2324701e-01
-1.0577064e-01
1.6229371e-01
4.3685590e-01
6.3271523e-01
6.6950680e-01
5.4087786e-01
3.2620696e-01
1.3497356e-01
4.2803527e-02
7.1739758e-02
2.0300290e-01
3.9893100e-01
6.0382931e-01
7.2826275e-01
6.9084247e-01
5.1060474e-01
3.2024495e-01
2.5362766e-01
3.4964606e-01
5.4712221e-01
6.9269751e-01
6.0533093e-01
2.3583269e-01
-2.7046186e-01
-7.0607572e-01
-9.5027233e-01
-9.8805114e-01
-8.5582971e-01
-6.0331390e-01
-2.9369529e-01
-7.0296417e-03
2.1885530e-01
4.2781470e-01
6.5219552e-01
8.1431934e-01
7.6948850e-01
4.6421059e-01
1.4985058e-02
-3.9940583e-01
-6.7500834e-01
-7.9791584e-01
-7.8585172e-01
-6.6215995e-01
-4.5154038e-01
-1.7907883e-01
1.1702068e-01
3.6661407e-01
4.9570511e-01
4.8127290e-01
3.3700921e-01
9.3174724e-02
-1.7883791e-01
-3.7221579e-01
-3.9762403e-01
-2.2493741e-01
1.1467670e-01
5.4509772e-01
9.6411486e-01
1.2670783e+00
1.3954603e+00
1.3688628e+00
1.2351014e+00
1.0062565e+00
6.6601963e-01
2.2836686e-01
-2.3481646e-01
-6.3743583e-01
-9.2741261e-01
-1.0932868e+00
-1.1549462e+00
-1.1597654e+00
-1.1594670e+00
-1.1679462e+00
-1.1557791e+00
-1.0824275e+00
-9.2018977e-01
-6.5851602e-01
-2.9718039e-01
1.5301911e-01
6.6399012e-01
1.1784231e+00
1.5727774e+00
1.6769952e+00
1.4168522e+00
9.1462235e-01
3.7515884e-01
-7.6661483e-02
-4.0777836e-01
-6.2414664e-01
-7.4139875e-01
-7.7433791e-01
-7.3655367e-01
-6.3353090e-01
-4.6169541e-01
-2.3206452e-01
7.7981921e-03
1.6917823e-01
1.6346969e-01
-1.4595009e-02
-2.6724860e-01
-4.7128620e-01
-5.5694314e-01
-5.2942458e-01
-4.3773040e-01
-3.0735104e-01
-1.1336851e-01
1.7999400e-01
5.8516918e-01
1.0826421e+00
1.5910732e+00
1.9291623e+00
1.8934905e+00
1.4762715e+00
9.0514890e-01
4.1214992e-01
8.8470841e-02
-7.3802463e-02
-1.1701423e-01
-1.0532986e-01
-1.8396051e-01
-5.0178336e-01
-9.9057125e-01
-1.4370094e+00
-1.7131551e+00
-1.8086866e+00
-1.7642026e+00
-1.6293171e+00
-1.4352922e+00
-1.1777060e+00
-8.3338839e-01
-3.9187113e-01
1.3205915e-01
6.9663616e-01
1.2101918e+00
1.5256940e+00
1.5256128e+00
1.2365237e+00
8.1146264e-01
4.0695299e-01
1.0566251e-01
-7.1889346e-02
-1.2260483e-01
-5.0962837e-02
1.2278463e-01
3.3836940e-01
4.6730905e-01
3.7154344e-01
3.9195717e-02
-3.7988159e-01
-7.1050634e-01
-8.7036975e-01
-8.5799555e-01
-7.0304582e-01
-4.3563410e-01
-7.6003180e-02
3.6429180e-01
8.7128612e-01
1.3638354e+00
1.6412960e+00
1.5227647e+00
1.0588863e+00
4.7732296e-01
-3.6084103e-02
-4.1429013e-01
-6.5973624e-01
-7.9063254e-01
-8.2225083e-01
-7.6854071e-01
-6.4604246e-01
-4.7810178e-01
-3.0024735e-01
-1.5525227e-01
-8.9114053e-02
-1.4435528e-01
-3.1481539e-01
-5.1544376e-01
-6.3567507e-01
-6.1290095e-01
-4.5395547e-01
-2.2853916e-01
-3.1592256e-02
9.4310239e-02
1.9182931e-01
3.3333045e-01
5.5504225e-01
8.1879470e-01
1.0076009e+00
9.9980415e-01
7.7035799e-01
4.0240536e-01
2.0503361e-02
-2.7437873e-01
-4.3043032e-01
-4.3265026e-01
-2.9492082e-01
-6.5972475e-02
1.5569927e-01
2.4269100e-01
1.3495664e-01
-9.2199520e-02
-2.8645576e-01
-3.3901476e-01
-2.3979571e-01
-6.1689873e-02
8.9201202e-02
1.4847405e-01
1.3207532e-01
1.1127276e-01
1.5733488e-01
2.9315374e-01
4.6819823e-01
5.8347618e-01
5.6393130e-01
3.9466518e-01
1.1131268e-01
-2.1397063e-01
-4.9459401e-01
-6.6315030e-01
-6.9814156e-01
-6.2055164e-01
-4.7411140e-01
-3.0848831e-01
-1.5327269e-01
6.8957657e-03
2.0553959e-01
4.2806763e-01
5.7446855e-01
5.2274261e-01
2.6396134e-01
-7.6621094e-02
-3.5383587e-01
-4.8530999e-01
-4.5679004e-01
-2.9832893e-01
-6.1968256e-02
2.0172331e-01
4.5124665e-01
6.2140974e-01
6.2049048e-01
4.0993086e-01
8.5201174e-02
-1.8302259e-01
-2.9079489e-01
-2.3795973e-01
-8.2458890e-02
7.5052790e-02
9.6677023e-02
-1.0618314e-01
-4.8495977e-01
-8.8296138e-01
-1.1365096e+00
-1.1668573e+00
-9.8821516e-01
-6.5409623e-01
-2.1575024e-01
2.9687905e-01
8.7166087e-01
1.4781679e+00
1.9973713e+00
2.2168170e+00
1.9950278e+00
1.4275294e+00
7.7083250e-01
2.1945085e-01
-1.6938538e-01
-4.0005748e-01
-4.9522275e-01
-4.9186275e-01
-4.3999539e-01
-4.0821071e-01
-4.7288129e-01
-6.6581282e-01
-9.1946677e-01
-1.1077137e+00
-1.1500168e+00
-1.0478251e+00
-8.4684251e-01
-5.8907205e-01
-3.0342288e-01
-2.9843122e-02
1.8059190e-01
2.9468892e-01
3.1752511e-01
2.8569602e-01
2.3916172e-01
1.9165462e-01
1.3361051e-01
6.4239954e-02
5.6792949e-03
-1.8780789e-02
-2.6674512e-03
5.4364476e-02
1.6039069e-01
3.1802298e-01
4.7614854e-01
5.2251983e-01
3.7158423e-01
5.3589343e-02
-3.0073079e-01
-5.6200093e-01
-6.7057921e-01
-6.2221247e-01
-4.5156048e-01
-2.2804419e-01
-2.9865394e-02
9.5392770e-02
1.6547953e-01
2.5121219e-01
4.1652178e-01
6.6426171e-01
9.1094850e-01
1.0016678e+00
8.2653283e-01
4.4893069e-01
4.9930778e-02
-2.3863097e-01
-3.8789482e-01
-4.1227726e-01
-3.3523345e-01
-1.8922172e-01
-3.3575311e-02
3.1169216e-02
-7.8007524e-02
-3.2948653e-01
-5.8261090e-01
-7.1440274e-01
-6.9617952e-01
-5.6511444e-01
-3.7180116e-01
-1.3928139e-01
1.3293277e-01
4.3092386e-01
7.1140835e-01
9.1543333e-01
9.9507486e-01
9.5146597e-01
8.3286930e-01
6.6291641e-01
4.1051133e-01
5.5945055e-02
-3.4694593e-01
-6.9885945e-01
-9.3157571e-01
-1.0377201e+00
-1.0503862e+00
-1.0148666e+00
-9.7242698e-01
-9.4466466e-01
-9.2360177e-01
-8.8883383e-01
-8.2403012e-01
-7.1056704e-01
-5.1815837e-01
-2.1386872e-01
2.1423860e-01
7.4629814e-01
1.3457212e+00
1.9503253e+00
2.4066821e+00
2.4792067e+00
2.0417748e+00
1.2431251e+00
3.9494070e-01
-2.7702420e-01
-7.0801238e-01
-9.1575396e-01
-9.5000648e-01
-8.6998847e-01
-7.1967172e-01
-5.2583880e-01
-3.0671245e-01
-6.4778913e-02
1.9504212e-01
4.0652591e-01
4.4310383e-01
2.8094133e-01
5.6142871e-02
-1.0911647e-01
-1.5594051e-01
-5.0914689e-02
1.9705504e-01
5.0662235e-01
6.9779459e-01
6.0700818e-01
2.6858912e-01
-1.2979279e-01
-4.4480453e-01
-6.5027520e-01
-7.8224186e-01
-8.6370625e-01
-8.8685183e-01
-8.4817457e-01
-7.6188596e-01
-6.5032184e-01
-5.4685461e-01
-4.8775734e-01
-4.7223068e-01
-4.4751974e-01
-3.4974589e-01
-1.3951764e-01
1.9088855e-01
6.1987150e-01
1.0781870e+00
1.3941944e+00
1.3599710e+00
9.8054760e-01
5.1057211e-01
1.7568503e-01
3.0450009e-02
1.8465173e-02
3.0363472e-02
-4.6902462e-02
-2.5074971e-01
-5.0332689e-01
-6.8612027e-01
-7.3216174e-01
-6.3453550e-01
-4.0947912e-01
-8.6597356e-02
2.7840263e-01
5.6949463e-01
6.2948326e-01
3.9654752e-01
-3.8863435e-03
-3.4965234e-01
-4.9000046e-01
-4.0265157e-01
-1.5257760e-01
1.4356813e-01
3.6757903e-01
4.8043034e-01
5.4529442e-01
6.5459885e-01
8.4316722e-01
1.0489744e+00
1.1453130e+00
1.0433487e+00
7.6410984e-01
4.1118756e-01
8.7160097e-02
-1.5633348e-01
-3.0092301e-01
-3.4859880e-01
-3.2744183e-01
-2.8892926e-01
-2.9364027e-01
-3.8425299e-01
-5.5465105e-01
-7.4693783e-01
-8.9089836e-01
-9.4234736e-01
-8.8757157e-01
-7.2922544e-01
-4.8207794e-01
-1.9387905e-01
6.1710557e-02
2.3916398e-01
3.3054303e-01
3.3066932e-01
2.3774289e-01
8.2759759e-02
-8.6803654e-02
-2.4435669e-01
-3.8396742e-01
-4.9779037e-01
-5.6324335e-01
-5.5551612e-01
-4.6289059e-01
-2.8684357e-01
-3.8010577e-02
2.4593933e-01
4.8210074e-01
5.6858032e-01
4.6593287e-01
2.5909575e-01
9.2408712e-02
5.8072811e-02
1.6976385e-01
3.5332117e-01
4.5992428e-01
3.9545482e-01
2.1431900e-01
4.5998252e-02
-2.3275878e-02
1.4344556e-02
1.1276931e-01
1.8183207e-01
1.1293611e-01
-1.3028923e-01
-4.6264815e-01
-7.5193534e-01
-9.1887350e-01
-9.5578751e-01
-8.8687994e-01
-7.4711617e-01
-5.6798556e-01
-3.6301651e-01
-1.4442967e-01
7.4020214e-02
3.0558844e-01
5.8338705e-01
9.0628496e-01
1.2122486e+00
1.3810126e+00
1.2735208e+00
8.7190768e-01
3.5269606e-01
-6.3781374e-02
-2.6858108e-01
-2.6023828e-01
-1.0416707e-01
9.3453757e-02
2.2758274e-01
2.3823416e-01
1.2734096e-01
-5.5767621e-02
-2.2344491e-01
-2.8250636e-01
-1.9384961e-01
6.9671809e-03
2.0755046e-01
2.5043039e-01
4.2369676e-02
-3.5338477e-01
-7.5339757e-01
-9.8986996e-01
-1.0024750e+00
-8.2762217e-01
-5.4754616e-01
-2.3984254e-01
5.9651053e-02
3.6739160e-01
7.2666433e-01
1.1494289e+00
1.5430885e+00
1.7002446e+00
1.4593201e+00
8.9762348e-01
2.7488831e-01
-2.0906895e-01
-5.1028225e-01
-6.5809826e-01
-6.9371665e-01
-6.5573816e-01
-5.8690050e-01
-5.5372345e-01
-6.2763359e-01
-8.1748790e-01
-1.0397436e+00
-1.1855551e+00
-1.1985407e+00
-1.0837327e+00
-8.6199078e-01
-5.2803820e-01
-6.3259363e-02
5.3479109e-01
1.2219716e+00
1.8272233e+00
2.0722682e+00
1.8202058e+00
1.2378646e+00
6.0696815e-01
8.7499640e-02
-2.9069822e-01
-5.4531757e-01
-6.8940927e-01
-7.1901103e-01
-6.2934570e-01
-4.2710924e-01
-1.3778147e-01
1.7123886e-01
3.8376958e-01
4.0136013e-01
2.3667829e-01
1.9923310e-02
-1.0298648e-01
-6.0833307e-02
1.3687130e-01
3.8762315e-01
5.1887752e-01
4.3937487e-01
2.2070986e-01
-9.9385317e-04
-1.4034589e-01
-1.8580052e-01
-1.7111438e-01
-1.5986046e-01
-2.2314293e-01
-3.7917961e-01
-5.6786418e-01
-7.0403253e-01
-7.3751578e-01
-6.6596990e-01
-5.1595424e-01
-3.2690796e-01
-1.3717696e-01
9.8194381e-03
5.0875282e-02
-5.6969265e-02
-2.6900326e-01
-4.6495608e-01
-5.4918243e-01
-5.2392570e-01
-4.6941293e-01
-4.4464043e-01
-4.1896896e-01
-3.1516186e-01
-8.0195939e-02
2.8974679e-01
7.5640665e-01
1.2478531e+00
1.6903383e+00
2.0346670e+00
2.2034157e+00
2.0722710e+00
1.5751513e+00
8.3245469e-01
1.0129382e-01
-4.3193405e-01
-7.2911020e-01
-8.4272827e-01
-8.6575003e-01
-8.9156058e-01
-9.5750967e-01
-1.0194934e+00
-1.0092284e+00
-8.9137897e-01
-6.6216578e-01
-3.4344872e-01
-1.4102204e-02
1.8299960e-01
2.2729352e-01
2.7614952e-01
3.9302945e-01
4.8250936e-01
4.3274067e-01
2.2143178e-01
-5.3351174e-02
-2.7022506e-01
-3.7224008e-01
-3.5945632e-01
-2.4397129e-01
-3.8273960e-02
2.2559847e-01
4.5997922e-01
5.2858444e-01
3.5295321e-01
8.9316786e-03
-3.1951513e-01
-4.8381189e-01
-4.4403328e-01
-2.3395691e-01
6.4845652e-02
3.1565297e-01
3.9999415e-01
3.4322421e-01
2.8354349e-01
3.0797445e-01
3.7706406e-01
3.8135620e-01
2.4450471e-01
-2.0741828e-02
-3.3558957e-01
-6.2262844e-01
-8.4194688e-01
-9.7193653e-01
-9.9655470e-01
-9.0640291e-01
-6.9715655e-01
-3.6986799e-01
3.9669013e-02
4.1354044e-01
5.7831536e-01
4.5322868e-01
1.5951043e-01
-9.1429501e-02
-1.6993930e-01
-5.7118537e-02
1.4865373e-01
2.6709709e-01
2.3100799e-01
1.6750272e-01
2.3457465e-01
4.9001954e-01
9.0345234e-01
1.3930888e+00
1.8132501e+00
1.9557329e+00
1.6851320e+00
1.0912886e+00
4.1988001e-01
-1.3850928e-01
-5.2256264e-01
-7.3450591e-01
-8.0108440e-01
-7.6669777e-01
-7.0022515e-01
-6.9562150e-01
-8.1804782e-01
-1.0400496e+00
-1.2530104e+00
-1.3528296e+00
-1.3068259e+00
-1.1541634e+00
-9.5815853e-01
-7.4093445e-01
-4.7361066e-01
-1.2933177e-01
2.8592632e-01
7.1902559e-01
1.0388923e+00
1.0809256e+00
8.0804778e-01
3.7060692e-01
-3.5850052e-02
-3.0678180e-01
-4.2753250e-01
-4.1422828e-01
-2.9151389e-01
-8.9297621e-02
1.3666352e-01
2.8281658e-01
2.5912070e-01
9.2974720e-02
-6.9185018e-02
-8.9625780e-02
6.6974146e-02
3.3336515e-01
5.5031519e-01
5.6251936e-01
3.8799407e-01
1.9502815e-01
1.1989256e-01
1.7793693e-01
2.6970064e-01
2.5659895e-01
9.8217011e-02
-1.1112925e-01
-2.4212204e-01
-2.2600510e-01
-6.5408992e-02
2.0835894e-01
5.6094498e-01
9.5642426e-01
1.3331475e+00
1.5763234e+00
1.5534780e+00
1.2124596e+00
6.5569621e-01
7.6865455e-02
-3.8091363e-01
-6.7469994e-01
-8.2139506e-01
-8.5906698e-01
-8.3041319e-01
-7.7335533e-01
-7.1101961e-01
-6.5848923e-01
-6.4550336e-01
-6.8971527e-01
-7.6045746e-01
-8.1240588e-01
-8.2540753e-01
-8.1049041e-01
-7.8802122e-01
-7.6336465e-01
-7.4021197e-01
-7.2845012e-01
-7.2368738e-01
-7.0326730e-01
-6.4487792e-01
-5.4053479e-01
-3.9676082e-01
-2.2620619e-01
-3.1926480e-02
2.0002939e-01
4.6763030e-01
7.0333214e-01
7.9162885e-01
6.9324707e-01
5.1844038e-01
4.1982586e-01
4.7264189e-01
6.7087501e-01
9.7070252e-01
1.2986952e+00
1.5265702e+00
1.5071368e+00
1.1924462e+00
6.9075255e-01
1.8326350e-01
-1.9336666e-01
-3.8741718e-01
-4.0861436e-01
-3.0206421e-01
-1.2849167e-01
3.7441080e-02
1.0699431e-01
2.6475292e-02
-1.6214316e-01
-3.3729186e-01
-3.9481174e-01
-3.2822594e-01
-2.2231166e-01
-1.6680475e-01
-1.7368006e-01
-1.9019896e-01
-1.6078600e-01
-6.4968704e-02
6.8793367e-02
1.7509418e-01
2.0879533e-01
1.8590825e-01
1.3024278e-01
2.7277134e-02
-1.3333900e-01
-3.0934932e-01
-4.2905561e-01
-4.5078613e-01
-3.8604788e-01
-2.9858959e-01
-2.8689475e-01
-4.1308005e-01
-6.3057801e-01
-8.2459589e-01
-9.1347248e-01
-8.7968788e-01
-7.4051127e-01
-5.0932024e-01
-1.8083965e-01
2.4760148e-01
7.5462365e-01
1.2764130e+00
1.6855369e+00
1.8299504e+00
1.6500912e+00
1.2437707e+00
7.7295377e-01
3.4743415e-01
1.1177625e-02
-2.2325362e-01
-3.4707430e-01
-3.5669163e-01
-2.6496305e-01
-1.1770208e-01
-1.3855306e-02
-6.3128887e-02
-2.7621898e-01
-5.4268698e-01
-7.5050936e-01
-8.6697668e-01
-9.0725977e-01
-8.8442788e-01
-7.9982658e-01
-6.5621426e-01
-4.6314498e-01
-2.4145203e-01
-3.5999944e-02
9.7125417e-02
1.4810471e-01
1.7601520e-01
2.4924763e-01
3.8812384e-01
5.7547309e-01
7.9611850e-01
1.0406394e+00
1.2687656e+00
1.3958095e+00
1.3371294e+00
1.0607781e+00
6.1921856e-01
1.4006384e-01
-2.4625406e-01
-4.7330161e-01
-5.5485908e-01
-5.5582142e-01
-5.3292531e-01
-5.0404478e-01
-4.6422143e-01
-4.0077305e-01
-2.8939700e-01
-1.0692574e-01
1.4434392e-01
4.2818808e-01
6.7637348e-01
7.9362179e-01
6.8912182e-01
3.7063194e-01
-3.7385858e-02
-4.1218003e-01
-6.9340048e-01
-8.6977888e-01
-9.6590186e-01
-1.0257871e+00
-1.0973019e+00
-1.2007949e+00
-1.3054338e+00
-1.3549363e+00
-1.3205356e+00
-1.2216665e+00
-1.0915173e+00
-9.2777236e-01
-7.0055761e-01
-3.9834477e-01
-3.9116687e-02
3.4521201e-01
7.2047535e-01
1.0765490e+00
1.4340791e+00
1.7745239e+00
1.9808671e+00
1.9041146e+00
1.5182676e+00
9.7386762e-01
4.7288469e-01
1.3019137e-01
-3.6750913e-02
-4.6424528e-02
7.4457490e-02
2.8663086e-01
5.0317726e-01
5.7670486e-01
3.9658955e-01
1.0657648e-02
-3.9973655e-01
-6.8205108e-01
-8.0477713e-01
-8.2173475e-01
-8.0297712e-01
-7.7585132e-01
-7.2041728e-01
-6.1108591e-01
-4.4281981e-01
-2.3738390e-01
-3.8881247e-02
1.1941700e-01
2.3635208e-01
3.0220854e-01
2.7603553e-01
1.3872739e-01
-5.1920382e-02
-1.9064581e-01
-2.0629847e-01
-8.8574120e-02
1.2978066e-01
3.7279677e-01
5.2636724e-01
5.1592413e-01
3.7250596e-01
1.7608045e-01
-1.0227322e-02
-1.3800014e-01
-1.6724904e-01
-7.7284673e-02
1.2731027e-01
4.1720411e-01
7.1887012e-01
8.9653883e-01
8.2179286e-01
5.0948743e-01
1.2154881e-01
-1.9236417e-01
-3.9154418e-01
-5.0046421e-01
-5.3740352e-01
-4.9900988e-01
-3.8235683e-01
-1.9767426e-01
1.4245906e-02
1.6224779e-01
1.4654607e-01
-3.9554066e-02
-2.8567303e-01
-4.7006846e-01
-5.4729760e-01
-5.3436944e-01
-4.6344324e-01
-3.6350943e-01
-2.6768121e-01
-2.0481710e-01
-1.7878592e-01
-1.7618740e-01
-1.8255638e-01
-1.7574348e-01
-1.2478580e-01
-1.2748488e-02
1.5191238e-01
3.5372618e-01
5.7008601e-01
7.4037295e-01
7.7924972e-01
6.6609547e-01
4.9752509e-01
4.0480397e-01
4.4906429e-01
6.1082476e-01
8.1802579e-01
9.6043727e-01
9.2358382e-01
6.6386079e-01
2.7074046e-01
-8.9512422e-02
-3.0775420e-01
-3.7048184e-01
-3.2641692e-01
-2.6734095e-01
-2.7787827e-01
-3.5573638e-01
-4.1977413e-01
-4.1453943e-01
-3.5145853e-01
-2.7021716e-01
-2.0801681e-01
-1.9308780e-01
-2.4326759e-01
-3.8193672e-01
-6.1381079e-01
-8.6621532e-01
-1.0435967e+00
-1.1130922e+00
-1.1079570e+00
-1.0852463e+00
-1.0730427e+00
-1.0472497e+00
-9.5526512e-01
-7.5589160e-01
-4.4160840e-01
-4.1098367e-02
3.7258050e-01
7.0001743e-01
8.9807279e-01
1.0249446e+00
1.1757880e+00
1.3821743e+00
1.5531330e+00
1.5150523e+00
1.1746307e+00
6.3540579e-01
1.0654022e-01
-2.7239100e-01
-4.7645851e-01
-5.2807938e-01
-4.5600778e-01
-2.8733400e-01
-6.8144116e-02
9.9745402e-02
8.5794747e-02
-1.6093149e-01
-5.3199637e-01
-8.3890082e-01
-9.6173927e-01
-8.8850583e-01
-6.6654096e-01
-3.4366815e-01
6.6711217e-02
5.7721155e-01
1.1895373e+00
1.8210414e+00
2.2394163e+00
2.1844005e+00
1.6411140e+00
8.8097548e-01
2.0082562e-01
-2.6677166e-01
-5.2336371e-01
-6.1951953e-01
-6.1095810e-01
-5.3549264e-01
-4.1491551e-01
-2.8674797e-01
-2.2414195e-01
-2.8752914e-01
-4.4357748e-01
-5.8007449e-01
-6.1263247e-01
-5.3898171e-01
-4.0577771e-01
-2.6657627e-01
-1.7485595e-01
-1.6625010e-01
-2.2039741e-01
-2.7316785e-01
-2.6474730e-01
-1.7019188e-01
-7.8118521e-03
1.6361822e-01
2.6376474e-01
2.3998763e-01
1.1132041e-01
-5.5798724e-02
-2.0504365e-01
-3.0715038e-01
-3.4318118e-01
-2.9788082e-01
-1.9115456e-01
-9.7912797e-02
-9.7869075e-02
-2.0033957e-01
-3.2772915e-01
-3.7977620e-01
-3.0073298e-01
-8.1772670e-02
2.4247865e-01
5.6495581e-01
7.1901693e-01
6.1626300e-01
3.6563678e-01
1.5935680e-01
9.8631468e-02
1.6862514e-01
2.7537053e-01
2.8898813e-01
1.4045964e-01
-1.0256789e-01
-2.9949647e-01
-3.5910298e-01
-2.6605147e-01
-3.6086513e-02
3.0478465e-01
7.0148314e-01
1.0043210e+00
9.9203036e-01
5.6915747e-01
-1.0336203e-01
-7.3351623e-01
-1.1219528e+00
-1.2301246e+00
-1.1245603e+00
-9.0663121e-01
-6.3417385e-01
-2.9829194e-01
1.3015817e-01
6.5716378e-01
1.2322736e+00
1.6976751e+00
1.8348806e+00
1.5781631e+00
1.1188951e+00
7.2445786e-01
5.3391317e-01
5.5336667e-01
7.3722401e-01
1.0164365e+00
1.2132633e+00
1.0740865e+00
5.5571709e-01
-1.2986373e-01
-7.6507261e-01
-1.2523843e+00
-1.5765627e+00
-1.7608523e+00
-1.8408089e+00
-1.8325729e+00
-1.7335072e+00
-1.5555661e+00
-1.3298164e+00
-1.0819781e+00
-8.4315628e-01
-6.5920621e-01
-5.5635877e-01
-5.1286211e-01
-4.8974904e-01
-4.6505285e-01
-4.2646757e-01
-3.5665807e-01
-2.3415940e-01
-4.4554332e-02
2.1936155e-01
5.5598142e-01
9.4088383e-01
1.2959464e+00
1.4830814e+00
1.3916345e+00
1.0563469e+00
6.4432526e-01
3.2334996e-01
1.8183510e-01
2.2193300e-01
3.2491608e-01
3.1519433e-01
1.7461399e-01
5.4698409e-02
8.1595060e-02
2.7819095e-01
6.0670019e-01
1.0028832e+00
1.3749605e+00
1.5671521e+00
1.4154901e+00
9.3579465e-01
3.3486533e-01
-1.9986293e-01
-6.0000430e-01
-8.6084761e-01
-1.0015230e+00
-1.0545979e+00
-1.0605489e+00
-1.0645717e+00
-1.1014219e+00
-1.1672669e+00
-1.2074086e+00
-1.1586546e+00
-1.0079988e+00
-8.0568638e-01
-6.3576726e-01
-5.4038425e-01
-4.7106579e-01
-3.5327649e-01
-1.5719184e-01
8.8673658e-02
3.1009536e-01
4.1871118e-01
3.7883794e-01
2.5935869e-01
1.7642091e-01
2.0044197e-01
3.4476197e-01
6.0246515e-01
9.5400549e-01
1.3444076e+00
1.6247276e+00
1.5783934e+00
1.1119449e+00
3.8516675e-01
-3.0814773e-01
-7.6838168e-01
-9.5676798e-01
-9.2247978e-01
-7.4201677e-01
-4.8480098e-01
-1.9602829e-01
1.1351757e-01
4.6408671e-01
8.5503917e-01
1.1952852e+00
1.3079135e+00
1.0771613e+00
5.9466192e-01
7.8191715e-02
-3.2679527e-01
-5.9313374e-01
-7.3526820e-01
-7.7316582e-01
-7.3350294e-01
-6.5413259e-01
-5.8764373e-01
-5.8274868e-01
-6.3959619e-01
-6.9493661e-01
-6.8044611e-01
-5.8502141e-01
-4.6553551e-01
-3.9761527e-01
-3.8639028e-01
-3.5468363e-01
-2.2705476e-01
1.9255402e-02
3.6008047e-01
7.1088593e-01
9.5125641e-01
1.0234537e+00
9.5301566e-01
7.8120986e-01
5.3495134e-01
2.6448933e-01
6.1649591e-02
-1.1092835e-03
8.8032339e-02
2.9236321e-01
5.2462966e-01
6.5616866e-01
5.5080461e-01
1.4494284e-01
-4.3798741e-01
-9.6473627e-01
-1.2894228e+00
-1.3915358e+00
-1.3259404e+00
-1.1919339e+00
-1.0596996e+00
-9.0115881e-01
-6.4337973e-01
-2.5123553e-01
2.7059060e-01
8.9392319e-01
1.5418245e+00
2.0487936e+00
2.2078811e+00
1.9378308e+00
1.3773132e+00
7.6900632e-01
2.8323820e-01
-2.3668658e-02
-1.4983737e-01
-1.2948427e-01
-5.5622523e-02
-7.1072734e-02
-2.7997896e-01
-6.4665870e-01
-1.0255411e+00
-1.2896450e+00
-1.3977370e+00
-1.3799314e+00
-1.2902628e+00
-1.1478985e+00
-9.3045142e-01
-6.1744389e-01
-2.1226340e-01
2.4591329e-01
6.4689099e-01
8.3530952e-01
7.3781418e-01
4.4156276e-01
1.0371541e-01
-1.6919159e-01
-3.3701118e-01
-3.9190922e-01
-3.3110122e-01
-1.5533436e-01
1.1968853e-01
4.2899478e-01
6.3348870e-01
5.9435292e-01
3.1093568e-01
-4.6379465e-02
-2.8443665e-01
-3.2024303e-01
-1.5505764e-01
1.7848182e-01
6.0123342e-01
9.5912385e-01
1.1179251e+00
1.1047811e+00
1.0257208e+00
8.9273333e-01
6.2880920e-01
2.0742758e-01
-2.6846650e-01
-6.5026875e-01
-8.6313743e-01
-9.1905008e-01
-8.5992990e-01
-7.2198546e-01
-5.3063359e-01
-3.1838201e-01
-1.4168148e-01
-6.0271540e-02
-8.4623817e-02
-1.4845082e-01
-1.6787926e-01
-1.1794628e-01
-3.1273192e-02
6.0291316e-02
1.5992748e-01
2.8417919e-01
4.3377726e-01
5.8283494e-01
6.8426902e-01
6.9839434e-01
6.3224027e-01
5.4214681e-01
4.8462014e-01
4.7422755e-01
4.8115380e-01
4.4392601e-01
2.9684447e-01
1.1039147e-02
-3.7263281e-01
-7.4957754e-01
-1.0189205e+00
-1.1468872e+00
-1.1676636e+00
-1.1457253e+00
-1.1252447e+00
-1.0976890e+00
-1.0212483e+00
-8.6010142e-01
-5.9847882e-01
-2.4349208e-01
1.6246763e-01
5.4695280e-01
8.6083227e-01
1.1100200e+00
1.3117239e+00
1.4458914e+00
1.4565966e+00
1.2887537e+00
9.4449125e-01
5.0794563e-01
9.0107686e-02
-2.2834194e-01
-4.0219562e-01
-4.2204047e-01
-3.2292166e-01
-1.7177041e-01
-2.2715553e-02
1.1360260e-01
2.4784399e-01
3.7883328e-01
4.6363674e-01
4.1282928e-01
1.7797672e-01
-1.7274649e-01
-5.1047408e-01
-7.3705802e-01
-8.1424910e-01
-7.5629968e-01
-6.0678732e-01
-4.2066835e-01
-2.6573533e-01
-1.9877961e-01
-2.1670348e-01
-2.5958351e-01
-2.8118171e-01
-2.9328060e-01
-3.3012122e-01
-3.8233930e-01
-3.9187345e-01
-3.0987431e-01
-1.3395909e-01
7.9720284e-02
2.1684579e-01
1.6520585e-01
-7.4039795e-02
-3.6319419e-01
-5.4845676e-01
-5.6375290e-01
-4.2518506e-01
-1.8502364e-01
1.0830962e-01
4.2890819e-01
7.7626768e-01
1.1658018e+00
1.5713079e+00
1.8545039e+00
1.8239024e+00
1.4252164e+00
8.0858957e-01
1.9071032e-01
-2.9686045e-01
-6.2519778e-01
-8.0270615e-01
-8.4782033e-01
-7.8909047e-01
-6.7791086e-01
-6.0708005e-01
-6.7430252e-01
-8.8834190e-01
-1.1353232e+00
-1.2777439e+00
-1.2530342e+00
-1.0706955e+00
-7.6548486e-01
-3.5751299e-01
1.5239586e-01
7.6124761e-01
1.4477539e+00
2.1118134e+00
2.5111095e+00
2.4023484e+00
1.8099451e+00
1.0226772e+00
3.2209726e-01
-1.7525991e-01
-4.7654143e-01
-6.2951805e-01
-6.8081315e-01
-6.6500433e-01
-6.0839804e-01
-5.4161199e-01
-4.9409913e-01
-4.6412344e-01
-4.1735840e-01
-3.3170017e-01
-2.1691259e-01
-8.7938832e-02
4.4158971e-02
1.4342271e-01
1.5203797e-01
5.5482432e-02
-7.8431588e-02
-1.5662234e-01
-1.3564847e-01
-3.0926832e-02
1.0804476e-01
2.1885324e-01
2.4915731e-01
1.9380268e-01
1.0267587e-01
2.8997813e-02
-6.7223697e-03
-3.3007832e-03
2.7972122e-02
4.7342985e-02
-2.7748364e-03
-1.3878233e-01
-3.0788067e-01
-4.4444326e-01
-5.3116663e-01
-5.8841655e-01
-6.2288955e-01
-6.1417551e-01
-5.5407457e-01
-4.6621079e-01
-3.7236603e-01
-2.6448969e-01
-1.1381609e-01
1.0711218e-01
4.0077473e-01
7.0906507e-01
8.9468852e-01
8.3400708e-01
5.5484621e-01
2.0452883e-01
-9.4748908e-02
-3.0176633e-01
-4.1521384e-01
-4.3123691e-01
-3.5214912e-01
-2.0723096e-01
-4.6694940e-02
7.5215082e-02
1.2597968e-01
1.2517272e-01
1.3325302e-01
1.9077486e-01
2.7739558e-01
3.4827622e-01
3.5880100e-01
2.7256651e-01
1.2950871e-01
3.5322666e-02
6.5402901e-02
2.1310925e-01
3.7250514e-01
3.9149376e-01
2.1014980e-01
-8.0417618e-02
-3.3200719e-01
-4.5830267e-01
-4.5165379e-01
-3.2577326e-01
-9.4096387e-02
2.1175241e-01
4.9423016e-01
5.7984772e-01
3.4282219e-01
-1.4899944e-01
-6.6854627e-01
-1.0200006e+00
-1.1404774e+00
-1.0532237e+00
-8.1289899e-01
-4.7870130e-01
-9.1164918e-02
3.3792499e-01
8.1973613e-01
1.3415289e+00
1.7869272e+00
1.9418639e+00
1.6703938e+00
1.0778756e+00
4.2224802e-01
-1.0531172e-01
-4.5117435e-01
-6.2918510e-01
-6.6819972e-01
-5.9744516e-01
-4.5063293e-01
-2.9322192e-01
-2.3534764e-01
-3.6398364e-01
-6.3270591e-01
-8.8141204e-01
-9.8318747e-01
-9.0727867e-01
-6.8377931e-01
-3.9141359e-01
-1.6264245e-01
-9.3179642e-02
-1.2464602e-01
-1.1497302e-01
2.8281862e-02
3.2768291e-01
7.5972927e-01
1.2694913e+00
1.7652029e+00
2.0793307e+00
2.0135487e+00
1.5280409e+00
8.2514948e-01
1.6415163e-01
-3.3153353e-01
-6.6073255e-01
-8.7606855e-01
-1.0387163e+00
-1.1791008e+00
-1.2995875e+00
-1.3845699e+00
-1.4009260e+00
-1.3158463e+00
-1.1183160e+00
-8.5091541e-01
-6.1084358e-01
-4.5336043e-01
-3.1671678e-01
-9.2034894e-02
2.6929476e-01
7.4462392e-01
1.2722797e+00
1.7470337e+00
1.9894718e+00
1.8401460e+00
1.3619958e+00
8.0332127e-01
3.5335291e-01
6.2505221e-02
-8.3002668e-02
-1.1947637e-01
-9.5070655e-02
-5.8026488e-02
-5.4099751e-02
-1.2659525e-01
-2.9041129e-01
-5.0301593e-01
-6.9158318e-01
-8.1205103e-01
-8.6436473e-01
-8.6912553e-01
-8.5005234e-01
-8.2552907e-01
-7.9426897e-01
-7.3177619e-01
-6.2984920e-01
-5.2802746e-01
-4.9258707e-01
-5.5618848e-01
-6.7501301e-01
-7.6318748e-01
-7.6128858e-01
-6.5254245e-01
-4.3943633e-01
-1.3737033e-01
2.2925134e-01
6.2790075e-01
9.9165690e-01
1.2083855e+00
1.2047031e+00
1.0408379e+00
8.5808689e-01
7.6330190e-01
7.8373274e-01
8.8630228e-01
1.0178239e+00
1.1329804e+00
1.2459446e+00
1.3980667e+00
1.5053025e+00
1.3769182e+00
9.2350532e-01
2.7561290e-01
-3.3701838e-01
-7.7834549e-01
-1.0344043e+00
-1.1492405e+00
-1.1743762e+00
-1.1424228e+00
-1.0657126e+00
-9.4075522e-01
-7.5723123e-01
-5.1174196e-01
-2.1508994e-01
8.2797714e-02
2.6773192e-01
2.1939049e-01
-6.3961163e-02
-4.4209885e-01
-7.5713281e-01
-9.2686788e-01
-9.3866979e-01
-8.1192328e-01
-5.6593340e-01
-2.1047562e-01
2.4180831e-01
7.5603909e-01
1.2531264e+00
1.6042136e+00
1.6783553e+00
1.4293695e+00
9.3846496e-01
3.6781549e-01
-1.4010195e-01
-5.1762803e-01
-7.4770238e-01
-8.4318004e-01
-8.4211714e-01
-7.8977975e-01
-7.1480527e-01
-6.3577877e-01
-5.8282330e-01
-5.7131657e-01
-5.6270502e-01
-5.0141373e-01
-3.8600950e-01
-2.5303098e-01
-9.5523648e-02
1.4465277e-01
5.0564293e-01
9.8020654e-01
1.5228278e+00
2.0084723e+00
2.2138163e+00
1.9741719e+00
1.3901264e+00
7.4451961e-01
2.3642406e-01
-8.7904508e-02
-2.4837810e-01
-2.8915338e-01
-2.6998497e-01
-2.6468339e-01
-3.4719830e-01
-5.4583393e-01
-8.1476082e-01
-1.0637548e+00
-1.2187374e+00
-1.2569981e+00
-1.1988911e+00
-1.0775294e+00
-9.1150238e-01
-7.0629466e-01
-4.6964425e-01
-2.1210735e-01
3.9792423e-02
2.2302411e-01
2.6922981e-01
1.7800397e-01
2.1564283e-02
-1.1733788e-01
-1.8819866e-01
-1.7485537e-01
-7.4442947e-02
1.0559562e-01
3.4449579e-01
6.0222115e-01
7.9963962e-01
8.3052349e-01
6.4320350e-01
3.1211065e-01
-1.7795008e-02
-2.4118586e-01
-3.2556449e-01
-2.8025122e-01
-1.1897795e-01
1.4347398e-01
4.7392262e-01
8.0731108e-01
1.0302268e+00
1.0239664e+00
7.8531034e-01
4.4921840e-01
1.4700950e-01
-8.1121354e-02
-2.5432966e-01
-4.0762490e-01
-5.5420837e-01
-6.7337923e-01
-7.3806748e-01
-7.4139404e-01
-6.9858661e-01
-6.3265266e-01
-5.5173966e-01
-4.5381769e-01
-3.6190972e-01
-3.2392787e-01
-3.5642826e-01
-4.0784213e-01
-4.0373041e-01
-3.0310069e-01
-1.0008292e-01
1.8486714e-01
4.8901560e-01
7.0079383e-01
8.0538534e-01
9.2401822e-01
1.0859480e+00
1.1853865e+00
1.1110069e+00
8.3443603e-01
4.3193077e-01
1.2488490e-02
-3.4933600e-01
-6.2001182e-01
-7.8897290e-01
-8.7028524e-01
-8.9989515e-01
-9.1765676e-01
-9.5839530e-01
-1.0461484e+00
-1.1626721e+00
-1.2377822e+00
-1.2121067e+00
-1.0807916e+00
-8.7304837e-01
-6.0934247e-01
-2.7733789e-01
1.4801696e-01
6.7559627e-01
1.2758489e+00
1.8480362e+00
2.2250547e+00
2.2680145e+00
1.9692089e+00
1.4530926e+00
8.9640567e-01
4.4741257e-01
1.8815558e-01
1.4098309e-01
2.7700033e-01
4.8924591e-01
5.8037995e-01
3.6779170e-01
-1.4847639e-01
-7.7085562e-01
-1.2730970e+00
-1.5361811e+00
-1.5512517e+00
-1.3678730e+00
-1.0622973e+00
-7.2075665e-01
-4.0545059e-01
-1.2021511e-01
1.7619952e-01
4.9942561e-01
7.8734847e-01
9.2490253e-01
8.4191517e-01
5.9161908e-01
3.1141018e-01
1.1529101e-01
4.7901673e-02
1.1492150e-01
3.0077301e-01
5.5481315e-01
7.6279168e-01
7.6296321e-01
4.5390359e-01
-9.8170288e-02
-6.8247249e-01
-1.0995487e+00
-1.2751826e+00
-1.2444731e+00
-1.1000567e+00
-9.3283212e-01
-7.6884569e-01
-5.6886424e-01
-2.8617388e-01
7.7696602e-02
4.3421415e-01
6.2110928e-01
5.2706628e-01
2.2384597e-01
-8.6281339e-02
-2.5146594e-01
-2.4039572e-01
-8.1664803e-02
1.8997570e-01
5.4946912e-01
9.6672458e-01
1.3658660e+00
1.5918276e+00
1.4636941e+00
9.3469234e-01
1.8829522e-01
-4.9986084e-01
-9.6867519e-01
-1.1971954e+00
-1.2343070e+00
-1.1720863e+00
-1.1016535e+00
-1.0330346e+00
-8.9619670e-01
-6.2053976e-01
-1.8608354e-01
3.7661357e-01
1.0004336e+00
1.5653765e+00
1.8711119e+00
1.7382996e+00
1.2097425e+00
5.4541834e-01
-1.9473337e-02
-4.0465455e-01
-6.1921266e-01
-7.0228033e-01
-7.0401299e-01
-6.6505189e-01
-6.0791632e-01
-5.5229720e-01
-5.2865408e-01
-5.5840536e-01
-6.3600109e-01
-7.3107298e-01
-7.9818682e-01
-7.8378011e-01
-6.3373415e-01
-3.2274032e-01
1.1766215e-01
6.0547520e-01
1.0419377e+00
1.3535734e+00
1.5320837e+00
1.5819319e+00
1.4530645e+00
1.1263550e+00
6.8477343e-01
2.5336053e-01
-7.9697177e-02
-2.8819066e-01
-3.8153710e-01
-3.7889716e-01
-3.1527607e-01
-2.3935369e-01
-1.8303021e-01
-1.4938622e-01
-1.3751521e-01
-1.6760829e-01
-2.6379390e-01
-4.0779315e-01
-5.3923313e-01
-6.1016403e-01
-6.1431003e-01
-5.7191329e-01
-5.0851696e-01
-4.4498676e-01
-3.8815121e-01
-3.2968820e-01
-2.6628673e-01
-2.0546281e-01
-1.4242676e-01
-4.5942220e-02
1.2398695e-01
3.8674633e-01
7.2652326e-01
1.0765758e+00
1.3055518e+00
1.2701288e+00
9.3619664e-01
4.3077915e-01
-6.3919886e-02
-4.3759890e-01
-6.6701000e-01
-7.7127105e-01
-7.8009633e-01
-7.2319136e-01
-6.2017729e-01
-4.7408368e-01
-2.8781965e-01
-8.6593279e-02
9.7253393e-02
2.4915287e-01
3.4287697e-01
3.2897044e-01
1.9265773e-01
-2.9518046e-03
-1.5856040e-01
-2.1136628e-01
-1.5010466e-01
5.8457619e-03
2.1973650e-01
4.4402196e-01
6.2554636e-01
6.9814720e-01
5.9393579e-01
3.0981208e-01
-5.2345274e-02
-3.5321353e-01
-5.1175112e-01
-5.2589840e-01
-4.3880720e-01
-3.0580351e-01
-1.8009761e-01
-9.9712113e-02
-5.8802908e-02
-8.0143035e-03
8.0561721e-02
1.6055415e-01
1.4446973e-01
-6.5693914e-03
-2.3883288e-01
-4.5871891e-01
-6.0203865e-01
-6.4563348e-01
-5.8543264e-01
-4.2871056e-01
-1.9704017e-01
5.7012278e-02
2.3414998e-01
2.3953269e-01
8.2935950e-02
-1.0478276e-01
-1.8409577e-01
-9.9731902e-02
1.2941446e-01
4.4682594e-01
7.7216126e-01
1.0164548e+00
1.1348021e+00
1.1641688e+00
1.1758909e+00
1.2014316e+00
1.2152111e+00
1.1632333e+00
9.9266179e-01
6.8162396e-01
2.6818382e-01
-1.5420727e-01
-4.9380964e-01
-7.2095154e-01
-8.7009173e-01
-9.9405986e-01
-1.1149284e+00
-1.2164509e+00
-1.2712462e+00
-1.2560234e+00
-1.1473857e+00
-9.3454511e-01
-6.3351304e-01
-2.7918111e-01
6.0935948e-02
2.7103183e-01
2.8715025e-01
1.9647095e-01
1.2881515e-01
1.3552506e-01
1.9985707e-01
2.7745901e-01
3.3759095e-01
3.8668618e-01
4.3444193e-01
4.5205726e-01
3.9554766e-01
2.4561227e-01
2.2193140e-02
-2.1308989e-01
-3.8513307e-01
-4.5637112e-01
-4.5175243e-01
-4.3545932e-01
-4.4989216e-01
-4.7825905e-01
-4.6677076e-01
-3.6602571e-01
-1.5563342e-01
1.4600235e-01
4.9655244e-01
8.5506553e-01
1.1592922e+00
1.2928066e+00
1.1576139e+00
7.9200445e-01
3.3645164e-01
-9.0377661e-02
-4.4205080e-01
-7.2072394e-01
-9.3022115e-01
-1.0616971e+00
-1.1069579e+00
-1.0662701e+00
-9.4954075e-01
-7.7986314e-01
-5.9483602e-01
-4.4534161e-01
-3.7917348e-01
-3.9583428e-01
-4.2228251e-01
-3.5774065e-01
-1.3997596e-01
2.3635574e-01
7.4141487e-01
1.3161166e+00
1.8158130e+00
2.0154814e+00
1.8049821e+00
1.3281398e+00
8.2016494e-01
4.0053606e-01
7.3459506e-02
-1.8523577e-01
-3.7229454e-01
-4.6084602e-01
-4.3712263e-01
-3.0968222e-01
-9.7824386e-02
1.5761699e-01
3.5839490e-01
3.6355776e-01
9.2763593e-02
-3.7728188e-01
-8.5883090e-01
-1.1990909e+00
-1.3412257e+00
-1.3032715e+00
-1.1517771e+00
-9.5014718e-01
-7.1345081e-01
-4.2249787e-01
-6.1733664e-02
3.4909751e-01
7.2279242e-01
9.2664256e-01
8.7691302e-01
6.2376276e-01
3.1461248e-01
7.7239526e-02
-3.3101851e-02
-1.0723512e-02
1.3659865e-01
3.9574745e-01
7.3237817e-01
1.0367320e+00
1.1160014e+00
8.3602993e-01
2.7042012e-01
-3.3976921e-01
-7.8492068e-01
-9.9752991e-01
-1.0153757e+00
-9.2209774e-01
-7.8644389e-01
-6.1711036e-01
-3.8329152e-01
-6.8159062e-02
3.0887811e-01
6.9148139e-01
1.0088059e+00
1.2140593e+00
1.2790299e+00
1.1796919e+00
9.2193491e-01
5.7628146e-01
2.5867521e-01
5.4678781e-02
-1.6771477e-02
2.2388720e-03
8.3943883e-03
-1.2162551e-01
-4.2364595e-01
-7.9745925e-01
-1.1024364e+00
-1.2667278e+00
-1.2929046e+00
-1.2066100e+00
-1.0173630e+00
-7.2192695e-01
-3.3609481e-01
1.0545758e-01
5.6375592e-01
9.5839343e-01
1.1532262e+00
1.0715283e+00
8.0487682e-01
5.4513099e-01
4.2905262e-01
4.7726607e-01
6.4071897e-01
8.5014557e-01
9.8277245e-01
8.6974924e-01
4.5453320e-01
-1.5192292e-01
-7.9211131e-01
-1.3510745e+00
-1.7599786e+00
-1.9892952e+00
-2.0476191e+00
-1.9665538e+00
-1.7807999e+00
-1.5144137e+00
-1.1831388e+00
-7.9380126e-01
-3.4194967e-01
1.7952417e-01
7.7006957e-01
1.4014983e+00
1.9757153e+00
2.3266945e+00
2.3241610e+00
1.9806198e+00
1.4367379e+00
8.5982038e-01
3.6396679e-01
2.8230259e-03
-1.9883755e-01
-2.4523357e-01
-1.9395839e-01
-1.6433301e-01
-2.8351670e-01
-5.7939364e-01
-9.4727455e-01
-1.2395266e+00
-1.3658023e+00
-1.3172926e+00
-1.1387608e+00
-8.8163399e-01
-5.6314894e-01
-1.6594826e-01
3.2740847e-01
8.9937054e-01
1.4584344e+00
1.8242784e+00
1.8278652e+00
1.4728549e+00
9.4203438e-01
4.3945304e-01
7.2661877e-02
-1.4280576e-01
-2.3128385e-01
-2.3863156e-01
-2.2942306e-01
-2.6172291e-01
-3.5953384e-01
-5.0744892e-01
-6.6106898e-01
-7.6901314e-01
-8.0774392e-01
-7.9284114e-01
-7.4769302e-01
-6.6738684e-01
-5.2365195e-01
-3.0058662e-01
-1.4318721e-02
2.9224336e-01
5.6465686e-01
7.5267097e-01
8.2744061e-01
7.9477325e-01
6.8458888e-01
5.3145024e-01
3.7255205e-01
2.4497909e-01
1.6748465e-01
1.2688395e-01
8.2763838e-02
-4.4231995e-03
-1.4386088e-01
-3.1799787e-01
-5.0537171e-01
-6.8707242e-01
-8.3029671e-01
-8.9194569e-01
-8.4404444e-01
-6.8101346e-01
-4.1735605e-01
-1.0414906e-01
1.9547445e-01
4.5454653e-01
6.3667571e-01
6.6607767e-01
5.2221401e-01
2.9231673e-01
7.7469798e-02
-7.5961252e-02
-1.5596140e-01
-1.6040821e-01
-8.6248975e-02
6.6258614e-02
2.8348384e-01
5.0895660e-01
6.2064034e-01
4.8395733e-01
6.3172440e-02
-5.1765179e-01
-1.0575191e+00
-1.4206419e+00
-1.5733512e+00
-1.5470173e+00
-1.4120270e+00
-1.2436280e+00
-1.0613913e+00
-8.1276784e-01
-4.4113670e-01
6.7911284e-02
7.0241484e-01
1.4295383e+00
2.1411771e+00
2.6229294e+00
2.6668009e+00
2.2637297e+00
1.6491642e+00
1.1111278e+00
8.0367251e-01
7.4861812e-01
9.0470568e-01
1.1866583e+00
1.3825595e+00
1.2011744e+00
5.8211235e-01
-2.3935482e-01
-9.9526931e-01
-1.5444482e+00
-1.8589628e+00
-1.9924100e+00
-2.0296256e+00
-2.0042262e+00
-1.8866017e+00
-1.6426079e+00
-1.2779608e+00
-8.3054285e-01
-3.5055957e-01
1.0911557e-01
4.6798592e-01
6.1762907e-01
5.4355187e-01
3.7880824e-01
2.6625902e-01
2.6212214e-01
3.6447448e-01
5.4502442e-01
7.5171239e-01
8.7484657e-01
7.7425613e-01
4.2486660e-01
-3.0825639e-02
-4.1250706e-01
-6.2790240e-01
-6.8061460e-01
-6.3202000e-01
-5.6644205e-01
-5.0988440e-01
-3.9348122e-01
-1.5011382e-01
2.1486135e-01
6.3706585e-01
1.0005886e+00
1.1441589e+00
9.6802583e-01
5.6626493e-01
1.5330110e-01
-1.2516995e-01
-2.4113902e-01
-2.2065584e-01
-1.0488241e-01
6.2134616e-02
2.3803027e-01
3.7346974e-01
3.9590194e-01
2.3224165e-01
-1.1233452e-01
-5.2772722e-01
-8.8012497e-01
-1.0961293e+00
-1.1691045e+00
-1.1191585e+00
-9.6792136e-01
-7.3342794e-01
-4.3151627e-01
-1.0735886e-01
1.2796130e-01
1.6320014e-01
1.2368630e-02
-1.9954363e-01
-3.5012178e-01
-3.7902837e-01
-2.7682791e-01
-5.1484863e-02
2.8165641e-01
6.9711849e-01
1.1322190e+00
1.4561607e+00
1.5253491e+00
1.3089986e+00
9.3060464e-01
5.5736771e-01
2.9545865e-01
1.8822638e-01
2.2894428e-01
3.5726869e-01
4.6045199e-01
4.1314311e-01
1.8396773e-01
-1.1422902e-01
-3.3061816e-01
-4.0133872e-01
-3.7055978e-01
-3.4977664e-01
-4.4099859e-01
-6.3967104e-01
-8.4085124e-01
-9.6011972e-01
-9.8756844e-01
-9.5006369e-01
-8.6446740e-01
-7.1597492e-01
-5.0010414e-01
-2.7503828e-01
-1.2808015e-01
-8.0097112e-02
-5.7725329e-02
3.4261560e-02
2.4736978e-01
5.8410349e-01
9.9346429e-01
1.3164761e+00
1.3322610e+00
1.0184551e+00
6.1821094e-01
3.5714751e-01
2.8917694e-01
3.5625437e-01
4.4047617e-01
4.0012670e-01
1.6324481e-01
-1.8708388e-01
-4.8938813e-01
-6.4504964e-01
-6.4400391e-01
-5.1817291e-01
-3.1827011e-01
-1.0116672e-01
6.5996993e-02
9.6325205e-02
-7.3548652e-02
-3.6507606e-01
-5.9483726e-01
-6.9644586e-01
-7.3940034e-01
-7.9187215e-01
-8.3367521e-01
-7.7101044e-01
-5.3783120e-01
-1.3517903e-01
3.9197761e-01
9.5952249e-01
1.4134719e+00
1.5487154e+00
1.2706081e+00
7.2192116e-01
1.6327286e-01
-2.4001656e-01
-4.5945212e-01
-5.2196362e-01
-4.6531154e-01
-3.2435148e-01
-1.2667822e-01
9.2812972e-02
2.5854807e-01
2.5894132e-01
4.9281584e-02
-2.6587101e-01
-5.2140852e-01
-6.1917374e-01
-5.4479177e-01
-3.4667448e-01
-1.1781776e-01
8.6275659e-02
3.0808204e-01
6.0129373e-01
9.4965754e-01
1.2652830e+00
1.4060362e+00
1.2666114e+00
8.8018731e-01
3.7518374e-01
-1.3805334e-01
-5.9974779e-01
-9.7640667e-01
-1.2495431e+00
-1.4104172e+00
-1.4513009e+00
-1.3877982e+00
-1.2712150e+00
-1.1391346e+00
-9.7008911e-01
-7.1341895e-01
-3.3594573e-01
1.6595661e-01
7.4691500e-01
1.2297465e+00
1.3523447e+00
1.0699942e+00
6.3911168e-01
3.3060109e-01
2.3891795e-01
3.2857824e-01
5.1687873e-01
6.9679767e-01
7.3065784e-01
5.2255527e-01
1.3318440e-01
-2.6661501e-01
-5.4846169e-01
-6.7361023e-01
-6.4716142e-01
-4.9284113e-01
-2.4499504e-01
3.3876343e-02
2.2055290e-01
1.7689502e-01
-1.2584927e-01
-5.4617852e-01
-8.8887900e-01
-1.0481918e+00
-1.0155950e+00
-8.2403571e-01
-5.0295137e-01
-6.5958313e-02
4.7026251e-01
1.0651382e+00
1.6266242e+00
1.9987836e+00
2.0301051e+00
1.6903323e+00
1.1073023e+00
4.8092154e-01
-3.6810593e-02
-3.7950420e-01
-5.3012505e-01
-5.0386410e-01
-3.5251185e-01
-1.7103581e-01
-7.6133574e-02
-1.2975982e-01
-2.7929270e-01
-3.9227484e-01
-3.6133860e-01
-1.7407535e-01
9.7743930e-02
3.5470308e-01
5.2615218e-01
5.7688748e-01
4.9776734e-01
3.2598241e-01
1.3045957e-01
-4.6457732e-02
-2.0813845e-01
-3.6832593e-01
-5.2469347e-01
-6.6671426e-01
-7.8760332e-01
-8.8226245e-01
-9.4235132e-01
-9.6452538e-01
-9.5497576e-01
-9.1943074e-01
-8.6006356e-01
-7.7469232e-01
-6.5104210e-01
-4.7980056e-01
-2.8878940e-01
-1.5599227e-01
-8.7516293e-02
2.2629774e-02
2.2143063e-01
4.8468400e-01
8.0951606e-01
1.2053061e+00
1.6194747e+00
1.8656446e+00
1.7471928e+00
1.2955166e+00
7.3500428e-01
2.4790425e-01
-1.0622158e-01
-3.3592674e-01
-4.6174240e-01
-4.9525311e-01
-4.4403773e-01
-3.2322790e-01
-1.7379454e-01
-7.8521665e-02
-1.2988482e-01
-3.5225284e-01
-6.7037287e-01
-9.6191933e-01
-1.1334961e+00
-1.1484508e+00
-1.0075783e+00
-7.3827960e-01
-3.9243363e-01
-2.4780791e-02
3.2591144e-01
6.4638160e-01
9.6255638e-01
1.3191049e+00
1.7043338e+00
1.9948207e+00
2.0116692e+00
1.6783594e+00
1.1071081e+00
5.0023351e-01
-7.3137241e-03
-3.8243920e-01
-6.2872862e-01
-7.6246839e-01
-8.2154815e-01
-8.6052076e-01
-9.3101483e-01
-1.0473330e+00
-1.1728543e+00
-1.2494499e+00
-1.2346272e+00
-1.1334545e+00
-9.9559163e-01
-8.6110255e-01
-7.3198246e-01
-5.8677906e-01
-3.9935890e-01
-1.5689892e-01
1.1451374e-01
3.3330743e-01
4.0440739e-01
3.1458649e-01
1.5694448e-01
4.8248667e-02
5.0509829e-02
1.6933145e-01
3.9362917e-01
7.0602804e-01
1.0622139e+00
1.3379070e+00
1.3415532e+00
9.7604528e-01
3.7077538e-01
-2.0521278e-01
-5.5470253e-01
-6.3770745e-01
-5.3163219e-01
-3.6690494e-01
-2.2086961e-01
-5.7572634e-02
1.9945268e-01
5.8151424e-01
1.0621672e+00
1.5281578e+00
1.7543898e+00
1.5514590e+00
9.8844053e-01
3.4365178e-01
-1.6351433e-01
-4.7337402e-01
-6.0450187e-01
-5.9855863e-01
-5.0315939e-01
-3.6745614e-01
-2.6185812e-01
-2.8058714e-01
-4.7234092e-01
-7.6285710e-01
-1.0058513e+00
-1.1039580e+00
-1.0419735e+00
-8.5341110e-01
-5.8817243e-01
-2.9349449e-01
-6.4219865e-04
2.8468903e-01
5.4562891e-01
7.1235804e-01
7.1361891e-01
5.5860749e-01
3.1499089e-01
4.2989510e-02
-2.2090068e-01
-4.4983417e-01
-6.1351708e-01
-6.8653560e-01
-6.6330727e-01
-5.6095609e-01
-4.1608943e-01
-2.7692321e-01
-1.7033681e-01
-7.8138219e-02
3.5852589e-02
2.0056051e-01
4.3718948e-01
7.3706155e-01
1.0123902e+00
1.1103269e+00
9.9168162e-01
7.6699423e-01
5.0838065e-01
2.5323487e-01
6.5030047e-02
-1.3521222e-02
1.8933012e-02
1.2438479e-01
2.5020684e-01
3.5513289e-01
4.0584307e-01
3.7078793e-01
2.3685432e-01
3.3130170e-02
-1.7942701e-01
-3.5543612e-01
-4.8438024e-01
-5.7593646e-01
-6.5615233e-01
-7.5932644e-01
-8.8853064e-01
-9.9400875e-01
-1.0159127e+00
-9.3267368e-01
-7.6238631e-01
-5.4804127e-01
-3.3941614e-01
-1.7140903e-01
-4.9858099e-02
5.1835751e-02
1.6103682e-01
2.6898872e-01
3.5171855e-01
4.0782147e-01
4.4588749e-01
4.6500628e-01
4.7082872e-01
4.9330125e-01
5.7494476e-01
7.4124944e-01
9.8197885e-01
1.2230184e+00
1.3124216e+00
1.1112711e+00
6.4147742e-01
9.0970700e-02
-3.5661758e-01
-6.3840647e-01
-7.7992781e-01
-8.2733546e-01
-8.1482791e-01
-7.6643153e-01
-6.9922457e-01
-6.1960289e-01
-5.3396648e-01
-4.5669809e-01
-3.9116495e-01
-3.1549183e-01
-2.0230385e-01
-4.5165353e-02
1.3399389e-01
2.8719494e-01
3.5048122e-01
2.8172461e-01
1.0685345e-01
-9.0424692e-02
-2.3718986e-01
-3.3494772e-01
-4.4879533e-01
-6.2240481e-01
-8.2294299e-01
-9.6804031e-01
-9.8225651e-01
-8.3089632e-01
-5.1687770e-01
-6.1721492e-02
5.1492289e-01
1.1818884e+00
1.8020645e+00
2.1163660e+00
1.9619992e+00
1.4573493e+00
8.6008203e-01
3.3885998e-01
-5.5391931e-02
-3.2192993e-01
-4.6537931e-01
-4.8551649e-01
-3.8977620e-01
-1.9870016e-01
5.3631487e-02
2.9964335e-01
4.3776624e-01
3.8864928e-01
1.5318349e-01
-1.7175491e-01
-4.4413493e-01
-5.6219585e-01
-4.9767485e-01
-2.9353466e-01
-5.8525268e-02
1.0046539e-01
1.6783452e-01
2.0699401e-01
2.8285857e-01
4.0991907e-01
5.2244267e-01
5.0152730e-01
2.9110834e-01
-3.6916577e-02
-3.7180475e-01
-6.5736927e-01
-8.8020091e-01
-1.0286503e+00
-1.0834795e+00
-1.0384195e+00
-9.1392300e-01
-7.5529132e-01
-6.2697954e-01
-5.8119816e-01
-6.1094133e-01
-6.4433725e-01
-6.0023718e-01
-4.3561956e-01
-1.4225579e-01
2.5617684e-01
6.6873188e-01
9.3747569e-01
1.0485493e+00
1.1734477e+00
1.3583745e+00
1.4618966e+00
1.3271194e+00
9.3050499e-01
4.1977512e-01
-2.4313000e-02
-3.0717434e-01
-4.1453017e-01
-3.5867547e-01
-1.6036420e-01
1.4445957e-01
4.6088207e-01
6.1069481e-01
4.4137305e-01
-1.5760673e-02
-5.4010359e-01
-9.0698671e-01
-1.0284353e+00
-9.2448818e-01
-6.6692415e-01
-3.6543875e-01
-1.3386089e-01
-7.9172530e-03
8.3614317e-02
2.2143520e-01
3.9445643e-01
5.1021631e-01
4.9621608e-01
3.8508446e-01
2.8828085e-01
2.9425906e-01
4.2212580e-01
6.6066067e-01
9.8946141e-01
1.3483430e+00
1.5949859e+00
1.5493796e+00
1.1396250e+00
4.8782940e-01
-1.7982406e-01
-7.0416428e-01
-1.0475937e+00
-1.2349838e+00
-1.3038674e+00
-1.2914129e+00
-1.2528631e+00
-1.2485461e+00
-1.2812435e+00
-1.2978148e+00
-1.2470910e+00
-1.1088460e+00
-8.9713580e-01
-6.5871690e-01
-4.4955572e-01
-3.0141370e-01
-1.9800127e-01
-8.0940021e-02
1.0512869e-01
3.8400972e-01
7.5059304e-01
1.1718701e+00
1.5481689e+00
1.6967396e+00
1.4595022e+00
8.5998895e-01
1.2111954e-01
-5.1247679e-01
-9.2452656e-01
-1.1045822e+00
-1.0968979e+00
-9.6453874e-01
-7.3622072e-01
-4.0271441e-01
4.7322358e-02
6.1367111e-01
1.2798844e+00
1.9769873e+00
2.5254298e+00
2.6857066e+00
2.3560189e+00
1.6768113e+00
9.0326859e-01
2.1412989e-01
-3.2581873e-01
-6.9361881e-01
-8.8833014e-01
-9.5151775e-01
-9.7275477e-01
-1.0518425e+00
-1.2287439e+00
-1.4552695e+00
-1.6343877e+00
-1.6838935e+00
-1.5790024e+00
-1.3480443e+00
-1.0388633e+00
-6.8918105e-01
-3.2346295e-01
4.4207953e-02
4.0601329e-01
7.1856842e-01
8.8658972e-01
8.3092058e-01
5.8028970e-01
2.6107225e-01
-5.7943960e-03
-1.6501788e-01
-2.1118505e-01
-1.5040129e-01
7.9460754e-03
2.4103704e-01
4.8788504e-01
6.3727867e-01
5.9363449e-01
3.7823170e-01
1.3196658e-01
-1.0435914e-02
-4.7195028e-03
1.2397365e-01
3.0725349e-01
4.5114088e-01
4.9054445e-01
4.4770086e-01
4.1618489e-01
4.7666053e-01
6.3457290e-01
8.3372159e-01
9.8557609e-01
9.7631660e-01
7.1674233e-01
2.2887178e-01
-3.3521133e-01
-7.9947106e-01
-1.0824271e+00
-1.2009228e+00
-1.2160551e+00
-1.1921149e+00
-1.1749524e+00
-1.1769569e+00
-1.1647013e+00
-1.0840089e+00
-9.1111444e-01
-6.7583250e-01
-4.3423274e-01
-2.1227389e-01
1.3092308e-02
2.7408011e-01
5.7611178e-01
8.8974742e-01
1.1519242e+00
1.3034867e+00
1.3317765e+00
1.2519146e+00
1.0741804e+00
7.9739950e-01
4.2690996e-01
1.7910972e-03
-4.1121456e-01
-7.4780337e-01
-9.6675074e-01
-1.0565092e+00
-1.0332857e+00
-9.2938161e-01
-7.9086541e-01
-6.8001832e-01
-6.4137390e-01
-6.5318648e-01
-6.3520339e-01
-5.1725345e-01
-2.7991037e-01
6.4215636e-02
4.9128381e-01
9.6687476e-01
1.4465996e+00
1.8917274e+00
2.2467074e+00
2.3837360e+00
2.1518215e+00
1.5422125e+00
7.6389410e-01
7.7867586e-02
-3.9254682e-01
-6.5691492e-01
-7.7661897e-01
-8.1885980e-01
-8.4531770e-01
-9.0071098e-01
-9.9182744e-01
-1.0971258e+00
-1.1867985e+00
-1.2264574e+00
-1.1861061e+00
-1.0548549e+00
-8.5448799e-01
-6.3480656e-01
-4.2698432e-01
-2.0963424e-01
6.1066187e-02
4.1220506e-01
8.3523205e-01
1.2548277e+00
1.5325244e+00
1.5875056e+00
1.4774420e+00
1.2762260e+00
9.6807631e-01
5.2367670e-01
9.0611706e-03
-4.4225502e-01
-7.4356326e-01
-8.9628441e-01
-9.5961123e-01
-1.0104823e+00
-1.1053276e+00
-1.2426176e+00
-1.3599401e+00
-1.3877057e+00
-1.2976556e+00
-1.1005643e+00
-8.1226347e-01
-4.2592369e-01
7.6803953e-02
6.9671941e-01
1.3998793e+00
2.0829005e+00
2.5555612e+00
2.6400931e+00
2.3125396e+00
1.7094378e+00
1.0205867e+00
3.9481989e-01
-8.1513332e-02
-3.6447506e-01
-4.5103053e-01
-3.8130790e-01
-2.3831764e-01
-1.4644198e-01
-2.1946454e-01
-4.6158112e-01
-7.4605739e-01
-9.3163192e-01
-9.6404904e-01
-8.6557006e-01
-6.9320084e-01
-5.1284277e-01
-3.6837945e-01
-2.5290407e-01
-1.1784588e-01
8.2586712e-02
3.6005307e-01
6.8980741e-01
1.0013925e+00
1.1745341e+00
1.0972275e+00
7.7496760e-01
3.2692042e-01
-1.3217453e-01
-5.2881777e-01
-8.2861116e-01
-1.0406472e+00
-1.1940140e+00
-1.3181130e+00
-1.4205862e+00
-1.4784517e+00
-1.4651420e+00
-1.3761488e+00
-1.2232102e+00
-1.0134857e+00
-7.4177130e-01
-4.0120890e-01
8.8343776e-03
4.8195814e-01
1.0010720e+00
1.5209762e+00
1.9721391e+00
2.3072689e+00
2.5034383e+00
2.5097591e+00
2.2532701e+00
1.7209105e+00
1.0126551e+00
2.9516631e-01
-2.9466048e-01
-6.9938189e-01
-9.2921935e-01
-1.0371409e+00
-1.0881835e+00
-1.1281948e+00
-1.1724894e+00
-1.2084055e+00
-1.2027550e+00
-1.1216556e+00
-9.6058001e-01
-7.5679616e-01
-5.6863752e-01
-4.2480875e-01
-2.9899177e-01
-1.4730735e-01
5.0821717e-02
2.8872796e-01
5.5235715e-01
8.2965242e-01
1.1064949e+00
1.3506682e+00
1.4833452e+00
1.4023980e+00
1.0720184e+00
5.8783104e-01
1.1624522e-01
-2.2758055e-01
-4.1563833e-01
-4.8076783e-01
-4.9212192e-01
-5.1413221e-01
-5.5452663e-01
-5.5717351e-01
-4.5570342e-01
-2.3670560e-01
2.9231248e-02
2.1216595e-01
2.3810888e-01
1.7949086e-01
1.7344631e-01
2.9303266e-01
5.0300993e-01
6.6457433e-01
6.3485517e-01
4.1230085e-01
1.1261141e-01
-1.5661561e-01
-3.4597760e-01
-4.4262734e-01
-4.3927135e-01
-3.4365113e-01
-1.9679327e-01
-7.1718324e-02
-5.2825262e-02
-1.8379499e-01
-4.2282084e-01
-6.6556875e-01
-8.1917692e-01
-8.4653843e-01
-7.5238487e-01
-5.5767871e-01
-2.8577617e-01
3.9394297e-02
3.9834940e-01
7.7723484e-01
1.1140773e+00
1.2603055e+00
1.1002902e+00
7.0415076e-01
2.5375884e-01
-1.2263456e-01
-3.8234484e-01
-5.2702481e-01
-5.6828321e-01
-5.1812082e-01
-3.9174695e-01
-2.0867173e-01
5.6231444e-03
2.2183166e-01
4.1496460e-01
5.5198513e-01
5.7761439e-01
4.5771619e-01
2.3905943e-01
2.8713735e-02
-9.7539998e-02
-1.4372072e-01
-1.6524386e-01
-1.9861740e-01
-2.1548554e-01
-1.6555306e-01
-3.5110932e-02
1.5094292e-01
3.4653199e-01
4.9445447e-01
5.5517828e-01
5.3362092e-01
4.5388326e-01
3.2626454e-01
1.2784193e-01
-1.6581021e-01
-5.0340795e-01
-7.9121349e-01
-9.8222594e-01
-1.0859409e+00
-1.1372527e+00
-1.1733437e+00
-1.2092900e+00
-1.2242572e+00
-1.1856432e+00
-1.0804449e+00
-9.1960303e-01
-7.1260079e-01
-4.4763957e-01
-1.0841919e-01
3.0549078e-01
7.7303416e-01
1.2329640e+00
1.5698869e+00
1.6739293e+00
1.5315145e+00
1.2198966e+00
8.4354189e-01
4.9740266e-01
2.5316557e-01
1.5674223e-01
2.1496013e-01
3.6878380e-01
4.7278001e-01
3.5833817e-01
-1.2416901e-02
-4.9397898e-01
-8.8996798e-01
-1.0960170e+00
-1.1191982e+00
-1.0239511e+00
-8.6594043e-01
-6.5195277e-01
-3.6110359e-01
1.4735293e-02
4.5249610e-01
8.9199485e-01
1.2486660e+00
1.4545771e+00
1.4785408e+00
1.2935154e+00
8.8809171e-01
3.3409896e-01
-2.2010742e-01
-6.4309636e-01
-8.8581092e-01
-9.6996381e-01
-9.5331466e-01
-9.0492224e-01
-8.7691585e-01
-8.7306616e-01
-8.5784662e-01
-8.0959818e-01
-7.3774890e-01
-6.3835046e-01
-4.6715188e-01
-1.7522056e-01
2.5200727e-01
7.9880790e-01
1.4364898e+00
2.1021541e+00
2.6330142e+00
2.8022244e+00
2.5071687e+00
1.8679601e+00
1.1182235e+00
4.3847074e-01
-9.3547644e-02
-4.5341166e-01
-6.4674375e-01
-7.0913503e-01
-6.9853121e-01
-6.8848781e-01
-7.4887973e-01
-8.9871199e-01
-1.0811608e+00
-1.2167871e+00
-1.2719851e+00
-1.2623478e+00
-1.2113442e+00
-1.1243934e+00
-1.0056410e+00
-8.7762701e-01
-7.5480659e-01
-6.1460978e-01
-4.2460596e-01
-1.8150206e-01
8.4882763e-02
3.2228520e-01
4.7781490e-01
5.3770466e-01
5.3563312e-01
5.0607666e-01
4.6075208e-01
4.1359329e-01
3.9693779e-01
4.4586490e-01
5.5769155e-01
6.6459171e-01
6.5913871e-01
4.6765270e-01
1.1991465e-01
-2.6035626e-01
-5.4581438e-01
-6.7780486e-01
-6.7589533e-01
-6.0374519e-01
-4.9942563e-01
-3.3749714e-01
-6.9743835e-02
3.2131112e-01
8.0567058e-01
1.2903920e+00
1.6061466e+00
1.5897095e+00
1.2439646e+00
7.5354071e-01
3.2122955e-01
4.6895382e-02
-6.4967421e-02
-5.5984832e-02
2.7964522e-03
-6.1428950e-02
-4.1032697e-01
-9.2381739e-01
-1.3446902e+00
-1.5559831e+00
-1.5737013e+00
-1.4629376e+00
-1.2878066e+00
-1.0778645e+00
-8.1637142e-01
-4.7159989e-01
-3.7523685e-02
4.4594328e-01
8.7965427e-01
1.1412136e+00
1.1813879e+00
1.0649209e+00
8.9078698e-01
6.9247892e-01
4.4494402e-01
1.4346687e-01
-1.5736892e-01
-3.8125536e-01
-4.8355583e-01
-4.5754129e-01
-3.2478209e-01
-1.4950884e-01
-5.2407844e-02
-1.4994354e-01
-4.3230058e-01
-7.4791335e-01
-9.3609431e-01
-9.2623028e-01
-7.2746546e-01
-3.7974723e-01
8.0033288e-02
6.2594678e-01
1.2392366e+00
1.8602644e+00
2.3089566e+00
2.3520550e+00
1.9361010e+00
1.2577248e+00
5.7380358e-01
2.9238909e-02
-3.4625865e-01
-5.6635169e-01
-6.5258271e-01
-6.2908295e-01
-5.2384842e-01
-3.8114558e-01
-2.7127722e-01
-2.5935150e-01
-3.6251694e-01
-5.5533759e-01
-7.8602131e-01
-9.8520710e-01
-1.0914870e+00
-1.0731964e+00
-9.3968014e-01
-7.3679375e-01
-5.1557456e-01
-3.1245353e-01
-1.5231760e-01
-3.0027499e-02
9.6965707e-02
2.4915625e-01
3.8179295e-01
4.2355261e-01
3.5393119e-01
2.3036121e-01
1.3486486e-01
1.2061455e-01
2.0690082e-01
3.9899114e-01
6.8107139e-01
9.7580751e-01
1.1244293e+00
9.6570777e-01
4.9150866e-01
-1.1468117e-01
-6.3014232e-01
-9.4191273e-01
-1.0622097e+00
-1.0723253e+00
-1.0328088e+00
-9.2576818e-01
-7.0238392e-01
-3.5401564e-01
6.6273661e-02
4.5360254e-01
6.8893885e-01
7.0505261e-01
5.3460053e-01
2.8228144e-01
5.6591173e-02
-7.2204141e-02
-7.6768010e-02
4.8820545e-02
3.0113763e-01
6.5457029e-01
1.0056408e+00
1.1545531e+00
9.4702644e-01
4.4703155e-01
-9.6976286e-02
-4.6639295e-01
-5.9626213e-01
-5.3737325e-01
-4.0097293e-01
-3.1395915e-01
-3.4634944e-01
-4.6022664e-01
-5.4660412e-01
-5.1257379e-01
-3.3065565e-01
-4.1285093e-02
2.6479361e-01
4.8389320e-01
5.5004961e-01
4.7516581e-01
3.5824185e-01
3.3145249e-01
4.7019488e-01
7.7283315e-01
1.1742672e+00
1.5125507e+00
1.5700301e+00
1.2798561e+00
7.7275042e-01
2.0269480e-01
-3.0992880e-01
-6.8757439e-01
-9.1700935e-01
-1.0220917e+00
-1.0425605e+00
-1.0087893e+00
-9.3092144e-01
-8.2300006e-01
-7.1636511e-01
-6.3356188e-01
-5.6365626e-01
-4.8308623e-01
-3.9338843e-01
-3.2119000e-01
-2.7864090e-01
-2.4044566e-01
-1.7114869e-01
-5.8180861e-02
8.1650038e-02
2.0412825e-01
2.4658554e-01
1.7330050e-01
1.7083074e-02
-1.5398173e-01
-2.8940508e-01
-3.5926238e-01
-3.4224886e-01
-2.2721018e-01
-2.3129435e-02
2.3580172e-01
5.0144551e-01
7.1935413e-01
8.2948620e-01
7.9461305e-01
6.3719881e-01
4.1365577e-01
1.6595098e-01
-7.6967194e-02
-2.8105228e-01
-4.1828388e-01
-4.8476295e-01
-4.9001817e-01
-4.3825307e-01
-3.2989713e-01
-1.8733588e-01
-7.3214596e-02
-6.3597121e-02
-1.8879040e-01
-3.9490504e-01
-5.7664197e-01
-6.5469811e-01
-6.2602499e-01
-5.7058164e-01
-5.7864167e-01
-6.2944712e-01
-6.0477668e-01
-4.1440457e-01
-4.7213399e-02
4.4697184e-01
9.6898420e-01
1.3800110e+00
1.5623751e+00
1.4953693e+00
1.2382891e+00
8.7653285e-01
5.0068683e-01
1.9763687e-01
3.9316483e-02
5.5974472e-02
2.2134220e-01
4.1857646e-01
4.3857827e-01
1.3493210e-01
-4.0488690e-01
-9.2668443e-01
-1.2367175e+00
-1.2920298e+00
-1.1446496e+00
-8.6870708e-01
-5.0576207e-01
-6.0079719e-02
4.7316103e-01
1.0852425e+00
1.7072633e+00
2.1514033e+00
2.1903047e+00
1.7673009e+00
1.0636314e+00
3.3643424e-01
-2.6018507e-01
-6.8981941e-01
-9.5480773e-01
-1.0715682e+00
-1.0777147e+00
-1.0318498e+00
-1.0092176e+00
-1.0663456e+00
-1.1846059e+00
-1.2753213e+00
-1.2610060e+00
-1.1262161e+00
-8.9571680e-01
-5.8992528e-01
-2.0347710e-01
2.7522676e-01
8.4089159e-01
1.4587294e+00
2.0142178e+00
2.2942530e+00
2.1333036e+00
1.5951477e+00
9.1466398e-01
2.9041567e-01
-1.9966004e-01
-5.5592058e-01
-7.9296056e-01
-9.1675453e-01
-9.3425081e-01
-8.5701785e-01
-7.0696457e-01
-5.1381423e-01
-2.9497726e-01
-5.6481206e-02
1.7597413e-01
3.4807841e-01
4.3209218e-01
4.3870720e-01
3.6057831e-01
1.9089581e-01
-3.6098489e-02
-2.5540634e-01
-4.0800240e-01
-4.7257187e-01
-4.5660018e-01
-3.8284907e-01
-2.9536068e-01
-2.5049776e-01
-2.6887333e-01
-3.0349347e-01
-2.8394039e-01
-1.7629400e-01
1.2077316e-02
2.4904804e-01
4.7468657e-01
5.9826721e-01
5.4548006e-01
3.2610459e-01
2.2162985e-02
-2.7814766e-01
-5.1392530e-01
-6.5240457e-01
-6.8356377e-01
-6.2698247e-01
-5.2760216e-01
-4.1866050e-01
-2.9868738e-01
-1.4664179e-01
5.7707672e-02
3.1524611e-01
5.6738147e-01
6.8706461e-01
5.8802415e-01
3.3152462e-01
4.6552173e-02
-1.9960561e-01
-4.0418932e-01
-5.6231189e-01
-6.3770166e-01
-5.9947931e-01
-4.5162536e-01
-2.2596651e-01
2.6939689e-02
2.4693272e-01
3.9191120e-01
4.4429856e-01
3.7252735e-01
1.4309038e-01
-1.9727248e-01
-5.0493873e-01
-6.3992011e-01
-5.4963511e-01
-2.6067752e-01
1.6224519e-01
6.5119966e-01
1.1539132e+00
1.6309069e+00
2.0181741e+00
2.1927318e+00
2.0284197e+00
1.5210399e+00
8.4964132e-01
2.5596447e-01
-1.2615857e-01
-2.8587498e-01
-2.7740321e-01
-2.0577454e-01
-2.0510501e-01
-3.4442705e-01
-5.6699055e-01
-7.6618653e-01
-8.8020142e-01
-9.0425156e-01
-8.5584846e-01
-7.4756519e-01
-5.8950582e-01
-4.0346370e-01
-2.2251350e-01
-7.9757512e-02
6.7362662e-03
5.1900461e-02
8.8351407e-02
1.1740230e-01
1.0304493e-01
3.2314246e-02
-5.5432511e-02
-1.2352027e-01
-1.8177334e-01
-2.5550372e-01
-3.3943168e-01
-4.0729061e-01
-4.5173685e-01
-4.8736066e-01
-5.2105612e-01
-5.4338105e-01
-5.4972729e-01
-5.4051033e-01
-4.9938008e-01
-3.9817233e-01
-2.2083567e-01
2.9223351e-02
3.2647749e-01
6.0963413e-01
7.9500738e-01
8.5304097e-01
8.4407486e-01
8.1511715e-01
7.0210122e-01
3.9615147e-01
-8.9720955e-02
-5.9796624e-01
-9.7976977e-01
-1.1823968e+00
-1.2228743e+00
-1.1430299e+00
-9.8441291e-01
-7.7524255e-01
-5.2287746e-01
-2.2567396e-01
1.2273255e-01
5.4300307e-01
1.0434606e+00
1.5525250e+00
1.9149002e+00
2.0265644e+00
1.8669702e+00
1.4430941e+00
8.8918216e-01
4.2402297e-01
1.6645712e-01
1.1425632e-01
1.7974218e-01
2.1255824e-01
9.2322188e-02
-1.6001063e-01
-4.0937863e-01
-5.4731784e-01
-5.5081791e-01
-4.3627479e-01
-2.3374817e-01
-1.8016690e-03
1.5070201e-01
9.8283225e-02
-1.9333246e-01
-6.1370680e-01
-9.9143220e-01
-1.2161772e+00
-1.2763288e+00
-1.2186325e+00
-1.0906886e+00
-9.0169564e-01
-6.2345639e-01
-2.3277716e-01
2.6069652e-01
8.1884077e-01
1.3697451e+00
1.7548711e+00
1.7680302e+00
1.3823012e+00
8.1863366e-01
3.1308830e-01
-4.1917129e-02
-2.4517565e-01
-3.2218597e-01
-3.0921280e-01
-2.4524170e-01
-1.7590315e-01
-1.5355173e-01
-1.9796729e-01
-2.5935875e-01
-2.5748300e-01
-1.4778571e-01
7.6598031e-02
3.9325159e-01
6.9486196e-01
7.7713760e-01
5.2250927e-01
5.8356916e-02
-3.9929759e-01
-7.4627116e-01
-9.8029032e-01
-1.1327410e+00
-1.2380791e+00
-1.3126333e+00
-1.3487965e+00
-1.3247400e+00
-1.2243014e+00
-1.0490356e+00
-8.0510785e-01
-4.9836907e-01
-1.6031519e-01
1.2232998e-01
2.5570428e-01
2.4991460e-01
2.2840525e-01
3.1636437e-01
5.7099334e-01
9.8463066e-01
1.4586187e+00
1.7669623e+00
1.7097056e+00
1.3629656e+00
1.0022204e+00
8.2438077e-01
8.7518207e-01
1.1118817e+00
1.4357570e+00
1.6882639e+00
1.6778085e+00
1.3099642e+00
6.9401272e-01
5.1246862e-02
-4.6758331e-01
-8.3014195e-01
-1.0603602e+00
-1.1978332e+00
-1.2823155e+00
-1.3427538e+00
-1.3898291e+00
-1.4140525e+00
-1.3921618e+00
-1.2946228e+00
-1.0958769e+00
-8.0326135e-01
-4.7705714e-01
-2.1757974e-01
-9.5919105e-02
-7.5415386e-02
-5.2540866e-02
4.1788745e-02
1.9642321e-01
3.2176645e-01
3.0170486e-01
9.9162139e-02
-2.0387187e-01
-4.8750622e-01
-6.8122229e-01
-7.6706884e-01
-7.4001883e-01
-6.0670843e-01
-4.0385958e-01
-2.0303137e-01
-7.7697507e-02
-4.2854599e-02
-3.7065113e-02
3.6206920e-02
2.4089259e-01
5.8217318e-01
1.0323367e+00
1.5355522e+00
1.9925509e+00
2.2947809e+00
2.3427404e+00
2.0462310e+00
1.4300456e+00
6.8007209e-01
5.1650827e-03
-4.7882087e-01
-7.4543096e-01
-8.3219184e-01
-8.1376309e-01
-7.5869006e-01
-7.0229280e-01
-6.3838213e-01
-5.3043232e-01
-3.4637524e-01
-1.0517292e-01
8.4094502e-02
6.7769084e-02
-1.9616567e-01
-5.6921101e-01
-8.6542277e-01
-9.8438117e-01
-9.1920705e-01
-7.1834419e-01
-4.5476009e-01
-1.7885386e-01
1.1350614e-01
4.1302417e-01
6.1300089e-01
5.7602576e-01
2.9724933e-01
-8.0654708e-02
-4.0334967e-01
-5.9235329e-01
-6.3568101e-01
-5.4734798e-01
-3.4750213e-01
-5.6482735e-02
3.0392698e-01
6.8448519e-01
9.7551024e-01
1.0462949e+00
8.6208625e-01
5.3697823e-01
2.4000611e-01
8.1588445e-02
9.2472661e-02
2.3606559e-01
3.7159715e-01
3.1600420e-01
6.2042313e-02
-2.0841054e-01
-3.3594125e-01
-2.7812005e-01
-7.2584683e-02
1.9491362e-01
3.9659273e-01
4.0640166e-01
2.1152443e-01
-7.0165981e-02
-3.0708409e-01
-4.3291381e-01
-4.3585634e-01
-3.1824763e-01
-9.7035805e-02
1.6490190e-01
3.3029203e-01
2.4392792e-01
-1.1150245e-01
-5.7954751e-01
-9.7235809e-01
-1.1911157e+00
-1.2331877e+00
-1.1440474e+00
-9.6683669e-01
-7.1362872e-01
-3.7087502e-01
7.4564511e-02
6.1434396e-01
1.1874561e+00
1.6348253e+00
1.7452852e+00
1.4507715e+00
9.2638839e-01
4.2799626e-01
9.8417997e-02
-4.1636072e-02
-1.2094597e-02
1.5180555e-01
3.8071631e-01
5.3612944e-01
4.5384701e-01
9.7600337e-02
-3.8449260e-01
-7.8860645e-01
-9.9666689e-01
-1.0019174e+00
-8.6537355e-01
-6.7417735e-01
-4.9590810e-01
-3.3685482e-01
-1.5442691e-01
9.3067319e-02
4.0043223e-01
6.8946899e-01
8.2493729e-01
7.1963193e-01
4.4470742e-01
1.6908966e-01
6.5875315e-03
-2.2462852e-02
6.3738671e-02
2.3557401e-01
4.5373507e-01
6.5392028e-01
7.3374144e-01
6.0160609e-01
2.7031970e-01
-1.2614539e-01
-4.5176676e-01
-6.6166485e-01
-7.7541130e-01
-8.1964223e-01
-8.0390895e-01
-7.2809545e-01
-5.9520283e-01
-4.2094435e-01
-2.5206207e-01
-1.8203069e-01
-2.1983761e-01
-2.3712406e-01
-1.7521032e-01
-9.0943189e-02
-5.6769128e-02
-1.0718940e-01
-2.0100282e-01
-2.5896420e-01
-2.2901945e-01
-1.0413618e-01
9.6685290e-02
3.4412537e-01
5.9974768e-01
7.9023650e-01
8.1105564e-01
6.1555596e-01
2.8921837e-01
-7.1572587e-03
-1.6053220e-01
-1.4898272e-01
-1.0960124e-02
1.9604752e-01
4.1308888e-01
5.6576075e-01
5.8784002e-01
4.7817088e-01
2.8364891e-01
4.1104848e-02
-2.2573874e-01
-4.8256944e-01
-6.8869628e-01
-8.2006720e-01
-8.7589139e-01
-8.6493393e-01
-7.9398382e-01
-6.7666631e-01
-5.3989133e-01
-4.2602818e-01
-3.8342855e-01
-4.1648159e-01
-4.5921877e-01
-4.2324761e-01
-2.5639740e-01
3.5388752e-02
3.9137066e-01
6.9118639e-01
8.1069305e-01
7.5515965e-01
6.6164270e-01
6.5579128e-01
7.5322695e-01
8.6730468e-01
8.6651795e-01
6.7616002e-01
3.6605917e-01
8.6600281e-02
-6.5865000e-02
-7.5910781e-02
4.2336254e-02
2.6263608e-01
5.3560657e-01
7.6221274e-01
7.9487956e-01
5.3155490e-01
3.2436154e-02
-4.9771717e-01
-8.7948679e-01
-1.0656409e+00
-1.1064648e+00
-1.0778937e+00
-1.0197914e+00
-9.2380755e-01
-7.6833918e-01
-5.4922348e-01
-2.9486022e-01
-6.8603986e-02
7.5619740e-02
1.4389102e-01
1.7081101e-01
1.7052857e-01
1.5588931e-01
1.7208029e-01
2.7501532e-01
4.8395287e-01
7.5805411e-01
9.7823213e-01
9.7570692e-01
6.5489859e-01
1.0156447e-01
-4.7285454e-01
-8.9885210e-01
-1.1269842e+00
-1.1861245e+00
-1.1137061e+00
-9.1437670e-01
-5.7564355e-01
-9.8496360e-02
4.8417790e-01
1.0559924e+00
1.3951043e+00
1.3306270e+00
9.3345026e-01
4.3928592e-01
2.9067374e-02
-2.4527680e-01
-4.0007537e-01
-4.4477154e-01
-3.6890265e-01
-1.6968595e-01
1.3839113e-01
5.2782333e-01
9.4932109e-01
1.3174580e+00
1.5236733e+00
1.4792139e+00
1.1560995e+00
6.1185284e-01
-5.7885155e-03
-5.1751781e-01
-8.1040281e-01
-8.7701509e-01
-7.7993282e-01
-6.0064363e-01
-4.0439106e-01
-2.2002102e-01
-4.9504594e-02
9.6404720e-02
1.8866835e-01
1.7286873e-01
-5.1342044e-03
-3.0429532e-01
-6.0557718e-01
-8.2218930e-01
-9.2083621e-01
-8.9355141e-01
-7.6313930e-01
-5.9444613e-01
-4.7939592e-01
-4.7595629e-01
-5.4897043e-01
-6.0741555e-01
-5.7939112e-01
-4.3867236e-01
-2.0455491e-01
6.4617255e-02
2.7402368e-01
3.4396336e-01
2.9537364e-01
2.2865202e-01
2.2776276e-01
2.9572493e-01
3.5811092e-01
3.2008750e-01
1.5209612e-01
-6.9924788e-02
-2.3507470e-01
-2.8291159e-01
-2.0792471e-01
-2.1293440e-02
2.5676015e-01
5.7857301e-01
8.2303299e-01
8.1463530e-01
4.8212082e-01
-3.4775159e-02
-4.9275149e-01
-7.3262095e-01
-7.2928918e-01
-5.3035212e-01
-2.1622835e-01
1.1308026e-01
3.8784491e-01
6.2896421e-01
9.1587882e-01
1.2810254e+00
1.6341376e+00
1.7649121e+00
1.4990221e+00
9.0944903e-01
2.6573065e-01
-2.2727853e-01
-5.2306065e-01
-6.4559442e-01
-6.3546087e-01
-5.4070406e-01
-4.3195434e-01
-4.1700768e-01
-5.8597313e-01
-9.1659874e-01
-1.2610071e+00
-1.4625614e+00
-1.4618843e+00
-1.2935668e+00
-1.0398468e+00
-7.6287252e-01
-4.5379096e-01
-7.1593332e-02
4.0283963e-01
9.5099960e-01
1.4813081e+00
1.8118365e+00
1.7771293e+00
1.3877833e+00
8.3225177e-01
3.0313767e-01
-1.1619211e-01
-4.1040274e-01
-5.7748526e-01
-6.2165334e-01
-5.5209928e-01
-3.8320329e-01
-1.7222714e-01
-2.9712270e-02
-2.8455247e-02
-1.1683927e-01
-1.6335243e-01
-6.7666346e-02
1.9589194e-01
5.8219538e-01
9.2470837e-01
9.7188666e-01
6.4154252e-01
1.3598164e-01
-2.7721548e-01
-4.7936861e-01
-4.9764309e-01
-4.1954694e-01
-3.4323405e-01
-3.3057952e-01
-3.6397193e-01
-3.7960957e-01
-3.2901849e-01
-1.9375414e-01
2.6494584e-02
3.3059009e-01
7.0191057e-01
1.0756537e+00
1.3186975e+00
1.2796228e+00
9.2464454e-01
4.0025296e-01
-8.5010175e-02
-4.1905794e-01
-6.1368656e-01
-7.3969219e-01
-8.3602474e-01
-8.6231497e-01
-7.5957611e-01
-5.2011225e-01
-1.9805404e-01
1.0683527e-01
3.0166686e-01
3.7361391e-01
3.8932551e-01
4.0948127e-01
4.3902064e-01
3.7194713e-01
7.3003529e-02
-3.8397174e-01
-7.9672833e-01
-1.0610433e+00
-1.1894471e+00
-1.2542740e+00
-1.3270463e+00
-1.4125160e+00
-1.4402365e+00
-1.3355549e+00
-1.0773960e+00
-6.9752426e-01
-2.6238957e-01
1.6009549e-01
5.4545520e-01
9.2085320e-01
1.3293669e+00
1.7548251e+00
2.0507669e+00
2.0112772e+00
1.5872046e+00
9.6097216e-01
3.7277013e-01
-5.0910044e-02
-2.9652877e-01
-3.8637434e-01
-3.4851588e-01
-2.1399427e-01
-4.0706036e-02
5.1807829e-02
-6.7625633e-02
-4.0831789e-01
-8.1414490e-01
-1.1032675e+00
-1.1963763e+00
-1.1027774e+00
-8.6153109e-01
-5.0318545e-01
-4.0757697e-02
5.1691136e-01
1.1553806e+00
1.8148296e+00
2.3063737e+00
2.3660206e+00
1.9060323e+00
1.1327715e+00
3.5748332e-01
-2.3464825e-01
-6.1338617e-01
-8.1248760e-01
-8.7438710e-01
-8.3404082e-01
-7.1221518e-01
-5.2488118e-01
-3.2376472e-01
-2.1615554e-01
-2.9271889e-01
-5.2324834e-01
-7.6398685e-01
-8.7729672e-01
-8.0784553e-01
-5.6165467e-01
-1.8068415e-01
2.6040785e-01
6.5800691e-01
8.9819159e-01
9.2344920e-01
7.9790038e-01
6.5842047e-01
5.7727264e-01
5.0890692e-01
3.5753731e-01
8.4002862e-02
-2.4598830e-01
-5.2545019e-01
-6.9175198e-01
-7.4029040e-01
-6.8846672e-01
-5.6437648e-01
-4.1483318e-01
-3.1435590e-01
-3.4840656e-01
-5.3667234e-01
-7.8695308e-01
-9.6627296e-01
-1.0027613e+00
-9.1059512e-01
-7.4385774e-01
-5.2011111e-01
-2.0049667e-01
2.5372853e-01
8.4565229e-01
1.5206159e+00
2.1135570e+00
2.3836896e+00
2.1929507e+00
1.6406371e+00
9.7540449e-01
4.0112982e-01
2.5641203e-03
-2.1307897e-01
-2.6519830e-01
-1.8727568e-01
-4.5221004e-02
3.5168984e-02
-8.6906998e-02
-4.3852012e-01
-8.9551506e-01
-1.2884463e+00
-1.5130336e+00
-1.5588494e+00
-1.4707404e+00
-1.2838372e+00
-9.9820680e-01
-6.1457116e-01
-1.4901152e-01
3.8215796e-01
9.1561307e-01
1.2862053e+00
1.3215566e+00
1.0521794e+00
7.1084257e-01
5.0119774e-01
4.9015172e-01
6.6128133e-01
9.7089936e-01
1.3542425e+00
