-9.6475721e-02
-5.5572581e-02
-1.0304948e-02
3.9588291e-02
9.0490697e-02
1.3610933e-01
1.7187791e-01
1.9756312e-01
2.1697608e-01
2.3663532e-01
2.6200916e-01
2.9305705e-01
3.2098671e-01
3.3046548e-01
3.1041619e-01
2.6246334e-01
1.9992506e-01
1.3937020e-01
9.1146316e-02
5.8694202e-02
4.0584968e-02
2.9187471e-02
1.2943489e-02
-1.6724558e-02
-5.7931507e-02
-9.8304810e-02
-1.2496738e-01
-1.3192321e-01
-1.1912956e-01
-8.9425030e-02
-4.7186211e-02
3.0596213e-03
5.8003927e-02
1.1459231e-01
1.6666250e-01
2.0109183e-01
2.0232248e-01
1.6505223e-01
1.0116476e-01
3.1556712e-02
-2.8431027e-02
-7.2433997e-02
-9.9763273e-02
-1.1356297e-01
-1.1816430e-01
-1.1809116e-01
-1.1621180e-01
-1.1185797e-01
-1.0325783e-01
-8.9704104e-02
-7.3622253e-02
-6.3072525e-02
-6.6757614e-02
-8.4586805e-02
-1.0643024e-01
-1.2000426e-01
-1.1781610e-01
-9.7691035e-02
-6.1360637e-02
-1.3593100e-02
3.9720797e-02
9.4255969e-02
1.4796286e-01
1.9907072e-01
2.4263744e-01
2.6681348e-01
2.5591094e-01
2.0159599e-01
1.1252112e-01
1.2896593e-02
-7.1608547e-02
-1.2738648e-01
-1.5363364e-01
-1.5448998e-01
-1.3379219e-01
-9.5429108e-02
-4.4113915e-02
1.4602748e-02
7.2629219e-02
1.1905150e-01
1.4520446e-01
1.4765011e-01
1.2718921e-01
8.8822038e-02
4.0347158e-02
-1.0005137e-02
-5.5223906e-02
-8.9686840e-02
-1.0943016e-01
-1.1268610e-01
-1.0004813e-01
-7.6440241e-02
-4.9848834e-02
-2.6663721e-02
-9.1943009e-03
4.5396434e-03
1.7655898e-02
3.1448715e-02
4.5424394e-02
5.6748026e-02
6.1213459e-02
5.5455245e-02
3.8253585e-02
1.1523190e-02
-2.0318943e-02
-5.1652714e-02
-7.6787617e-02
-9.1354324e-02
-9.3579963e-02
-8.3465553e-02
-6.2462012e-02
-3.5832249e-02
-1.2760943e-02
-1.9656492e-03
-5.0094860e-03
-1.5811541e-02
-2.6834911e-02
-3.2362731e-02
-2.9701863e-02
-2.1239928e-02
-1.3200446e-02
-1.1250047e-02
-1.7033642e-02
-2.5714458e-02
-2.9436906e-02
-2.2572612e-02
-1.7028524e-03
3.1561357e-02
6.6012162e-02
8.4508748e-02
7.7803180e-02
5.1650291e-02
1.9940987e-02
-3.7048550e-03
-1.2222001e-02
-4.5288077e-03
1.6216413e-02
4.0186446e-02
5.5114305e-02
5.4367332e-02
4.0202907e-02
2.1446614e-02
7.0750543e-03
-7.6436632e-04
-7.8565271e-03
-2.0937800e-02
-4.0185980e-02
-5.8088626e-02
-6.4899579e-02
-5.5327089e-02
-2.9549732e-02
1.1339805e-02
6.6162803e-02
1.2834669e-01
1.8242845e-01
2.0797837e-01
1.9225546e-01
1.4150543e-01
7.7009870e-02
1.9099655e-02
-2.2658200e-02
-4.7058884e-02
-5.6900009e-02
-5.6099694e-02
-4.8934607e-02
-4.0692497e-02
-3.5579888e-02
-3.5151380e-02
-3.9327892e-02
-4.6928550e-02
-5.5494380e-02
-6.2923903e-02
-6.7893633e-02
-6.9443089e-02
-6.8763119e-02
-6.6707961e-02
-6.2904879e-02
-5.8891890e-02
-5.9222403e-02
-7.3397413e-02
-1.0175546e-01
-1.2857226e-01
-1.4395317e-01
-1.4827483e-01
-1.4307771e-01
-1.2946270e-01
-1.0716837e-01
-7.7255830e-02
-4.3340457e-02
-8.3272680e-03
2.7685416e-02
6.6676024e-02
1.1094433e-01
1.6156800e-01
2.1780168e-01
2.7665561e-01
3.3099623e-01
3.6674246e-01
3.6611449e-01
3.1791052e-01
2.2698385e-01
1.1405699e-01
3.6819616e-03
-8.7350436e-02
-1.5273298e-01
-1.9277258e-01
-2.1092022e-01
-2.1337573e-01
-2.0639748e-01
-1.9315342e-01
-1.7345990e-01
-1.4520121e-01
-1.0685112e-01
-5.9007470e-02
-4.6803868e-03
4.9606435e-02
9.4942217e-02
1.2361342e-01
1.3167619e-01
1.1938431e-01
9.0651436e-02
5.2799326e-02
1.4478833e-02
-1.6524104e-02
-3.4748481e-02
-3.8413237e-02
-2.8791901e-02
-8.9102197e-03
1.5240071e-02
3.2961779e-02
3.3692947e-02
1.4248251e-02
-1.9373149e-02
-5.5997024e-02
-8.6080293e-02
-1.0449248e-01
-1.1056573e-01
-1.0674316e-01
-9.5529395e-02
-7.9015782e-02
-5.7408503e-02
-2.8567239e-02
7.9391864e-03
5.0012474e-02
9.4060716e-02
1.3378518e-01
1.6153169e-01
1.7168101e-01
1.6299163e-01
1.3942171e-01
1.0697285e-01
6.9689891e-02
3.0643451e-02
-6.3357765e-03
-3.8139862e-02
-6.2240259e-02
-7.6635972e-02
-8.1563244e-02
-8.0467299e-02
-8.1620231e-02
-9.3120625e-02
-1.1447736e-01
-1.3686776e-01
-1.4937871e-01
-1.4581018e-01
-1.2587955e-01
-9.2158425e-02
-4.8490662e-02
1.6246295e-03
5.5554493e-02
1.0985807e-01
1.5957575e-01
1.9902296e-01
2.2158648e-01
2.2119721e-01
1.9571271e-01
1.4779584e-01
8.4816131e-02
1.7556189e-02
-4.3923431e-02
-9.3759384e-02
-1.3028032e-01
-1.5382242e-01
-1.6519651e-01
-1.6442987e-01
-1.5007980e-01
-1.2183116e-01
-8.2178346e-02
-3.6165255e-02
8.1385552e-03
4.2364565e-02
6.1955632e-02
6.8960201e-02
7.1595082e-02
7.8098471e-02
9.0597955e-02
1.0283629e-01
1.0234369e-01
8.0673011e-02
4.3620369e-02
6.2344738e-03
-1.8417895e-02
-2.3553023e-02
-1.0225181e-02
1.1503620e-02
2.5543251e-02
2.0682141e-02
-7.9083703e-04
-2.6977434e-02
-4.5069383e-02
-4.7998282e-02
-3.6023245e-02
-1.4681130e-02
8.0732976e-03
2.5608475e-02
3.5427358e-02
3.9188127e-02
3.9175571e-02
3.4807077e-02
2.1215415e-02
-7.2929691e-03
-5.0646438e-02
-1.0168520e-01
-1.4945234e-01
-1.8434027e-01
-2.0117512e-01
-1.9849703e-01
-1.7795155e-01
-1.4291091e-01
-9.6696673e-02
-4.2549814e-02
1.7197437e-02
8.1661176e-02
1.4909296e-01
2.1458075e-01
2.6902789e-01
3.0136513e-01
3.0424003e-01
2.7797132e-01
2.2865567e-01
1.6383900e-01
9.1575141e-02
2.0508898e-02
-4.1087211e-02
-8.6599672e-02
-1.1318140e-01
-1.2268130e-01
-1.1947128e-01
-1.0947963e-01
-9.9927121e-02
-9.4858993e-02
-9.4017572e-02
-9.5272962e-02
-9.5498852e-02
-9.3360084e-02
-8.9497085e-02
-8.4492613e-02
-8.0028792e-02
-7.8728171e-02
-8.3059501e-02
-8.9258360e-02
-8.7147743e-02
-7.2416782e-02
-4.6735589e-02
-1.2552112e-02
2.7550445e-02
7.2043382e-02
1.1876879e-01
1.6393849e-01
2.0269659e-01
2.2739876e-01
2.2775229e-01
1.9871113e-01
1.4670997e-01
8.6302864e-02
3.3515196e-02
-1.3551191e-03
-1.7692394e-02
-2.3624354e-02
-3.4292644e-02
-6.3441072e-02
-1.1277328e-01
-1.7159213e-01
-2.2483809e-01
-2.6153616e-01
-2.7698543e-01
-2.7058837e-01
-2.4536145e-01
-2.0641806e-01
-1.5733959e-01
-9.9530608e-02
-3.2611126e-02
4.4812034e-02
1.3217030e-01
2.2487412e-01
3.1284437e-01
3.7978930e-01
4.0583486e-01
3.7737716e-01
2.9896868e-01
1.9301198e-01
8.7332092e-02
9.3568886e-04
-6.0061230e-02
-9.6727114e-02
-1.1436850e-01
-1.2083373e-01
-1.2231724e-01
-1.2008670e-01
-1.1048127e-01
-8.9683047e-02
-5.8615009e-02
-2.5316369e-02
-3.7889540e-03
-4.3041746e-03
-2.5567579e-02
-5.7084998e-02
-8.6141651e-02
-1.0421860e-01
-1.0758854e-01
-9.5411705e-02
-6.8790390e-02
-3.1954163e-02
7.1252419e-03
3.9651891e-02
6.0220792e-02
7.0629049e-02
7.6060829e-02
7.7153291e-02
6.9741358e-02
5.0465733e-02
2.0526906e-02
-1.3030564e-02
-4.0646737e-02
-5.6370461e-02
-5.6468915e-02
-3.8319697e-02
-4.3546311e-03
3.6989896e-02
7.1899246e-02
8.8333900e-02
8.5665269e-02
7.3539157e-02
6.4285780e-02
6.5854210e-02
7.9993396e-02
1.0520224e-01
1.3727181e-01
1.6686515e-01
1.7928612e-01
1.6111173e-01
1.0897082e-01
3.3383512e-02
-4.6314444e-02
-1.1409112e-01
-1.6319174e-01
-1.9367423e-01
-2.0860058e-01
-2.1191698e-01
-2.0785249e-01
-1.9937268e-01
-1.8704551e-01
-1.6929627e-01
-1.4344775e-01
-1.0863241e-01
-6.7374001e-02
-2.4166379e-02
1.5535884e-02
4.9225442e-02
7.9164383e-02
1.0676309e-01
1.3100436e-01
1.4873252e-01
1.5244588e-01
1.3417049e-01
9.1900113e-02
3.3103243e-02
-2.6811291e-02
-7.2614202e-02
-9.5871304e-02
-9.5080354e-02
-7.3068089e-02
-3.4683778e-02
1.7018872e-02
8.1569787e-02
1.5513968e-01
2.2404777e-01
2.6425742e-01
2.5561825e-01
2.0023871e-01
1.2136106e-01
4.5277628e-02
-1.2828687e-02
-5.0199967e-02
-7.2061275e-02
-8.7381192e-02
-1.0506912e-01
-1.2995246e-01
-1.5989421e-01
-1.8771942e-01
-2.0623014e-01
-2.1103923e-01
-2.0084921e-01
-1.7639671e-01
-1.3879421e-01
-8.8688128e-02
-2.7658786e-02
4.1116582e-02
1.1170560e-01
1.7268590e-01
2.1070640e-01
2.1649284e-01
1.8870353e-01
1.3619143e-01
7.4458008e-02
1.7816237e-02
-2.5476249e-02
-5.1981069e-02
-6.1975462e-02
-5.8776272e-02
-4.5945366e-02
-2.7197075e-02
-8.3602420e-03
3.8788877e-03
5.4107016e-03
-3.2312590e-03
-1.6503244e-02
-2.8104975e-02
-3.7957657e-02
-5.1517678e-02
-7.1629641e-02
-9.4630933e-02
-1.1288376e-01
-1.1966462e-01
-1.1368214e-01
-9.7551440e-02
-7.4929113e-02
-5.0593249e-02
-2.8149467e-02
-9.8046261e-03
1.0100843e-02
4.4319997e-02
9.4859752e-02
1.5569512e-01
2.1939021e-01
2.7003047e-01
2.8737556e-01
2.5856171e-01
1.8655823e-01
9.0938737e-02
-2.9297770e-03
-7.7001818e-02
-1.2403081e-01
-1.4459655e-01
-1.4380926e-01
-1.2691040e-01
-9.7236339e-02
-5.8094772e-02
-1.3113115e-02
3.3641051e-02
7.6201662e-02
1.0654928e-01
1.1603665e-01
9.8041890e-02
5.2951243e-02
-9.0226515e-03
-7.2007884e-02
-1.2200481e-01
-1.5197666e-01
-1.6007576e-01
-1.4781856e-01
-1.2249047e-01
-9.5669285e-02
-7.7142132e-02
-6.8331628e-02
-6.0453611e-02
-4.2686670e-02
-1.0327089e-02
3.3141740e-02
7.5542264e-02
1.0400879e-01
1.1591338e-01
1.1831190e-01
1.2144010e-01
1.3176298e-01
1.4782286e-01
1.6227639e-01
1.6564654e-01
1.5244211e-01
1.2431699e-01
8.5784344e-02
4.0688872e-02
-8.2542102e-03
-5.7741385e-02
-1.0309548e-01
-1.3968949e-01
-1.6443556e-01
-1.7696636e-01
-1.7860563e-01
-1.7141368e-01
-1.5612954e-01
-1.3071732e-01
-9.3956439e-02
-4.7869691e-02
2.1519024e-03
4.8921864e-02
8.5714701e-02
1.0670110e-01
1.0898706e-01
9.4340401e-02
6.7956267e-02
3.4988640e-02
-8.5224665e-04
-3.4942400e-02
-6.1910603e-02
-7.7466200e-02
-7.9534994e-02
-6.8015280e-02
-4.3526228e-02
-7.3880771e-03
3.7062022e-02
8.1649211e-02
1.1266635e-01
1.1677561e-01
9.1344335e-02
4.7779338e-02
3.6994226e-03
-2.7675280e-02
-4.2810865e-02
-4.6159125e-02
-4.6816869e-02
-5.3959871e-02
-6.8875540e-02
-8.3364827e-02
-8.8046386e-02
-7.7238915e-02
-4.9461923e-02
-6.3631617e-03
4.9346921e-02
1.1139372e-01
1.6841723e-01
2.0598618e-01
2.1109273e-01
1.7882975e-01
1.1649591e-01
4.1541809e-02
-2.7192394e-02
-7.7247401e-02
-1.0485160e-01
-1.1154631e-01
-1.0035632e-01
-7.8522798e-02
-5.9473625e-02
-5.5967509e-02
-6.9429734e-02
-8.9762060e-02
-1.0375124e-01
-1.0208701e-01
-8.2775276e-02
-4.7521398e-02
5.2881469e-04
5.5825371e-02
1.1069657e-01
1.5453646e-01
1.7723235e-01
1.7486610e-01
1.5047134e-01
1.1017771e-01
5.9545040e-02
3.4180237e-03
-5.2935886e-02
-1.0334482e-01
-1.4122944e-01
-1.6157082e-01
-1.6323427e-01
-1.4803996e-01
-1.1949804e-01
-8.3570588e-02
-4.7824562e-02
-1.9156996e-02
2.2885177e-04
1.4585237e-02
2.9749195e-02
4.7060532e-02
6.1702118e-02
6.6430892e-02
5.8723262e-02
4.4282993e-02
3.2677065e-02
3.1103629e-02
4.1592604e-02
6.2676145e-02
8.9904527e-02
1.1428197e-01
1.2546446e-01
1.1613546e-01
8.5843994e-02
4.1836355e-02
-4.3132996e-03
-4.0326676e-02
-5.8424159e-02
-5.6783321e-02
-3.8550809e-02
-1.1617776e-02
1.3133288e-02
2.4972740e-02
2.0134194e-02
2.8150748e-03
-2.0773437e-02
-4.4902807e-02
-6.5480996e-02
-8.0311063e-02
-8.7737198e-02
-8.7408675e-02
-8.1605266e-02
-7.2470172e-02
-6.0906840e-02
-4.9745335e-02
-4.4102095e-02
-5.0236703e-02
-6.4689193e-02
-7.2260408e-02
-6.5512658e-02
-4.7351875e-02
-2.1143091e-02
1.1100427e-02
4.7549266e-02
8.6683436e-02
1.2687463e-01
1.6253494e-01
1.8360095e-01
1.7896333e-01
1.4318188e-01
8.2922586e-02
1.3322549e-02
-5.1374515e-02
-1.0282204e-01
-1.3796527e-01
-1.5700945e-01
-1.6253162e-01
-1.5704714e-01
-1.4151462e-01
-1.1722268e-01
-8.5180385e-02
-4.5264530e-02
2.2095267e-03
5.5025767e-02
1.0586487e-01
1.4204048e-01
1.5276787e-01
1.3676459e-01
1.0216657e-01
6.2739507e-02
3.2078989e-02
1.6768030e-02
1.8104838e-02
3.5825710e-02
6.6611783e-02
1.0186315e-01
1.2700697e-01
1.2817401e-01
1.0167060e-01
5.5271847e-02
1.4085181e-03
-4.9832471e-02
-9.2568783e-02
-1.2514348e-01
-1.4863683e-01
-1.6444927e-01
-1.7331678e-01
-1.7409405e-01
-1.6408169e-01
-1.4142783e-01
-1.0578678e-01
-5.9517318e-02
-1.0071217e-02
3.5213000e-02
7.5112686e-02
1.1142717e-01
1.4690992e-01
1.8258854e-01
2.1182828e-01
2.2210705e-01
2.0237479e-01
1.5182356e-01
8.3434379e-02
1.4639246e-02
-4.2276650e-02
-8.1749602e-02
-1.0393839e-01
-1.1206042e-01
-1.0912328e-01
-9.6836887e-02
-7.6764747e-02
-5.1933046e-02
-2.6585377e-02
-5.3292806e-03
7.5952706e-03
9.8911556e-03
1.6331283e-03
-1.4807002e-02
-3.4339659e-02
-5.1039858e-02
-6.0492053e-02
-6.0262232e-02
-5.0332717e-02
-3.2665098e-02
-1.0377296e-02
1.2997347e-02
3.4439907e-02
5.0999779e-02
5.9475474e-02
5.6476247e-02
4.0050613e-02
1.2513145e-02
-2.0545654e-02
-5.2496309e-02
-7.6955742e-02
-9.0042744e-02
-9.0859362e-02
-8.0431866e-02
-6.1537851e-02
-3.7260484e-02
-8.3490679e-03
2.6766951e-02
6.9278626e-02
1.1744166e-01
1.6440928e-01
1.9733622e-01
2.0187328e-01
1.7104107e-01
1.0992913e-01
3.2787084e-02
-4.4489996e-02
-1.1106059e-01
-1.6159830e-01
-1.9386452e-01
-2.0752766e-01
-2.0323062e-01
-1.8154120e-01
-1.4297482e-01
-8.8758725e-02
-2.2645358e-02
4.7080109e-02
1.0948918e-01
1.5540518e-01
1.8104861e-01
1.8831647e-01
1.8113401e-01
1.6251573e-01
1.3381629e-01
9.4511677e-02
4.5675239e-02
-6.9778016e-03
-5.5450416e-02
-9.1937012e-02
-1.1176633e-01
-1.1385583e-01
-9.8676118e-02
-6.9669865e-02
-3.5008669e-02
-6.0497873e-03
8.6823347e-03
7.9687392e-03
-2.6796091e-03
-1.4193091e-02
-1.9098434e-02
-1.3404196e-02
3.7190646e-03
2.9104549e-02
5.5840976e-02
7.5563842e-02
8.2611470e-02
7.6542531e-02
6.1558705e-02
4.3438887e-02
2.5454104e-02
8.3525787e-03
-6.8601498e-03
-1.8504981e-02
-2.4644533e-02
-2.4068318e-02
-1.7861067e-02
-7.7917757e-03
3.7318980e-03
1.1721895e-02
1.1496901e-02
9.7083956e-04
-1.8477797e-02
-4.0558906e-02
-5.7203855e-02
-6.3147442e-02
-5.7274205e-02
-4.1406205e-02
-1.9948666e-02
-4.1017301e-04
9.0680162e-03
4.1910329e-03
-1.3449723e-02
-4.0353001e-02
-6.8397285e-02
-8.4914924e-02
-8.5709985e-02
-7.2958805e-02
-4.8553385e-02
-1.5777551e-02
2.0563303e-02
5.3812578e-02
7.7885730e-02
9.0484533e-02
9.2521638e-02
8.5254089e-02
6.8844420e-02
4.3799936e-02
1.3213291e-02
-1.7435236e-02
-4.3002969e-02
-6.0434579e-02
-6.8545137e-02
-6.7272844e-02
-5.7809620e-02
-4.3124255e-02
-2.6836512e-02
-1.1674720e-02
1.7528086e-03
1.4950725e-02
2.9219310e-02
4.5111156e-02
6.2274702e-02
7.7451521e-02
8.4621524e-02
7.6803019e-02
4.9374247e-02
4.5937865e-03
-4.7439444e-02
-9.4475001e-02
-1.2797499e-01
-1.4341653e-01
-1.3989751e-01
-1.1904678e-01
-8.3373819e-02
-3.6466752e-02
1.7717161e-02
7.6168925e-02
1.3625715e-01
1.9348779e-01
2.3915057e-01
2.6038253e-01
2.4626088e-01
1.9619756e-01
1.2137564e-01
3.8286532e-02
-3.8708388e-02
-1.0083551e-01
-1.4469335e-01
-1.6986363e-01
-1.7702135e-01
-1.6830372e-01
-1.4781800e-01
-1.2095682e-01
-9.2137253e-02
-6.2929359e-02
-3.3234191e-02
-3.3116612e-03
2.4961203e-02
4.7631135e-02
6.0971350e-02
6.3423059e-02
5.6088789e-02
4.3352452e-02
2.9902278e-02
1.7589107e-02
6.4700322e-03
-3.5301336e-03
-1.1663083e-02
-1.5335022e-02
-1.2795150e-02
-6.9047790e-03
-3.8672270e-03
-9.6078656e-03
-2.4991103e-02
-4.4264563e-02
-6.0085609e-02
-6.8908502e-02
-7.3484966e-02
-7.9501853e-02
-8.7306171e-02
-9.0881654e-02
-8.4074925e-02
-6.3204319e-02
-2.7396695e-02
2.1952745e-02
8.1046965e-02
1.4183340e-01
1.9569828e-01
2.3876736e-01
2.7044792e-01
2.8816852e-01
2.8320248e-01
2.4301721e-01
1.6429719e-01
6.2049932e-02
-3.9720944e-02
-1.2208743e-01
-1.7687372e-01
-2.0378451e-01
-2.0572477e-01
-1.9000802e-01
-1.6640295e-01
-1.4077834e-01
-1.1439380e-01
-8.7297348e-02
-6.2358591e-02
-4.5665682e-02
-4.1758564e-02
-4.9659786e-02
-6.2033240e-02
-6.8386291e-02
-6.0935622e-02
-3.8033967e-02
-4.9021780e-03
2.7233956e-02
4.7328544e-02
5.4509573e-02
5.8578611e-02
7.0278276e-02
9.5830967e-02
1.3731716e-01
1.8871836e-01
2.3093062e-01
2.3983291e-01
2.0275708e-01
1.2667426e-01
3.1692728e-02
-6.1506365e-02
-1.3861258e-01
-1.9303660e-01
-2.2411154e-01
-2.3379394e-01
-2.2454229e-01
-1.9899985e-01
-1.6046346e-01
-1.1284601e-01
-5.9305767e-02
-5.7176115e-04
6.4216667e-02
1.3480273e-01
2.0671822e-01
2.6870993e-01
3.0374927e-01
2.9600503e-01
2.4160728e-01
1.5425676e-01
5.7706071e-02
-2.7375910e-02
-8.9853928e-02
-1.2750072e-01
-1.4368145e-01
-1.4424026e-01
-1.3550245e-01
-1.2213923e-01
-1.0527602e-01
-8.4005797e-02
-5.7655857e-02
-2.6257951e-02
8.2751033e-03
4.0541162e-02
6.1145821e-02
6.1733571e-02
4.2866023e-02
1.5307018e-02
-7.8995317e-03
-1.9997592e-02
-2.0595892e-02
-1.3370053e-02
-4.0242108e-03
2.2148248e-03
5.8077078e-04
-1.1198152e-02
-3.2096618e-02
-5.6779745e-02
-7.6426731e-02
-8.6873679e-02
-8.9750165e-02
-8.8443527e-02
-8.5976093e-02
-8.2268262e-02
-7.4336499e-02
-5.8851262e-02
-3.3630279e-02
1.2586781e-03
4.4540941e-02
9.4147091e-02
1.4423803e-01
1.8492571e-01
2.0527474e-01
1.9968999e-01
1.7194277e-01
1.3082010e-01
8.4808097e-02
3.9649980e-02
-1.6375267e-03
-3.7195755e-02
-6.5175236e-02
-8.3951275e-02
-9.2918710e-02
-9.3305141e-02
-8.9027912e-02
-8.5204084e-02
-8.4785354e-02
-8.6283200e-02
-8.5989481e-02
-8.1512573e-02
-7.1958594e-02
-5.7872028e-02
-4.0559658e-02
-2.0112053e-02
4.0736387e-03
3.1829432e-02
6.3295406e-02
9.8174956e-02
1.3288145e-01
1.5900687e-01
1.6359373e-01
1.3725141e-01
8.3890344e-02
1.9483254e-02
-3.7971593e-02
-7.7602505e-02
-9.6704948e-02
-9.7900238e-02
-8.6554183e-02
-6.8361002e-02
-4.7927652e-02
-2.8102057e-02
-1.0567888e-02
2.7284110e-03
9.4054702e-03
8.8645240e-03
3.1419161e-03
-3.6554584e-03
-6.9853548e-03
-4.8452694e-03
3.0522967e-03
1.6054467e-02
3.1493219e-02
4.5626394e-02
5.5542959e-02
6.1556550e-02
6.6473289e-02
7.1243806e-02
7.2185916e-02
6.2899773e-02
3.9500082e-02
4.2931102e-03
-3.4771861e-02
-6.9084174e-02
-9.3910839e-02
-1.0854029e-01
-1.1557202e-01
-1.1871628e-01
-1.1881751e-01
-1.1321008e-01
-9.8281701e-02
-7.3235012e-02
-4.2114403e-02
-1.1454547e-02
1.3399286e-02
3.2664947e-02
5.3117264e-02
8.1354075e-02
1.1922737e-01
1.6235110e-01
1.9689513e-01
2.0345780e-01
1.6943911e-01
1.0001415e-01
1.5985814e-02
-6.0248608e-02
-1.1443040e-01
-1.4200434e-01
-1.4540510e-01
-1.3023142e-01
-1.0337486e-01
-7.1206795e-02
-3.7905525e-02
-5.2518534e-03
2.5229971e-02
5.0435287e-02
6.6565371e-02
6.9761126e-02
5.7705333e-02
3.2252352e-02
-6.0517071e-04
-3.2321029e-02
-5.5647943e-02
-6.8446720e-02
-7.3431528e-02
-7.4053124e-02
-6.9152621e-02
-5.3569113e-02
-2.3367118e-02
2.0754750e-02
7.5577948e-02
1.3814050e-01
2.0077658e-01
2.4598727e-01
2.5107891e-01
2.0402526e-01
1.1678011e-01
1.7813830e-02
-6.7542655e-02
-1.2817169e-01
-1.6353653e-01
-1.7658758e-01
-1.7231787e-01
-1.5709085e-01
-1.3563823e-01
-1.0894641e-01
-7.5067324e-02
-3.2685806e-02
1.5686074e-02
6.1997741e-02
9.3469970e-02
1.0045475e-01
8.3852975e-02
5.4094070e-02
2.4747674e-02
4.8471260e-03
-3.8937076e-03
-4.9146415e-03
-4.4310986e-03
-7.0379135e-03
-1.2358280e-02
-1.7195293e-02
-1.7271208e-02
-9.4520456e-03
5.9320487e-03
2.6025421e-02
4.4670668e-02
5.4472466e-02
5.1101831e-02
3.5015089e-02
1.1865558e-02
-1.1936223e-02
-3.2846758e-02
-4.9799100e-02
-6.3118215e-02
-7.2170505e-02
-7.4585039e-02
-6.6981611e-02
-4.7386176e-02
-1.9936534e-02
3.8943645e-03
1.0736266e-02
-5.6608165e-03
-3.8901298e-02
-7.4727050e-02
-1.0055590e-01
-1.1066713e-01
-1.0343360e-01
-7.8267778e-02
-3.8061262e-02
1.3869541e-02
7.5587013e-02
1.4236123e-01
2.0501386e-01
2.4760413e-01
2.5273282e-01
2.1547386e-01
1.4754334e-01
6.9663765e-02
1.1249637e-03
-4.8317119e-02
-7.8586838e-02
-9.2709747e-02
-9.4333539e-02
-8.8053885e-02
-7.6939357e-02
-6.3233049e-02
-4.9690166e-02
-3.8778367e-02
-3.3428589e-02
-3.6241556e-02
-4.5891572e-02
-5.6991120e-02
-6.3142144e-02
-5.8734774e-02
-4.2301893e-02
-1.7941915e-02
7.1517083e-03
2.4998682e-02
3.2834644e-02
3.5463642e-02
3.9117687e-02
4.8862902e-02
6.7525821e-02
9.3670240e-02
1.2024985e-01
1.3300855e-01
1.1831279e-01
7.5294779e-02
1.7539000e-02
-3.6411884e-02
-7.4706601e-02
-9.4561094e-02
-9.8168004e-02
-8.9722012e-02
-7.5322716e-02
-6.2651544e-02
-5.6435077e-02
-5.7357744e-02
-6.3256581e-02
-6.9066811e-02
-7.0101106e-02
-6.3201750e-02
-4.6091334e-02
-1.8608325e-02
1.7357246e-02
6.0292115e-02
1.0853344e-01
1.5641955e-01
1.9358637e-01
2.0629346e-01
1.8526600e-01
1.3588705e-01
7.4675861e-02
1.8051266e-02
-2.4598177e-02
-5.2090644e-02
-6.8252984e-02
-7.8580088e-02
-8.7476798e-02
-9.5828533e-02
-1.0193803e-01
-1.0306491e-01
-9.6514579e-02
-8.2134532e-02
-6.2829325e-02
-4.3176131e-02
-2.6491251e-02
-1.2238011e-02
2.1448576e-03
1.8087606e-02
3.3552035e-02
4.3783769e-02
4.5737945e-02
3.9922912e-02
3.0201512e-02
2.2453834e-02
2.1209327e-02
2.9116282e-02
4.5960847e-02
6.6208655e-02
8.0681803e-02
7.9848298e-02
5.8656733e-02
2.1128444e-02
-2.2713797e-02
-6.3988809e-02
-9.7899555e-02
-1.2291480e-01
-1.3851684e-01
-1.4341838e-01
-1.3629928e-01
-1.1662913e-01
-8.5281036e-02
-4.4326797e-02
4.2971271e-03
5.7940917e-02
1.1206395e-01
1.6000463e-01
1.9219968e-01
1.9821242e-01
1.7222477e-01
1.1680339e-01
4.3605551e-02
-3.1572187e-02
-9.6152047e-02
-1.4230834e-01
-1.6663004e-01
-1.6956519e-01
-1.5327075e-01
-1.2022200e-01
-7.2949642e-02
-1.4121902e-02
5.2247871e-02
1.1895514e-01
1.7590867e-01
2.1142922e-01
2.1620776e-01
1.8960617e-01
1.4094192e-01
8.3768150e-02
2.8984023e-02
-1.8211047e-02
-5.7953165e-02
-9.2981430e-02
-1.2391260e-01
-1.4686104e-01
-1.5629743e-01
-1.4826484e-01
-1.2255568e-01
-8.3721830e-02
-3.9539342e-02
1.0352538e-03
3.1787156e-02
5.1801641e-02
6.2213065e-02
6.2441508e-02
5.1257935e-02
2.9988011e-02
4.3002604e-03
-1.7102185e-02
-2.7530501e-02
-2.5019978e-02
-1.1936888e-02
5.9706208e-03
2.3061442e-02
3.6971664e-02
4.8314402e-02
5.8192625e-02
6.4621527e-02
6.0360001e-02
3.7066066e-02
-6.5208482e-03
-6.0943334e-02
-1.1184932e-01
-1.4839697e-01
-1.6557451e-01
-1.6273373e-01
-1.4128467e-01
-1.0358903e-01
-5.3130147e-02
3.4276330e-03
5.3892161e-02
8.4881609e-02
8.9583625e-02
7.1772116e-02
4.0776643e-02
1.0773679e-02
-1.6355157e-03
7.7304306e-03
3.4394440e-02
7.5509742e-02
1.2777576e-01
1.8469250e-01
2.3312888e-01
2.5519600e-01
2.3757783e-01
1.7964363e-01
9.4862580e-02
3.6117387e-03
-7.7113170e-02
-1.3884867e-01
-1.8083582e-01
-2.0575409e-01
-2.1667356e-01
-2.1582564e-01
-2.0334400e-01
-1.7808431e-01
-1.3941556e-01
-8.8517149e-02
-2.9501465e-02
3.1214533e-02
8.5480483e-02
1.2409785e-01
1.3873891e-01
1.2609404e-01
9.2389410e-02
5.0591716e-02
1.2955837e-02
-1.3392975e-02
-2.7076610e-02
-3.0292031e-02
-2.5087600e-02
-1.3727226e-02
-7.1857236e-04
9.7044288e-03
1.5095814e-02
1.5369335e-02
1.3700063e-02
1.3615241e-02
1.6266953e-02
2.1792734e-02
3.0509728e-02
4.2426138e-02
5.7767992e-02
7.4985503e-02
8.8190330e-02
8.9457829e-02
7.2591007e-02
3.7689221e-02
-7.1119703e-03
-5.1375940e-02
-8.8730881e-02
-1.1774292e-01
-1.3970154e-01
-1.5617138e-01
-1.6655457e-01
-1.6835850e-01
-1.5892019e-01
-1.3713598e-01
-1.0587473e-01
-7.0385530e-02
-3.4449021e-02
1.4056341e-03
3.9452834e-02
8.0885617e-02
1.2286558e-01
1.5932003e-01
1.8293559e-01
1.9003608e-01
1.8326239e-01
1.6772910e-01
1.4768720e-01
1.2444141e-01
9.6113384e-02
6.1523711e-02
2.3047775e-02
-1.4023246e-02
-4.4168184e-02
-6.4919587e-02
-7.7905920e-02
-8.6403146e-02
-9.2682800e-02
-9.6407494e-02
-9.4522193e-02
-8.3797872e-02
-6.2997109e-02
-3.5826273e-02
-1.3528722e-02
-9.3423697e-03
-2.8492438e-02
-6.3361306e-02
-9.9022499e-02
-1.2401228e-01
-1.3362742e-01
-1.2818182e-01
-1.1204018e-01
-9.0249558e-02
-6.5163636e-02
-3.5789139e-02
1.6121560e-03
5.0953676e-02
1.1347079e-01
1.8397684e-01
2.4671715e-01
2.8138253e-01
2.7719577e-01
2.3999643e-01
1.8631089e-01
1.3175877e-01
8.5460580e-02
5.0743115e-02
2.6458435e-02
6.8328588e-03
-1.7733778e-02
-5.4571624e-02
-1.0321696e-01
-1.5557636e-01
-2.0006578e-01
-2.2750356e-01
-2.3441428e-01
-2.2262274e-01
-1.9588309e-01
-1.5828823e-01
-1.1435666e-01
-6.6724207e-02
-1.5542921e-02
3.9595046e-02
9.7777562e-02
1.5512916e-01
2.0360631e-01
2.3149404e-01
2.2827140e-01
1.9192987e-01
1.3160661e-01
6.3070642e-02
6.5739017e-04
-4.8529892e-02
-8.3813003e-02
-1.0760060e-01
-1.2378895e-01
-1.3468581e-01
-1.3916153e-01
-1.3472977e-01
-1.1913357e-01
-9.2126431e-02
-5.5487882e-02
-1.2053015e-02
3.2040956e-02
6.8431376e-02
9.0433482e-02
9.5497632e-02
8.5885910e-02
6.7685136e-02
4.7808992e-02
3.1029037e-02
2.2055661e-02
2.5309363e-02
4.3217898e-02
7.5344323e-02
1.1215972e-01
1.3304933e-01
1.1767723e-01
6.2958439e-02
-1.3572667e-02
-8.8331428e-02
-1.4500765e-01
-1.7640285e-01
-1.8192946e-01
-1.6568084e-01
-1.3391580e-01
-9.3689346e-02
-5.1958037e-02
-1.3546130e-02
1.8939303e-02
4.4228680e-02
6.1105084e-02
7.2649870e-02
8.7933534e-02
1.0977908e-01
1.3010968e-01
1.3590634e-01
1.1643043e-01
7.2182748e-02
1.4778663e-02
-4.1343759e-02
-8.4813102e-02
-1.1028008e-01
-1.1854253e-01
-1.1416507e-01
-1.0291191e-01
-8.8904667e-02
-7.2977600e-02
-5.4054946e-02
-3.1287647e-02
-4.9569104e-03
2.3243639e-02
5.1134439e-02
7.6745459e-02
9.7658533e-02
1.1133937e-01
1.1553760e-01
1.0843201e-01
9.0488516e-02
6.4531651e-02
3.3732609e-02
1.8202475e-03
-2.6517001e-02
-4.7453798e-02
-5.8430014e-02
-5.7582880e-02
-4.5395247e-02
-2.3983063e-02
3.3363024e-03
2.9315394e-02
4.5169722e-02
4.5184601e-02
2.9220445e-02
3.4281910e-03
-2.4007039e-02
-4.7438309e-02
-6.4631994e-02
-7.5481720e-02
-7.9707971e-02
-7.6018961e-02
-6.3258373e-02
-4.1873983e-02
-1.4253039e-02
1.6096297e-02
4.5682219e-02
7.1637178e-02
9.0542088e-02
9.7854265e-02
8.9382994e-02
6.3802432e-02
2.5620430e-02
-1.7035967e-02
-5.6571585e-02
-8.7117160e-02
-1.0634345e-01
-1.1394371e-01
-1.0994561e-01
-9.6065430e-02
-7.4380022e-02
-4.6895513e-02
-1.6154345e-02
1.5629651e-02
4.5506100e-02
6.9864918e-02
8.5878482e-02
9.1512498e-02
8.6620862e-02
7.2607287e-02
5.1540523e-02
2.6262697e-02
-1.7854068e-04
-2.3465486e-02
-3.8001718e-02
-3.8870082e-02
-2.3856008e-02
5.9340576e-03
4.5230320e-02
8.2336540e-02
1.0386444e-01
1.0253121e-01
7.9477423e-02
4.3243790e-02
4.1896636e-03
-3.1296267e-02
-6.0991470e-02
-8.4947579e-02
-1.0290199e-01
-1.1265469e-01
-1.1237668e-01
-1.0275646e-01
-8.6595626e-02
-6.8630036e-02
-5.2405129e-02
-3.6349599e-02
-1.6521461e-02
9.8209303e-03
4.3061697e-02
8.0877004e-02
1.1942136e-01
1.5320768e-01
1.7374691e-01
1.7055305e-01
1.3794480e-01
8.0289886e-02
9.2594828e-03
-6.0968954e-02
-1.1892835e-01
-1.5923140e-01
-1.8122393e-01
-1.8672811e-01
-1.7775413e-01
-1.5440537e-01
-1.1522616e-01
-5.9499069e-02
1.1336764e-02
9.3947388e-02
1.8014788e-01
2.5170753e-01
2.8493680e-01
2.6607965e-01
2.0273018e-01
1.1929723e-01
4.0411639e-02
-2.0687666e-02
-6.1664079e-02
-8.5865269e-02
-9.8255440e-02
-1.0173584e-01
-9.6132255e-02
-8.1668446e-02
-6.1010945e-02
-3.9937466e-02
-2.5774821e-02
-2.2093889e-02
-2.6748780e-02
-3.5143039e-02
-4.3804768e-02
-5.0614895e-02
-5.3682184e-02
-5.1991282e-02
-4.5030052e-02
-3.2497591e-02
-1.5903400e-02
2.9012607e-03
2.3797839e-02
4.7210995e-02
7.2096561e-02
9.4440923e-02
1.0670988e-01
1.0044728e-01
7.2891215e-02
2.9685324e-02
-1.8432767e-02
-6.0387387e-02
-8.9526804e-02
-1.0355992e-01
-1.0298135e-01
-9.0904243e-02
-7.1663852e-02
-4.9810304e-02
-2.8069994e-02
-5.4607936e-03
2.2023082e-02
5.7856987e-02
9.9949580e-02
1.3957271e-01
1.6383923e-01
1.6059482e-01
1.2771818e-01
7.5546458e-02
1.8616994e-02
-3.0817057e-02
-6.7394788e-02
-9.1626598e-02
-1.0389988e-01
-1.0597632e-01
-1.0260634e-01
-9.8381741e-02
-9.4394060e-02
-8.7900113e-02
-7.5938096e-02
-5.6406799e-02
-2.8783075e-02
3.9532779e-03
3.4542869e-02
5.2823102e-02
5.2547291e-02
3.5270714e-02
7.7898118e-03
-2.0671984e-02
-4.2072886e-02
-5.3158949e-02
-5.4714634e-02
-4.8172649e-02
-3.4913719e-02
-1.4949966e-02
1.3131243e-02
4.9948001e-02
9.5366686e-02
1.4477104e-01
1.8416449e-01
1.9481171e-01
1.6670502e-01
1.0689821e-01
3.3938863e-02
-3.3407001e-02
-8.4127824e-02
-1.1566264e-01
-1.3122012e-01
-1.3675000e-01
-1.3502631e-01
-1.2408816e-01
-1.0054503e-01
-6.1398957e-02
-6.5128151e-03
6.0919439e-02
1.3362092e-01
1.9735720e-01
2.3603137e-01
2.4060693e-01
2.1237114e-01
1.6098467e-01
9.8526423e-02
3.4296414e-02
-2.5607220e-02
-7.6525033e-02
-1.1538720e-01
-1.4057333e-01
-1.5134698e-01
-1.4922391e-01
-1.3825519e-01
-1.2516730e-01
-1.1654689e-01
-1.1336674e-01
-1.1126245e-01
-1.0501973e-01
-9.2148287e-02
-7.2932106e-02
-4.8182221e-02
-1.8374418e-02
1.6268157e-02
5.4710056e-02
9.3916587e-02
1.3011686e-01
1.6000302e-01
1.7995363e-01
1.8523913e-01
1.7104697e-01
1.3514122e-01
8.1026142e-02
1.8474481e-02
-4.1877101e-02
-9.2044418e-02
-1.2661696e-01
-1.4403567e-01
-1.4509083e-01
-1.3154422e-01
-1.0702397e-01
-7.6934335e-02
-4.7126172e-02
-2.0592724e-02
3.6907794e-03
2.8148246e-02
5.3698819e-02
7.7220178e-02
9.2270639e-02
9.3452762e-02
7.9176678e-02
5.3621475e-02
2.5509493e-02
2.7007547e-03
-8.7220811e-03
-4.6908110e-03
1.5485708e-02
4.8442486e-02
8.3746798e-02
1.0607074e-01
1.0362137e-01
7.4965996e-02
2.8978243e-02
-2.1617338e-02
-6.6458567e-02
-9.9839136e-02
-1.2037991e-01
-1.2984976e-01
-1.3080060e-01
-1.2446976e-01
-1.1032965e-01
-8.7321210e-02
-5.6393017e-02
-2.1652568e-02
1.0795934e-02
3.5273541e-02
4.8644780e-02
5.1071081e-02
4.5585617e-02
3.7328768e-02
3.1917489e-02
3.2849571e-02
4.0074859e-02
4.8932952e-02
5.1742955e-02
4.2848089e-02
2.1162901e-02
-9.2424416e-03
-4.0455271e-02
-6.5421639e-02
-8.0453062e-02
-8.5396186e-02
-8.3345611e-02
-7.7037972e-02
-6.5919021e-02
-4.7098921e-02
-1.7367479e-02
2.3654134e-02
6.9643633e-02
1.0753228e-01
1.2461955e-01
1.1807713e-01
9.6046969e-02
6.9715273e-02
4.7687161e-02
3.4644279e-02
2.9505957e-02
2.5174998e-02
1.4174803e-02
-3.6424451e-03
-2.1243898e-02
-3.0788125e-02
-2.7748930e-02
-1.3170265e-02
5.5142221e-03
1.7665701e-02
1.5262809e-02
-7.1728769e-04
-2.1074545e-02
-3.7283774e-02
-4.5052525e-02
-4.3529908e-02
-3.6308951e-02
-2.9690852e-02
-2.7985792e-02
-3.0523661e-02
-3.3069829e-02
-3.1557621e-02
-2.4987929e-02
-1.4690128e-02
-1.5843813e-03
1.1876195e-02
1.8385933e-02
1.0215942e-02
-1.4127816e-02
-4.3853749e-02
-6.2326598e-02
-6.4251232e-02
-5.2838432e-02
-3.1806251e-02
-6.0614640e-03
2.0146489e-02
4.3316547e-02
6.0577795e-02
7.1607901e-02
7.8759791e-02
8.5587883e-02
9.4508594e-02
1.0453624e-01
1.1209855e-01
1.1345979e-01
1.0668427e-01
9.1996434e-02
7.0292538e-02
4.3022249e-02
1.2711737e-02
-1.7211093e-02
-4.3534096e-02
-6.5135799e-02
-8.2652334e-02
-9.7295893e-02
-1.0985275e-01
-1.1988198e-01
-1.2583581e-01
-1.2586586e-01
-1.1926785e-01
-1.0694695e-01
-9.1426233e-02
-7.5668536e-02
-6.1262317e-02
-4.8518186e-02
-3.6993179e-02
-2.6037052e-02
-1.4950626e-02
-2.5035827e-03
1.2128291e-02
2.7784384e-02
4.1589319e-02
4.9618037e-02
5.0377298e-02
4.8503978e-02
5.0987101e-02
6.2850040e-02
8.6109102e-02
1.1965311e-01
1.5906125e-01
1.9502769e-01
2.1465482e-01
2.0690046e-01
1.6869797e-01
1.0664767e-01
3.3015254e-02
-3.9388216e-02
-1.0067287e-01
-1.4492892e-01
-1.7030855e-01
-1.7909333e-01
-1.7610921e-01
-1.6549835e-01
-1.4849068e-01
-1.2398603e-01
-9.1249433e-02
-5.2001023e-02
-1.1347470e-02
2.2757979e-02
4.3850719e-02
5.0546511e-02
4.6309432e-02
3.7048853e-02
2.7460400e-02
1.8912244e-02
9.9281071e-03
-1.1929795e-03
-1.3726624e-02
-2.3837612e-02
-2.6932805e-02
-2.0414398e-02
-4.4754111e-03
1.6705415e-02
3.7043022e-02
5.2393658e-02
6.1149668e-02
6.4554565e-02
6.4869293e-02
6.3382355e-02
6.1408022e-02
5.9960624e-02
5.8766337e-02
5.5932152e-02
4.7801749e-02
2.9818637e-02
8.1336956e-04
-3.4100572e-02
-6.7413102e-02
-9.2311352e-02
-1.0450882e-01
-1.0351950e-01
-9.1424182e-02
-7.3529720e-02
-5.6964270e-02
-4.5665705e-02
-3.7810332e-02
-2.8334654e-02
-1.3205217e-02
9.0737824e-03
3.7455660e-02
6.9686772e-02
1.0231682e-01
1.2890662e-01
1.4178845e-01
1.3472094e-01
1.0573420e-01
5.9940511e-02
8.0411189e-03
-3.8514543e-02
-7.2177837e-02
-8.9984865e-02
-9.2775255e-02
-8.5290056e-02
-7.4026028e-02
-6.4139028e-02
-5.7347355e-02
-5.1436916e-02
-4.3340307e-02
-3.1518546e-02
-1.6408860e-02
-1.9911021e-03
5.9989926e-03
4.2403148e-03
-5.7549902e-03
-1.8261116e-02
-2.6807561e-02
-2.6853880e-02
-1.7083403e-02
1.4214898e-03
2.5821593e-02
5.0418630e-02
6.8758620e-02
7.6947110e-02
7.5814654e-02
7.0623202e-02
6.6469402e-02
6.5323858e-02
6.5694403e-02
6.2923830e-02
5.2585491e-02
3.3676865e-02
9.2229163e-03
-1.4547357e-02
-3.1843161e-02
-3.9806179e-02
-3.8556212e-02
-3.1153312e-02
-2.2383243e-02
-1.7221115e-02
-1.9251208e-02
-2.9508903e-02
-4.6376163e-02
-6.7379834e-02
-9.0948293e-02
-1.1499165e-01
-1.3619835e-01
-1.5101075e-01
-1.5515294e-01
-1.4491862e-01
-1.1951852e-01
-7.9133301e-02
-2.3585188e-02
4.6113315e-02
1.2317331e-01
1.8905835e-01
2.2212481e-01
2.1460409e-01
1.7663571e-01
1.2555242e-01
7.6122121e-02
3.8040814e-02
1.4135368e-02
4.3389207e-03
8.3484054e-03
2.4257770e-02
4.7184049e-02
6.5775231e-02
6.7107783e-02
4.7660831e-02
1.5809002e-02
-1.5178299e-02
-3.5834228e-02
-4.3834354e-02
-4.1907217e-02
-3.5567828e-02
-3.1362076e-02
-3.3637356e-02
-4.2201242e-02
-5.4368844e-02
-6.7583949e-02
-7.9326089e-02
-8.7737388e-02
-9.2237523e-02
-9.1881257e-02
-8.5200058e-02
-7.1484509e-02
-5.0063546e-02
-2.1139419e-02
1.2226119e-02
4.4967330e-02
7.0759135e-02
8.4242276e-02
8.4712175e-02
7.5647160e-02
6.0785619e-02
4.2096838e-02
2.1003950e-02
-5.6022090e-04
-1.9546182e-02
-3.2296400e-02
-3.5963049e-02
-2.9673253e-02
-1.4729077e-02
4.8406507e-03
2.1171508e-02
2.6955278e-02
2.0359279e-02
4.7891656e-03
-1.2607961e-02
-2.4882442e-02
-2.9828248e-02
-2.9998088e-02
-2.9815281e-02
-3.1093226e-02
-3.0501615e-02
-2.3012597e-02
-6.0628878e-03
1.9403229e-02
5.0680371e-02
8.4243804e-02
1.1471413e-01
1.3437287e-01
1.3240107e-01
1.0111658e-01
4.6509014e-02
-1.3338012e-02
-6.0686358e-02
-8.6945363e-02
-9.1502875e-02
-7.7545659e-02
-5.0437637e-02
-1.8475399e-02
7.3383571e-03
1.9382916e-02
1.7759145e-02
7.7267912e-03
-3.8711961e-03
-1.2395601e-02
-1.7494041e-02
-2.1091041e-02
-2.4871600e-02
-2.9170697e-02
-3.2393141e-02
-3.2091411e-02
-2.6795661e-02
-1.7230530e-02
-6.6586544e-03
8.9678308e-04
3.3754019e-03
2.4735472e-03
1.6254526e-03
2.6881119e-03
5.3994486e-03
8.1444143e-03
1.0121228e-02
1.2407049e-02
1.6612231e-02
2.3856853e-02
3.4218853e-02
4.5549707e-02
5.2981664e-02
5.1123754e-02
3.6582980e-02
1.0630054e-02
-1.9921459e-02
-4.6819205e-02
-6.3846873e-02
-6.8239659e-02
-6.0635861e-02
-4.3773231e-02
-2.2324203e-02
-1.5512962e-03
1.4190717e-02
2.2825969e-02
2.5925625e-02
2.6703626e-02
2.7463191e-02
2.8348019e-02
2.6711235e-02
1.8550443e-02
1.3064291e-03
-2.3510370e-02
-5.0632369e-02
-7.4249089e-02
-9.0107209e-02
-9.6149740e-02
-9.2317425e-02
-7.9107881e-02
-5.6640689e-02
-2.5699027e-02
1.2094005e-02
5.4573545e-02
9.7044303e-02
1.3287424e-01
1.5618648e-01
1.6251601e-01
1.4992880e-01
1.2041319e-01
7.8991658e-02
3.2120020e-02
-1.2789418e-02
-4.9714517e-02
-7.5477295e-02
-8.9213891e-02
-9.3661832e-02
-9.3520237e-02
-9.2096056e-02
-8.9540677e-02
-8.2614398e-02
-6.7969842e-02
-4.5389332e-02
-1.8553905e-02
7.1779132e-03
2.8566916e-02
4.6141136e-02
6.3486066e-02
8.4406142e-02
1.0973822e-01
1.3587144e-01
1.5478790e-01
1.5657188e-01
1.3552908e-01
9.4603044e-02
4.3802705e-02
-4.9920080e-03
-4.3817404e-02
-7.0853507e-02
-8.8248287e-02
-9.8204438e-02
-1.0069721e-01
-9.4370371e-02
-7.8744228e-02
-5.5576092e-02
-2.9756068e-02
-8.5521572e-03
2.0029347e-03
-3.0588222e-04
-1.2965855e-02
-3.2619343e-02
-5.4395533e-02
-6.9298878e-02
-7.3054087e-02
-6.7698565e-02
-5.7327201e-02
-4.7236159e-02
-4.0793399e-02
-3.8712869e-02
-3.9502013e-02
-3.9564351e-02
-3.5949509e-02
-2.8702896e-02
-2.1002999e-02
-1.6453960e-02
-1.4816443e-02
-1.2159836e-02
-4.5859255e-03
8.8703423e-03
2.5593195e-02
4.1885151e-02
5.5623646e-02
6.7014559e-02
7.8408367e-02
9.2671827e-02
1.1074508e-01
1.3010872e-01
1.4425824e-01
1.4333782e-01
1.2082270e-01
8.0828181e-02
3.6004101e-02
-3.6615225e-04
-2.0840494e-02
-2.3536640e-02
-1.1011623e-02
6.5348695e-03
1.3755839e-02
-3.0267534e-04
-3.3048389e-02
-6.9997630e-02
-9.7870592e-02
-1.1086848e-01
-1.0883220e-01
-9.4806992e-02
-7.3293021e-02
-5.0248545e-02
-3.0394386e-02
-1.5738674e-02
-6.0207125e-03
9.9517190e-04
6.7201511e-03
1.1967040e-02
1.7735630e-02
2.4801330e-02
3.4099185e-02
4.3592703e-02
4.7293460e-02
3.9388233e-02
1.9807248e-02
-3.3384107e-03
-1.8850951e-02
-1.8994606e-02
-2.1391495e-03
2.8609836e-02
6.5192374e-02
9.3137807e-02
9.9039899e-02
7.8734696e-02
3.7264720e-02
-1.3656583e-02
-6.0665000e-02
-9.4701196e-02
-1.1182076e-01
-1.1153637e-01
-9.6260070e-02
-6.8918267e-02
-3.1649202e-02
1.2728704e-02
5.9905750e-02
1.0230706e-01
1.2884998e-01
1.3007578e-01
1.0403764e-01
5.7483602e-02
2.8450374e-03
-4.6956164e-02
-8.3395948e-02
-1.0296146e-01
-1.0610441e-01
-9.6872753e-02
-8.1018925e-02
-6.3388590e-02
-4.6199308e-02
-2.9307926e-02
-1.1670594e-02
6.4903447e-03
2.1455251e-02
2.7463908e-02
2.2615202e-02
1.1329197e-02
1.5554291e-03
1.0810667e-03
1.2669052e-02
3.4683153e-02
6.3809142e-02
9.2943279e-02
1.1269134e-01
1.1587937e-01
1.0087227e-01
7.3218247e-02
4.1591697e-02
1.2201280e-02
-1.1551076e-02
-2.8322138e-02
-3.9301519e-02
-4.5508332e-02
-4.6287735e-02
-4.1401314e-02
-3.2989371e-02
-2.7540462e-02
-3.3412796e-02
-5.3969377e-02
-8.4010134e-02
-1.1398588e-01
-1.3658093e-01
-1.4867333e-01
-1.4975809e-01
-1.3959325e-01
-1.1739515e-01
-8.2310997e-02
-3.5238021e-02
2.1274699e-02
8.2949128e-02
1.4093365e-01
1.8547333e-01
2.1170877e-01
2.1774772e-01
2.0201151e-01
1.6512522e-01
1.1140127e-01
4.8652441e-02
-1.3783758e-02
-6.8562426e-02
-1.1056379e-01
-1.3636395e-01
-1.4490038e-01
-1.3618129e-01
-1.1074897e-01
-7.0680181e-02
-1.9346100e-02
3.7928653e-02
9.1340575e-02
1.3022677e-01
1.4945537e-01
1.5035660e-01
1.3880688e-01
1.2048735e-01
9.6291860e-02
6.4327126e-02
2.6106068e-02
-1.2632691e-02
-4.4882715e-02
-6.5326723e-02
-7.4933747e-02
-8.1972225e-02
-9.6505150e-02
-1.2130380e-01
-1.4939867e-01
-1.7049336e-01
-1.7691242e-01
-1.6618756e-01
-1.3885339e-01
-9.6488702e-02
-4.2080285e-02
1.8444853e-02
7.3200944e-02
1.0861524e-01
1.1711714e-01
1.0066801e-01
6.7011005e-02
2.9709202e-02
5.6111994e-03
-1.0806899e-03
3.4767466e-03
1.5165194e-02
3.4070224e-02
6.3006915e-02
1.0167270e-01
1.3931266e-01
1.5484253e-01
1.3162964e-01
7.2358866e-02
-2.4118445e-03
-6.8971279e-02
-1.1369828e-01
-1.3287594e-01
-1.2905089e-01
-1.0926564e-01
-8.1140370e-02
-5.0498105e-02
-1.9843742e-02
1.1657969e-02
4.4398880e-02
7.5629291e-02
1.0124234e-01
1.1801957e-01
1.2486079e-01
1.2222953e-01
1.0902394e-01
8.2552948e-02
4.2089220e-02
-8.2600199e-03
-5.8323861e-02
-9.6527851e-02
-1.1720644e-01
-1.2011578e-01
-1.0754863e-01
-8.3934866e-02
-5.5349938e-02
-3.0540707e-02
-1.7625633e-02
-1.8381168e-02
-2.8531870e-02
-4.1737352e-02
-5.2913720e-02
-5.9192888e-02
-5.9783387e-02
-5.4794608e-02
-4.4705540e-02
-3.0298515e-02
-1.2020492e-02
8.4626424e-03
2.8373311e-02
4.6018039e-02
6.1464110e-02
7.8212903e-02
1.0095648e-01
1.2865645e-01
1.5293709e-01
1.6243490e-01
1.4864231e-01
1.1102831e-01
5.7761647e-02
-1.3106120e-04
-5.3589824e-02
-9.5873522e-02
-1.2288376e-01
-1.3261221e-01
-1.2538833e-01
-1.0434034e-01
-7.4495862e-02
-4.2018225e-02
-1.0917414e-02
1.8972114e-02
4.9414996e-02
7.9915244e-02
1.0399449e-01
1.1038298e-01
9.1814362e-02
5.1636347e-02
2.7565821e-03
-3.8961773e-02
-6.3696350e-02
-6.9515621e-02
-5.9730287e-02
-4.1700135e-02
-2.4735250e-02
-1.7549785e-02
-2.4744873e-02
-4.3590185e-02
-6.4603703e-02
-7.7695068e-02
-7.7602537e-02
-6.4332652e-02
-4.3372977e-02
-2.2956651e-02
-6.8244702e-03
7.5458103e-03
2.4429645e-02
4.8988901e-02
8.6615474e-02
1.3835974e-01
1.9299781e-01
2.2194073e-01
1.9805443e-01
1.2227854e-01
2.2288833e-02
-6.9875164e-02
-1.3573964e-01
-1.7181544e-01
-1.8186288e-01
-1.7205518e-01
-1.4996176e-01
-1.2346715e-01
-9.8700485e-02
-7.8444881e-02
-6.0698783e-02
-3.9650732e-02
-1.0047477e-02
3.0727932e-02
7.9249310e-02
1.2245333e-01
1.4453282e-01
1.3916808e-01
1.1539353e-01
9.0168128e-02
7.6343685e-02
8.0038820e-02
1.0021176e-01
1.2662435e-01
1.4301131e-01
1.3478958e-01
9.8965609e-02
4.7028147e-02
-5.3681446e-03
-4.8475418e-02
-7.9879350e-02
-1.0186419e-01
-1.1835005e-01
-1.3465760e-01
-1.5591340e-01
-1.8166165e-01
-2.0485102e-01
-2.1684484e-01
-2.1218288e-01
-1.8951700e-01
-1.5043048e-01
-9.8686259e-02
-4.0736925e-02
1.5524707e-02
6.4833721e-02
1.0724347e-01
1.4666611e-01
1.8615031e-01
2.2264985e-01
2.4350674e-01
2.3278117e-01
1.8590765e-01
1.1584712e-01
4.4502315e-02
-1.0949297e-02
-4.4440141e-02
-5.7715963e-02
-5.5044609e-02
-4.2173432e-02
-2.7012499e-02
-1.9418313e-02
-2.8249834e-02
-5.3407985e-02
-8.3048616e-02
-1.0183783e-01
-9.9931804e-02
-7.5313810e-02
-2.9389612e-02
3.4341447e-02
1.0311397e-01
1.5435192e-01
1.6859753e-01
1.4310548e-01
9.0933147e-02
2.9873073e-02
-2.6748282e-02
-7.3327912e-02
-1.0801278e-01
-1.3013014e-01
-1.3914770e-01
-1.3474934e-01
-1.1977342e-01
-1.0069307e-01
-8.4622790e-02
-7.4268639e-02
-6.6442652e-02
-5.6488675e-02
-4.1771087e-02
-2.1506208e-02
4.2897917e-03
3.6325344e-02
7.5050148e-02
1.1764393e-01
1.5799022e-01
1.8733974e-01
1.9642297e-01
1.8179590e-01
1.4890730e-01
1.0856024e-01
7.1802235e-02
4.5940692e-02
3.2000197e-02
2.3860471e-02
1.1509269e-02
-1.0963606e-02
-4.1774566e-02
-7.5278451e-02
-1.0558176e-01
-1.2924503e-01
-1.4632830e-01
-1.5783759e-01
-1.6307846e-01
-1.5962259e-01
-1.4554647e-01
-1.2103112e-01
-8.8259244e-02
-5.0745872e-02
-1.1162138e-02
3.0438523e-02
7.4936235e-02
1.2123116e-01
1.6416421e-01
1.9365085e-01
1.9823678e-01
1.7253303e-01
1.2068027e-01
5.4341532e-02
-1.1880373e-02
-6.6268327e-02
-1.0265119e-01
-1.1980749e-01
-1.1998915e-01
-1.0721430e-01
-8.5245953e-02
-5.7372265e-02
-2.7764804e-02
-6.6635012e-05
2.3224957e-02
4.1208776e-02
5.5245834e-02
6.6495133e-02
7.4937679e-02
7.9201789e-02
7.6682084e-02
6.6139980e-02
4.8235255e-02
2.4435824e-02
-2.9630983e-03
-3.1602909e-02
-5.9082042e-02
-8.1660888e-02
-9.5582921e-02
-9.9319152e-02
-9.2671189e-02
-7.7023849e-02
-5.6165785e-02
-3.4908420e-02
-1.8358616e-02
-8.5933589e-03
-2.9659600e-03
2.3131835e-03
1.0155322e-02
2.2027209e-02
3.8620225e-02
6.0629579e-02
8.6817734e-02
1.1118342e-01
1.2368271e-01
1.1598689e-01
8.6553995e-02
4.3036434e-02
-1.7360142e-03
-3.7780757e-02
-5.9710889e-02
-6.6266068e-02
-5.8511730e-02
-3.9392411e-02
-1.7138833e-02
-3.4802107e-03
-7.2212266e-03
-2.7869534e-02
-5.6169101e-02
-8.1461655e-02
-9.6689822e-02
-9.9636605e-02
-9.1554167e-02
-7.5729326e-02
-5.6494747e-02
-3.6982280e-02
-1.7330163e-02
5.2475767e-03
3.4181716e-02
7.0827732e-02
1.1359616e-01
1.5659984e-01
1.8870382e-01
1.9733749e-01
1.7441564e-01
1.2153202e-01
5.1530558e-02
-1.6795408e-02
-6.8174752e-02
-9.6494800e-02
-1.0244410e-01
-9.0221590e-02
-6.6068810e-02
-3.8471402e-02
-1.8238184e-02
-1.2239860e-02
-1.9598636e-02
-3.4812972e-02
-5.0786492e-02
-6.1196060e-02
-6.1274851e-02
-4.8251700e-02
-2.2473615e-02
1.2910827e-02
5.3056632e-02
9.0893633e-02
1.1685821e-01
1.2327342e-01
1.0843979e-01
7.6587525e-02
3.6913227e-02
-3.9131239e-04
-2.9417189e-02
-4.9189803e-02
-6.1522890e-02
-6.8612216e-02
-7.1109614e-02
-6.8342619e-02
-5.9577666e-02
-4.4597886e-02
-2.3502487e-02
3.2067563e-03
3.4260910e-02
6.7427884e-02
9.8300105e-02
1.2023420e-01
1.2638487e-01
1.1235632e-01
7.8908783e-02
3.3828051e-02
-9.2920546e-03
-3.8431603e-02
-4.9567879e-02
-4.5724101e-02
-3.4151404e-02
-2.3748555e-02
-2.0061206e-02
-2.3084362e-02
-3.1901432e-02
-4.6878123e-02
-6.8587245e-02
-9.3359295e-02
-1.1221227e-01
-1.2019524e-01
-1.1838404e-01
-1.1007240e-01
-9.8465575e-02
-8.3527467e-02
-6.3032064e-02
-3.6454401e-02
-6.3894617e-03
2.3059684e-02
4.8631602e-02
6.8517361e-02
8.1936609e-02
8.9343421e-02
9.0299541e-02
8.3165393e-02
6.7570909e-02
4.5736001e-02
2.4143093e-02
1.0465161e-02
9.4720240e-03
2.3186939e-02
4.8154773e-02
7.1789829e-02
7.6573049e-02
5.2966369e-02
7.3688845e-03
-4.3111714e-02
-8.1296718e-02
-9.7867067e-02
-9.2457450e-02
-7.2075829e-02
-4.8761902e-02
-3.2990031e-02
-2.6975954e-02
-2.3865819e-02
-1.3749725e-02
9.5360046e-03
4.7510736e-02
9.5011692e-02
1.3579788e-01
1.4707267e-01
1.1235696e-01
3.5781735e-02
-5.6088134e-02
-1.3278514e-01
-1.7747468e-01
-1.8715730e-01
-1.6690318e-01
-1.2582925e-01
-7.1680456e-02
-8.0431779e-03
6.4338710e-02
1.4303658e-01
2.1656782e-01
2.6394560e-01
2.6578870e-01
2.1895378e-01
1.4021275e-01
5.5330483e-02
-1.4953102e-02
-6.2531620e-02
-8.8128529e-02
-9.5959610e-02
-9.4307713e-02
-9.3896107e-02
-1.0303622e-01
-1.2237958e-01
-1.4469113e-01
-1.6078935e-01
-1.6427435e-01
-1.5279667e-01
-1.2563930e-01
-8.2394314e-02
-2.4076174e-02
4.4269932e-02
1.0920674e-01
1.5354082e-01
1.6724943e-01
1.5297645e-01
1.2439933e-01
9.7166568e-02
7.9012150e-02
6.7482989e-02
5.3846205e-02
3.0167819e-02
-3.2023693e-03
-3.6038705e-02
-5.5464237e-02
-5.5167156e-02
-3.5211669e-02
2.7864496e-03
5.6429532e-02
1.1888256e-01
1.7314903e-01
1.9598190e-01
1.7178768e-01
1.0450806e-01
1.5531270e-02
-7.0590147e-02
-1.3736349e-01
-1.7979284e-01
-2.0030985e-01
-2.0378686e-01
-1.9554361e-01
-1.7945653e-01
-1.5842831e-01
-1.3455267e-01
-1.0739081e-01
-7.4276191e-02
-3.2561669e-02
1.8182760e-02
7.4057785e-02
1.2718875e-01
1.6904505e-01
1.9103868e-01
1.8568765e-01
1.5355473e-01
1.0601670e-01
5.8889767e-02
2.5427904e-02
1.1572154e-02
1.4135061e-02
2.2290482e-02
2.0735632e-02
-1.1222078e-03
-4.0550121e-02
-8.4707422e-02
-1.2048030e-01
-1.4089489e-01
-1.4542194e-01
-1.3857040e-01
-1.2621301e-01
-1.1098819e-01
-9.2227036e-02
-6.6190066e-02
-2.8114105e-02
2.2914111e-02
8.4342571e-02
1.5077146e-01
2.1145834e-01
2.5139811e-01
2.5648015e-01
2.2137798e-01
1.5490296e-01
7.4854121e-02
-3.3892213e-03
-7.2044375e-02
-1.2872068e-01
-1.7270980e-01
-2.0304259e-01
-2.1886273e-01
-2.1920235e-01
-2.0323085e-01
-1.7139535e-01
-1.2608221e-01
-7.1704292e-02
-1.3240908e-02
4.5651560e-02
1.0490886e-01
1.6654815e-01
2.3014031e-01
2.9188651e-01
3.4234959e-01
3.6546994e-01
3.4670088e-01
2.8288460e-01
1.8602661e-01
7.7857754e-02
-2.1296003e-02
-9.9849912e-02
-1.5562959e-01
-1.9149204e-01
-2.1201265e-01
-2.2268476e-01
-2.2814028e-01
-2.3173540e-01
-2.3628404e-01
-2.4520511e-01
-2.5572892e-01
-2.5663246e-01
-2.4125331e-01
-2.0938360e-01
-1.6320169e-01
-1.0699084e-01
-4.5615170e-02
1.4458419e-02
6.7907290e-02
1.1404717e-01
1.5505651e-01
1.9415181e-01
2.3380284e-01
2.7171109e-01
2.9856905e-01
3.0158486e-01
2.7256797e-01
2.1486932e-01
1.4226301e-01
7.0398512e-02
9.1681367e-03
-3.8396873e-02
-7.2820579e-02
-9.6202315e-02
-1.1172566e-01
-1.2274682e-01
-1.3196783e-01
-1.4117148e-01
-1.5011717e-01
-1.5611042e-01
-1.5570201e-01
-1.4655314e-01
-1.2803529e-01
-1.0029089e-01
-6.5034704e-02
-2.4860584e-02
1.8324253e-02
6.2328588e-02
1.0530793e-01
1.4475824e-01
1.7599331e-01
1.9286852e-01
1.8947674e-01
1.6366373e-01
1.2078492e-01
7.2700236e-02
3.0829725e-02
3.4635363e-03
-5.3393795e-03
4.3519821e-04
8.8043787e-03
4.0203406e-03
-2.2135585e-02
-6.1042672e-02
-9.4502826e-02
-1.0869143e-01
-9.9693783e-02
-7.0918720e-02
-2.9128389e-02
1.8159276e-02
6.3789389e-02
1.0034259e-01
1.2002730e-01
1.1509350e-01
8.1156772e-02
2.3278997e-02
-4.4487340e-02
-1.0718252e-01
-1.5490689e-01
-1.8261720e-01
-1.8972102e-01
-1.7967711e-01
-1.5742809e-01
-1.2737249e-01
-9.2741218e-02
-5.4971471e-02
-1.3756940e-02
3.2321970e-02
8.3955794e-02
1.3598857e-01
1.7614402e-01
1.9085303e-01
1.7412000e-01
1.3153815e-01
7.6550128e-02
2.4595976e-02
-1.3595895e-02
-3.4181755e-02
-3.8035874e-02
-2.7837997e-02
-5.6661780e-03
2.4995599e-02
5.5205421e-02
7.2059816e-02
6.8433089e-02
4.8029885e-02
2.0063130e-02
-7.0101458e-03
-2.9964970e-02
-5.0812370e-02
-7.1409156e-02
-9.0924551e-02
-1.0631666e-01
-1.1250698e-01
-1.0575397e-01
-8.6157685e-02
-5.8165676e-02
-3.2135659e-02
-1.7765403e-02
-1.4458066e-02
-1.3687898e-02
-6.7488289e-03
1.1479688e-02
4.2252200e-02
8.1812079e-02
1.1956812e-01
1.4176080e-01
1.3988326e-01
1.1658923e-01
8.2449473e-02
4.7525621e-02
1.6438772e-02
-1.1043435e-02
-3.6482748e-02
-5.8880175e-02
-7.4119280e-02
-7.8715854e-02
-7.1728597e-02
-5.5502570e-02
-3.5646680e-02
-1.8689782e-02
-1.0278052e-02
-1.1377729e-02
-1.6632577e-02
-1.9543081e-02
-1.7633954e-02
-1.3220131e-02
-1.0835058e-02
-1.2067764e-02
-1.2434635e-02
-5.6377433e-03
1.2649014e-02
4.3423849e-02
7.9062612e-02
1.0192148e-01
9.5190827e-02
5.8363938e-02
8.0993015e-03
-3.7199253e-02
-6.7039967e-02
-7.8961632e-02
-7.8598023e-02
-7.5362070e-02
-7.4695769e-02
-7.4263658e-02
-6.6525748e-02
-4.5824802e-02
-1.1180284e-02
3.4525738e-02
8.3279309e-02
1.2333098e-01
1.4380797e-01
1.4026139e-01
1.1626023e-01
7.8275657e-02
3.3375311e-02
-1.0901005e-02
-4.8981840e-02
-7.6677706e-02
-9.0611474e-02
-8.9229298e-02
-7.1730728e-02
-3.8947342e-02
5.9787401e-03
5.5891546e-02
9.5911886e-02
1.1142348e-01
9.9650700e-02
6.8929277e-02
2.9879351e-02
-8.7870039e-03
-4.0118556e-02
-6.2039053e-02
-7.6019919e-02
-8.3352209e-02
-8.3805613e-02
-7.6977140e-02
-6.5533669e-02
-5.5139301e-02
-5.1045437e-02
-5.3721850e-02
-5.9002430e-02
-6.1421442e-02
-5.5995925e-02
-4.0330825e-02
-1.5215609e-02
1.5456564e-02
4.4189750e-02
6.4150758e-02
7.3339551e-02
7.4013932e-02
7.0264070e-02
6.4956680e-02
5.8651912e-02
5.0961879e-02
4.2382546e-02
3.4116580e-02
2.6660668e-02
1.9321593e-02
1.0562526e-02
-7.1063520e-04
-1.4615642e-02
-2.9161638e-02
-4.0228306e-02
-4.4385456e-02
-3.8943120e-02
-2.2134157e-02
5.0581192e-03
3.6740627e-02
5.9665003e-02
6.0583628e-02
3.8462255e-02
5.2032437e-03
-2.4509031e-02
-4.2215891e-02
-4.6778990e-02
-4.1890651e-02
-3.3307131e-02
-2.6512892e-02
-2.5139498e-02
-2.9435495e-02
-3.6514914e-02
-4.2537851e-02
-4.4142783e-02
-3.9318493e-02
-3.0103453e-02
-2.1126634e-02
-1.4764676e-02
-1.0011828e-02
-2.0125831e-03
1.5179270e-02
4.4653906e-02
8.4962803e-02
1.2634314e-01
1.5038401e-01
1.3926924e-01
8.8975383e-02
1.2547688e-02
-6.9715772e-02
-1.4136063e-01
-1.9374783e-01
-2.2413359e-01
-2.3321888e-01
-2.2325601e-01
-1.9653276e-01
-1.5510166e-01
-1.0051871e-01
-3.3612843e-02
4.4233288e-02
1.3144902e-01
2.2570674e-01
3.1716809e-01
3.8320239e-01
3.9401863e-01
3.3203133e-01
2.1069830e-01
6.9486538e-02
-5.2960053e-02
-1.3803149e-01
-1.8476470e-01
-1.9952422e-01
-1.8999509e-01
-1.6377942e-01
-1.2648754e-01
-8.0941316e-02
-2.8314204e-02
3.0160325e-02
9.0287660e-02
1.4186519e-01
1.6928301e-01
1.6203165e-01
1.2370279e-01
6.9187330e-02
1.5332786e-02
-2.7535795e-02
-5.6496427e-02
-7.3312382e-02
-8.1226810e-02
-8.1536936e-02
-7.3002859e-02
-5.3938504e-02
-2.4859654e-02
8.4659939e-03
3.4728912e-02
4.4288607e-02
3.5752790e-02
1.6278306e-02
-2.6785910e-03
-1.2852201e-02
-1.2594558e-02
-5.9108392e-03
-2.5674368e-04
-9.1184333e-04
-7.4240037e-03
-1.5910683e-02
-2.2460342e-02
-2.5501495e-02
-2.5933078e-02
-2.5228632e-02
-2.3803322e-02
-2.1360592e-02
-1.8456437e-02
-1.7131967e-02
-1.9942984e-02
-2.8243615e-02
-4.1421236e-02
-5.6827463e-02
-7.0576890e-02
-7.8939015e-02
-7.8556618e-02
-6.7037048e-02
-4.3704267e-02
-9.7135547e-03
2.9957273e-02
6.5174094e-02
8.4087880e-02
7.9976783e-02
5.5448986e-02
2.1799052e-02
-6.5757413e-03
-1.9779062e-02
-1.4025197e-02
9.6059781e-03
4.6211698e-02
8.9949117e-02
1.3662442e-01
1.8270336e-01
2.2022824e-01
2.3590983e-01
2.1708175e-01
1.6109690e-01
8.1010711e-02
-2.2060479e-03
-7.2366840e-02
-1.2277323e-01
-1.5368310e-01
-1.6854153e-01
-1.7220048e-01
-1.7050569e-01
-1.6743612e-01
-1.6135271e-01
-1.4778900e-01
-1.2474556e-01
-9.3571089e-02
-5.8322809e-02
-2.5236646e-02
-1.5879028e-03
6.3507794e-03
-2.6885169e-03
-2.5383375e-02
-5.1770616e-02
-6.7563657e-02
-6.7642714e-02
-5.3334052e-02
-2.4922465e-02
1.7840185e-02
7.5388679e-02
1.4308364e-01
2.0651956e-01
2.4639680e-01
2.5163726e-01
2.2579061e-01
1.8117232e-01
1.3033453e-01
8.0138791e-02
3.2047900e-02
-1.4480256e-02
-6.0178650e-02
-1.0336838e-01
-1.3973048e-01
-1.6526904e-01
-1.7735729e-01
-1.7467896e-01
-1.5782288e-01
-1.3062806e-01
-1.0083158e-01
-7.5708696e-02
-5.7453696e-02
-4.2868507e-02
-2.4722319e-02
3.7644408e-03
4.4933548e-02
9.3560908e-02
1.3489491e-01
1.5340656e-01
1.4432068e-01
1.1578164e-01
8.2534974e-02
5.5600513e-02
3.8203743e-02
2.7456376e-02
1.5987617e-02
-3.2483405e-03
-3.2959880e-02
-7.1112310e-02
-1.1102782e-01
-1.4323958e-01
-1.5988047e-01
-1.5663098e-01
-1.3238156e-01
-9.0323438e-02
-3.4948522e-02
3.0213096e-02
1.0025357e-01
1.6886349e-01
2.2658844e-01
2.5969842e-01
2.5633676e-01
2.1366162e-01
1.4005449e-01
5.2436306e-02
-3.0900233e-02
-9.7757051e-02
-1.4251004e-01
-1.6361328e-01
-1.6273767e-01
-1.4383920e-01
-1.1291410e-01
-7.5715557e-02
-3.5233929e-02
6.9698667e-03
4.9017557e-02
8.7995265e-02
1.1871867e-01
1.3426321e-01
1.2892415e-01
1.0116619e-01
5.4959949e-02
8.5735239e-05
-5.1061883e-02
-8.9745973e-02
-1.1139126e-01
-1.1523356e-01
-1.0601285e-01
-9.2344829e-02
-8.3321885e-02
-8.2189829e-02
-8.4417463e-02
-8.3183301e-02
-7.3764673e-02
-5.5439076e-02
-3.0384849e-02
-2.2184438e-03
2.4201723e-02
4.5242914e-02
5.9904927e-02
6.8506899e-02
7.1597483e-02
6.9776619e-02
6.4345974e-02
5.7771850e-02
5.3229393e-02
5.1970583e-02
5.0555136e-02
4.2929617e-02
2.6098527e-02
3.9843312e-03
-1.4850727e-02
-2.3473045e-02
-2.0010542e-02
-7.9322510e-03
6.1249401e-03
1.5302651e-02
1.4545675e-02
3.4550182e-03
-1.5996754e-02
-4.3381854e-02
-7.6828785e-02
-1.1034847e-01
-1.3570000e-01
-1.4556063e-01
-1.3629804e-01
-1.0866361e-01
-6.4656042e-02
-5.2286618e-03
6.6853971e-02
1.4181549e-01
2.0106870e-01
2.2641292e-01
2.1321374e-01
1.7130243e-01
1.1610367e-01
6.1881909e-02
1.8460080e-02
-1.0142766e-02
-2.3583677e-02
-2.3037313e-02
-1.1661969e-02
4.6362621e-03
1.6553290e-02
1.5227706e-02
-1.3319067e-04
-2.1596016e-02
-3.9829614e-02
-5.0668550e-02
-5.5972709e-02
-6.1040757e-02
-7.1480410e-02
-8.7589364e-02
-1.0186970e-01
-1.0542993e-01
-9.3385760e-02
-6.5626218e-02
-2.6379025e-02
1.7348273e-02
5.8418706e-02
9.1936030e-02
1.1459910e-01
1.2519260e-01
1.2538497e-01
1.1674284e-01
9.8735666e-02
6.9226772e-02
2.6643449e-02
-2.6337330e-02
-8.1631901e-02
-1.2891023e-01
-1.6027822e-01
-1.7303223e-01
-1.6754611e-01
-1.4505669e-01
-1.0941567e-01
-6.6122579e-02
-1.9675663e-02
2.5044534e-02
6.2387564e-02
8.7400746e-02
9.5215290e-02
8.2929381e-02
5.1582714e-02
1.2435245e-02
-1.5813654e-02
-2.5870364e-02
-1.9736235e-02
9.4578511e-04
3.2063066e-02
6.6036621e-02
9.2923770e-02
1.0634613e-01
1.0816026e-01
1.0308810e-01
9.2033991e-02
7.1274130e-02
3.7223181e-02
-6.5381336e-03
-4.9391250e-02
-8.1155725e-02
-9.5457368e-02
-9.0401036e-02
-7.0256341e-02
-4.4278890e-02
-2.3499374e-02
-1.5438892e-02
-1.9116182e-02
-2.7204762e-02
-3.1517958e-02
-2.4687263e-02
-2.8452431e-03
3.0614309e-02
6.6013374e-02
9.2247853e-02
1.0108030e-01
8.9379229e-02
6.0185067e-02
2.0861535e-02
-2.1016247e-02
-6.0781628e-02
-9.6874299e-02
-1.2865777e-01
-1.5564301e-01
-1.7655977e-01
-1.8818812e-01
-1.8797416e-01
-1.7451078e-01
-1.4640672e-01
-1.0319121e-01
-4.6066667e-02
1.9895427e-02
8.5703586e-02
1.4014718e-01
1.7137342e-01
1.7244391e-01
1.4862467e-01
1.1609013e-01
9.0420381e-02
7.9904488e-02
8.7222616e-02
1.1366793e-01
1.5787461e-01
2.0472956e-01
2.2592466e-01
2.0170912e-01
1.3859388e-01
6.1571929e-02
-7.5038572e-03
-5.9375175e-02
-9.4393962e-02
-1.1974890e-01
-1.4327712e-01
-1.6566009e-01
-1.8201692e-01
-1.8689158e-01
-1.7709089e-01
-1.5400508e-01
-1.2127256e-01
-8.1341237e-02
-3.6525012e-02
8.6295415e-03
4.5428396e-02
6.1817151e-02
5.0576104e-02
1.6891304e-02
-2.4345192e-02
-5.8025714e-02
-7.6469506e-02
-7.9413352e-02
-6.9803876e-02
-5.0188764e-02
-2.1602998e-02
1.5474326e-02
5.9700967e-02
1.0752859e-01
1.5181928e-01
1.8215474e-01
1.9078122e-01
1.7751753e-01
1.4789909e-01
1.0818614e-01
6.2064754e-02
1.2925796e-02
-3.2384336e-02
-6.4627912e-02
-7.7635374e-02
-7.0644527e-02
-4.7934846e-02
-1.9412326e-02
2.3940953e-03
7.7372874e-03
-4.7242006e-03
-2.6497519e-02
-4.6458821e-02
-5.7296537e-02
-5.6966068e-02
-4.8313175e-02
-3.6229928e-02
-2.4811360e-02
-1.5610072e-02
-7.5035583e-03
1.6809325e-03
1.3923300e-02
2.9258594e-02
4.4104750e-02
5.1736913e-02
4.6172844e-02
2.6655470e-02
-2.0304267e-03
-3.2519483e-02
-5.8120094e-02
-7.5507967e-02
-8.6429927e-02
-9.5826417e-02
-1.0819587e-01
-1.2344458e-01
-1.3596352e-01
-1.3996809e-01
-1.3147297e-01
-1.0902742e-01
-7.4829489e-02
-3.3327051e-02
1.0043903e-02
5.3392467e-02
9.9689697e-02
1.5185713e-01
2.0612269e-01
2.4935361e-01
2.6634193e-01
2.5106879e-01
2.1253690e-01
1.6847121e-01
1.3361046e-01
1.1299997e-01
1.0262992e-01
9.2717950e-02
6.9952654e-02
2.5689145e-02
-3.7053411e-02
-1.0714519e-01
-1.7185969e-01
-2.2219910e-01
-2.5585270e-01
-2.7463840e-01
-2.8021219e-01
-2.7264282e-01
-2.5067570e-01
-2.1407467e-01
-1.6496797e-01
-1.0700900e-01
-4.4579419e-02
2.0331830e-02
8.9547778e-02
1.6410730e-01
2.4034831e-01
3.0939492e-01
3.5664807e-01
3.6669331e-01
3.3251698e-01
2.6023684e-01
1.6722856e-01
7.2601864e-02
-1.1992926e-02
-8.3755465e-02
-1.4440938e-01
-1.9352044e-01
-2.2855344e-01
-2.4904040e-01
-2.5502586e-01
-2.4610015e-01
-2.2396760e-01
-1.9206432e-01
-1.5314116e-01
-1.0902085e-01
-6.0187964e-02
-5.8647863e-03
5.3460790e-02
1.1383575e-01
1.6682323e-01
2.0087503e-01
2.0642044e-01
1.8263080e-01
1.3820721e-01
8.6570722e-02
4.0568423e-02
7.2104796e-03
-1.1507035e-02
-1.7007120e-02
-1.5641276e-02
-1.5889864e-02
-2.4989797e-02
-4.4923876e-02
-6.9222620e-02
-8.7419485e-02
-9.1224458e-02
-7.7253431e-02
-4.6615419e-02
-2.8764503e-03
4.9559114e-02
1.0544889e-01
1.5762964e-01
1.9847801e-01
2.2211671e-01
2.2602208e-01
2.1169738e-01
1.8184200e-01
1.3785062e-01
8.0708667e-02
1.3594580e-02
-5.6337733e-02
-1.2036793e-01
-1.7196844e-01
-2.0812749e-01
-2.2957354e-01
-2.3930811e-01
-2.4064836e-01
-2.3576476e-01
-2.2465847e-01
-2.0618274e-01
-1.8002177e-01
-1.4735430e-01
-1.1002951e-01
-6.9887955e-02
-2.7905552e-02
1.6101954e-02
6.1558127e-02
1.0669466e-01
1.4832168e-01
1.7969834e-01
1.9355590e-01
1.8727272e-01
1.6457783e-01
1.3389334e-01
1.0280701e-01
7.5469373e-02
5.4443029e-02
4.1437384e-02
3.6679737e-02
3.9967511e-02
5.1261615e-02
6.8022910e-02
8.1803257e-02
7.8513276e-02
4.8324290e-02
-4.6071305e-03
-6.5827219e-02
-1.2105287e-01
-1.6289160e-01
-1.8965856e-01
-2.0143078e-01
-1.9977596e-01
-1.8638762e-01
-1.6156963e-01
-1.2656609e-01
-8.3042673e-02
-3.2036052e-02
2.5102521e-02
8.5742748e-02
1.4462479e-01
1.9186185e-01
2.1208998e-01
1.9348239e-01
1.3760365e-01
6.0510015e-02
-1.4339982e-02
-6.9964024e-02
-1.0040063e-01
-1.0684898e-01
-9.5365991e-02
-7.2310418e-02
-4.0857732e-02
-7.6695904e-04
5.0707647e-02
1.1324955e-01
1.7593311e-01
2.1918007e-01
2.2681121e-01
1.9729754e-01
1.4410449e-01
8.4903309e-02
3.1856260e-02
-1.1229553e-02
-4.7293305e-02
-8.1247978e-02
-1.1499315e-01
-1.4652434e-01
-1.7217156e-01
-1.8859800e-01
-1.9406913e-01
-1.8811515e-01
-1.7135269e-01
-1.4513326e-01
-1.1016090e-01
-6.7505980e-02
-2.0031173e-02
2.5733519e-02
5.9121885e-02
7.1566995e-02
6.1660193e-02
3.5970771e-02
6.6050322e-03
-1.5785219e-02
-2.6372664e-02
-2.5259671e-02
-1.5802699e-02
-2.8939581e-03
1.0920624e-02
2.6993189e-02
4.8827534e-02
8.1299789e-02
1.2748980e-01
1.8090064e-01
2.2050695e-01
2.2022359e-01
1.6874878e-01
8.0682303e-02
-1.3425801e-02
-8.8104511e-02
-1.3253869e-01
-1.4731087e-01
-1.3866078e-01
-1.1399433e-01
-7.9967526e-02
-4.0145362e-02
5.8059728e-03
5.7869110e-02
1.1211578e-01
1.5856979e-01
1.8141367e-01
1.6827243e-01
1.1979980e-01
5.0295981e-02
-1.9752392e-02
-7.5114893e-02
-1.1001972e-01
-1.2550671e-01
-1.2614284e-01
-1.1740390e-01
-1.0432646e-01
-8.9900870e-02
-7.5843325e-02
-6.3878213e-02
-5.7228983e-02
-5.4435198e-02
-4.7035914e-02
-3.2684869e-02
-1.4018613e-02
6.3261568e-03
2.2781934e-02
2.9776705e-02
2.1861477e-02
-2.4106981e-03
-3.3631185e-02
-5.7761170e-02
-6.4929887e-02
-5.1369269e-02
-1.8585506e-02
2.9395957e-02
8.9094384e-02
1.5506314e-01
2.1356894e-01
2.4427971e-01
2.3111213e-01
1.7455177e-01
9.3301783e-02
1.1584800e-02
-5.3932793e-02
-9.7276490e-02
-1.1943218e-01
-1.2483428e-01
-1.1843594e-01
-1.0389057e-01
-8.4165125e-02
-6.1825659e-02
-3.8195267e-02
-1.3636828e-02
1.0574299e-02
3.0287670e-02
3.7103923e-02
2.3368378e-02
-9.8291493e-03
-5.2033087e-02
-8.9594824e-02
-1.1297983e-01
-1.1866304e-01
-1.0769774e-01
-8.3668558e-02
-5.0648589e-02
-1.2788889e-02
2.7458268e-02
6.9968382e-02
1.1478905e-01
1.6011650e-01
2.0126053e-01
2.3108550e-01
2.4177976e-01
2.2786218e-01
1.8932291e-01
1.3156440e-01
6.2543035e-02
-9.5830023e-03
-7.8024764e-02
-1.3828422e-01
-1.8698918e-01
-2.2118988e-01
-2.3971518e-01
-2.4259503e-01
-2.3012503e-01
-2.0267173e-01
-1.6125147e-01
-1.0912621e-01
-5.1359495e-02
5.8816947e-03
5.7381864e-02
1.0086488e-01
1.3442054e-01
1.5445315e-01
1.5583775e-01
1.3291650e-01
8.5150488e-02
2.1815435e-02
-4.1464516e-02
-9.0162957e-02
-1.1587608e-01
-1.1660479e-01
-9.4961706e-02
-5.4877065e-02
-1.9794637e-04
6.3511777e-02
1.2741259e-01
1.7798550e-01
2.0143306e-01
1.9237225e-01
1.5640863e-01
1.0590480e-01
5.5477457e-02
1.7256758e-02
-4.1009476e-03
-8.4355494e-03
2.6079636e-03
2.1669087e-02
3.5524609e-02
3.0168276e-02
1.1266534e-03
-4.1016412e-02
-7.9943029e-02
-1.0503179e-01
-1.1424795e-01
-1.1116582e-01
-1.0202843e-01
-9.3942129e-02
-9.1072390e-02
-9.2140904e-02
-9.2590109e-02
-8.7059391e-02
-7.1698109e-02
-4.5030115e-02
-8.1049255e-03
3.2957809e-02
6.6020485e-02
7.7360922e-02
6.1825856e-02
2.6904010e-02
-1.3322831e-02
-4.5357936e-02
-6.2219706e-02
-6.2980220e-02
-4.9330561e-02
-2.4662281e-02
7.7522080e-03
4.4815687e-02
8.2090244e-02
1.1394582e-01
1.3513110e-01
1.4327386e-01
1.4088076e-01
1.3421193e-01
1.2790769e-01
1.1988298e-01
1.0122376e-01
6.2986344e-02
6.8805825e-03
-5.3951928e-02
-1.0458489e-01
-1.3543270e-01
-1.4480347e-01
-1.3584729e-01
-1.1354883e-01
-8.5214437e-02
-5.7644682e-02
-3.3893222e-02
-1.3757120e-02
3.5493140e-03
1.6959099e-02
2.2647680e-02
1.7593133e-02
3.7426712e-03
-1.2809098e-02
-2.3647764e-02
-2.2281288e-02
-7.1255534e-03
1.8550165e-02
4.3831488e-02
5.4815474e-02
4.6195798e-02
2.4944819e-02
3.7553164e-03
-8.5917484e-03
-8.6791429e-03
4.0023583e-03
2.4261660e-02
3.9918685e-02
3.8778983e-02
2.0349181e-02
-4.1962152e-03
-2.4175138e-02
-3.5270801e-02
-3.9239356e-02
-4.0989918e-02
-4.4949213e-02
-5.4594501e-02
-7.0621078e-02
-9.1261885e-02
-1.0743698e-01
-1.0510549e-01
-8.1948148e-02
-4.3201165e-02
6.7721936e-03
6.1092595e-02
1.1013328e-01
1.4353826e-01
1.5547498e-01
1.4774947e-01
1.2693341e-01
9.9339003e-02
6.8773967e-02
3.8003651e-02
9.1968549e-03
-1.5540042e-02
-3.3888794e-02
-4.5952237e-02
-5.5505472e-02
-6.8309046e-02
-8.7791463e-02
-1.1153109e-01
-1.3324751e-01
-1.4607654e-01
-1.4535494e-01
-1.3013429e-01
-1.0157880e-01
-6.3313261e-02
-2.2116442e-02
1.5150208e-02
4.5317222e-02
6.9169193e-02
9.0055947e-02
1.1188381e-01
1.3646667e-01
1.6582170e-01
2.0159757e-01
2.3830891e-01
2.6089246e-01
2.4968919e-01
1.9409881e-01
1.0358205e-01
1.2718031e-03
-9.1663914e-02
-1.6407602e-01
-2.1311535e-01
-2.4038616e-01
-2.4852089e-01
-2.3906884e-01
-2.1306874e-01
-1.7228085e-01
-1.1890212e-01
-5.5905031e-02
1.2309499e-02
7.9610721e-02
1.3875607e-01
1.8309181e-01
2.0565362e-01
1.9982964e-01
1.6240824e-01
9.7109514e-02
1.7369331e-02
-5.8770027e-02
-1.1791328e-01
-1.5464414e-01
-1.6893288e-01
-1.6355249e-01
-1.4195938e-01
-1.0683615e-01
-6.0751910e-02
-7.2167377e-03
4.9364487e-02
1.0429259e-01
1.5301366e-01
1.9156684e-01
2.1495367e-01
2.1721289e-01
1.9542457e-01
1.5313819e-01
1.0011828e-01
4.8126959e-02
5.6631847e-03
-2.5437525e-02
-4.8530866e-02
-6.8725603e-02
-9.0589080e-02
-1.1587424e-01
-1.4299609e-01
-1.6802602e-01
-1.8635838e-01
-1.9467257e-01
-1.9209375e-01
-1.7947402e-01
-1.5803648e-01
-1.2983600e-01
-9.6863664e-02
-6.0028788e-02
-2.0286184e-02
2.1275023e-02
6.3524759e-02
1.0445742e-01
1.4095067e-01
1.6815935e-01
1.7868668e-01
1.6762395e-01
1.3836806e-01
1.0118576e-01
6.8058395e-02
4.6502501e-02
3.8394320e-02
4.2702378e-02
5.5268894e-02
6.7901579e-02
7.0414458e-02
5.6037661e-02
2.5003986e-02
-1.6456720e-02
-5.9544969e-02
-9.6842024e-02
-1.2413836e-01
-1.4046800e-01
-1.4703056e-01
-1.4539965e-01
-1.3765060e-01
-1.2583445e-01
-1.0999837e-01
-8.8861026e-02
-6.0914766e-02
-2.5426084e-02
1.5655093e-02
5.7994972e-02
9.7381435e-02
1.3114306e-01
1.5780909e-01
1.7464867e-01
1.7468821e-01
1.4988247e-01
9.8868171e-02
3.1646305e-02
-3.5058061e-02
-8.7654196e-02
-1.1946200e-01
-1.2987640e-01
-1.2171135e-01
-9.8492136e-02
-6.4720583e-02
-2.5987755e-02
1.2242220e-02
4.6122112e-02
7.4211158e-02
9.7441858e-02
1.1703784e-01
1.3127184e-01
1.3530775e-01
1.2382315e-01
9.4859930e-02
5.3617291e-02
1.0397158e-02
-2.6170824e-02
-5.1487066e-02
-6.5191059e-02
-7.0733465e-02
-7.3467470e-02
-8.0369070e-02
-9.5703825e-02
-1.1626558e-01
-1.3458669e-01
-1.4461156e-01
-1.4391495e-01
-1.3316983e-01
-1.1418138e-01
-8.7450172e-02
-5.2815283e-02
-1.1103416e-02
3.4765663e-02
7.8771657e-02
1.1273130e-01
1.2824686e-01
1.2151178e-01
9.5137833e-02
6.1133044e-02
3.7081684e-02
2.9626298e-02
3.4955912e-02
4.7025754e-02
5.8704109e-02
6.4365670e-02
6.1507501e-02
5.1382886e-02
3.8652419e-02
2.8862542e-02
2.5313397e-02
2.7039872e-02
2.9379340e-02
2.7397123e-02
1.8728861e-02
4.9218852e-03
-9.4180562e-03
-1.9751934e-02
-2.2933162e-02
-1.8124373e-02
-7.6333294e-03
3.5014484e-03
7.3073756e-03
-2.7148653e-03
-2.5233733e-02
-5.1990159e-02
-7.3580821e-02
-8.4822848e-02
-8.5037614e-02
-7.5622805e-02
-5.9512858e-02
-4.1362561e-02
-2.6884647e-02
-1.9393432e-02
-1.8745551e-02
-2.3097125e-02
-2.9564248e-02
-3.5586569e-02
-3.9385583e-02
-4.0038097e-02
-3.7610536e-02
-3.2623495e-02
-2.6238288e-02
-1.9566944e-02
-1.2212245e-02
-2.3958541e-03
1.1693434e-02
3.0885619e-02
5.4818926e-02
8.2170109e-02
1.1204333e-01
1.4390798e-01
1.7471903e-01
1.9608327e-01
1.9423917e-01
1.5786676e-01
8.9441336e-02
6.6267614e-03
-6.9673655e-02
-1.2662994e-01
-1.6072471e-01
-1.7411535e-01
-1.7071365e-01
-1.5404489e-01
-1.2676629e-01
-9.1377542e-02
-4.9865710e-02
-3.7479610e-03
4.3614024e-02
8.5095041e-02
1.0947930e-01
1.0920597e-01
8.8167519e-02
5.8569609e-02
3.2552047e-02
1.5842148e-02
8.3324902e-03
7.2181508e-03
1.0314400e-02
1.6335773e-02
2.2492096e-02
2.3723644e-02
1.2411455e-02
-1.6588913e-02
-5.9670275e-02
-1.0474753e-01
-1.3834192e-01
-1.5371228e-01
-1.5142582e-01
-1.3537520e-01
-1.1013349e-01
-7.8831737e-02
-4.2109831e-02
2.3002458e-04
4.8105050e-02
1.0052058e-01
1.5416584e-01
2.0289201e-01
2.3639462e-01
2.4297689e-01
2.1709208e-01
1.6277287e-01
9.2130800e-02
2.0786963e-02
-3.8678905e-02
-8.0490190e-02
-1.0400811e-01
-1.1156910e-01
-1.0711938e-01
-9.5825955e-02
-8.4840888e-02
-7.9995096e-02
-8.2560680e-02
-8.9278400e-02
-9.4088336e-02
-9.1927835e-02
-8.0398547e-02
-5.9593398e-02
-3.1954616e-02
-7.9626779e-04
3.0950377e-02
6.1387614e-02
8.9642433e-02
1.1427731e-01
1.3185715e-01
1.3745691e-01
1.2674883e-01
9.8767372e-02
5.7800767e-02
1.1716471e-02
-3.2123911e-02
-6.8768533e-02
-9.5459529e-02
-1.1071480e-01
-1.1294091e-01
-1.0050045e-01
-7.3349151e-02
-3.4472995e-02
1.0513626e-02
5.3853952e-02
8.7256031e-02
1.0614544e-01
1.1035367e-01
1.0184709e-01
8.3542519e-02
5.7995642e-02
2.7339094e-02
-5.0817630e-03
-3.4421882e-02
-5.5769818e-02
-6.5916143e-02
-6.4725300e-02
-5.4648326e-02
-3.9872038e-02
-2.5962876e-02
-1.7406795e-02
-1.4995963e-02
-1.6384195e-02
-1.8280841e-02
-1.8091433e-02
-1.5358038e-02
-1.2318085e-02
-1.2770874e-02
-1.9873804e-02
-3.3442555e-02
-4.9396541e-02
-6.2114184e-02
-6.7067124e-02
-6.2194569e-02
-4.7033866e-02
-2.0821920e-02
1.5907154e-02
5.8028444e-02
9.5379692e-02
1.1559718e-01
1.1160519e-01
8.6758436e-02
5.1287354e-02
1.4374550e-02
-1.6525086e-02
-3.4383662e-02
-3.8153156e-02
-2.9924472e-02
-1.1653281e-02
1.2449911e-02
3.5937481e-02
4.8990547e-02
4.2610239e-02
1.5999076e-02
-2.2305036e-02
-6.0059737e-02
-8.7939636e-02
-1.0159373e-01
-1.0149797e-01
-9.0370302e-02
-7.0462104e-02
-4.3565016e-02
-1.1123537e-02
2.6763373e-02
7.0658933e-02
1.1823892e-01
1.6005433e-01
1.7800744e-01
1.5708815e-01
1.0098323e-01
3.0647775e-02
-3.0497785e-02
-6.9383708e-02
-8.4373150e-02
-7.9283774e-02
-5.9877648e-02
-3.4056033e-02
-1.1693629e-02
1.2287287e-04
1.0711780e-03
-3.9604730e-03
-7.8898300e-03
-6.7553184e-03
-4.0069747e-03
-6.1204585e-03
-1.6063646e-02
-3.0809269e-02
-4.1806166e-02
-4.0419605e-02
-2.2467776e-02
1.0948668e-02
5.0258561e-02
7.8140418e-02
8.0411887e-02
5.7909083e-02
2.4499387e-02
-5.1045582e-03
-2.2063470e-02
-2.4495810e-02
-1.5925230e-02
-2.7323806e-03
7.8525063e-03
1.1642658e-02
1.0127045e-02
7.9941551e-03
8.6647550e-03
1.1813930e-02
1.3661291e-02
9.4903143e-03
-3.6704720e-03
-2.5134311e-02
-5.1720855e-02
-7.9366501e-02
-1.0240839e-01
-1.1597421e-01
-1.1761314e-01
-1.0620430e-01
-8.2415518e-02
-4.8242579e-02
-4.8399235e-03
4.5895149e-02
9.7077326e-02
1.3632325e-01
1.4967937e-01
1.3182260e-01
9.2356122e-02
4.8029060e-02
1.2023909e-02
-1.1001762e-02
-2.3697590e-02
-3.0543068e-02
-3.3366430e-02
-3.0490382e-02
-1.8889311e-02
2.6237286e-03
3.2205221e-02
6.3712737e-02
8.6871608e-02
9.3082895e-02
8.0330083e-02
5.3848685e-02
2.3015838e-02
-3.9435496e-03
-2.2682098e-02
-3.2864106e-02
-3.6155893e-02
-3.4142665e-02
-2.8121776e-02
-2.0245378e-02
-1.4366184e-02
-1.5087167e-02
-2.6385406e-02
-4.8620125e-02
-7.6224905e-02
-1.0040656e-01
-1.1366536e-01
-1.1297582e-01
-9.9927692e-02
-7.8883098e-02
-5.5248062e-02
-3.1574825e-02
-6.0095970e-03
2.3878894e-02
5.9076724e-02
9.7437360e-02
1.3139111e-01
1.5166486e-01
1.5291317e-01
1.3632071e-01
1.0904267e-01
7.9407269e-02
5.2208708e-02
2.7088277e-02
2.9150677e-05
-3.1531667e-02
-6.5806838e-02
-9.8373473e-02
-1.2412686e-01
-1.3962059e-01
-1.4469778e-01
-1.4136136e-01
-1.3175864e-01
-1.1628120e-01
-9.3651568e-02
-6.2676302e-02
-2.3285084e-02
2.2766377e-02
7.3203233e-02
1.2514219e-01
1.7257157e-01
2.0735607e-01
2.2110759e-01
2.0768978e-01
1.6762253e-01
1.0824268e-01
3.9838379e-02
-2.6965351e-02
-8.2889936e-02
-1.2168961e-01
-1.4057447e-01
-1.4006876e-01
-1.2365835e-01
-9.6730649e-02
-6.4657290e-02
-3.0622467e-02
4.5649870e-03
4.0207230e-02
7.2964601e-02
9.5935123e-02
1.0103874e-01
8.3935661e-02
4.6914462e-02
-7.1846827e-04
-4.5587748e-02
-7.7091465e-02
-9.0564787e-02
-8.6983849e-02
-7.0613455e-02
-4.5941077e-02
-1.7242596e-02
1.0091465e-02
2.8795179e-02
3.2572791e-02
1.7766412e-02
-7.4827672e-03
-2.4246476e-02
-2.4813535e-02
-1.2575599e-02
6.7794601e-03
2.3344471e-02
2.8755354e-02
2.1152914e-02
5.1923241e-03
-1.0008586e-02
-1.7548435e-02
-1.5913476e-02
-7.5907886e-03
3.5176574e-03
1.5665762e-02
3.0347380e-02
4.9309314e-02
6.9923337e-02
8.4627790e-02
8.3281274e-02
6.1162400e-02
2.5824772e-02
-9.9068575e-03
-3.5698190e-02
-4.6101424e-02
-4.1311218e-02
-2.5735686e-02
-7.4111451e-03
4.6802304e-03
4.8296202e-03
-7.0793669e-03
-2.6368172e-02
-4.6844634e-02
-6.3108576e-02
-7.1768594e-02
-7.1545814e-02
-6.3592070e-02
-5.1660199e-02
-4.0390150e-02
-3.4355757e-02
-3.4864866e-02
-3.7451318e-02
-3.6086586e-02
-2.6300923e-02
-5.9466616e-03
2.4938772e-02
6.5331671e-02
1.1144579e-01
1.5397025e-01
1.7948741e-01
1.7799071e-01
1.4851471e-01
9.8417932e-02
4.0161948e-02
-1.4097655e-02
-5.6507557e-02
-8.4677816e-02
-1.0103748e-01
-1.0957174e-01
-1.1345858e-01
-1.1329275e-01
-1.0702637e-01
-9.3265076e-02
-7.1262400e-02
-4.0404138e-02
-2.0419824e-03
3.9550455e-02
7.5887405e-02
9.7078051e-02
9.8247459e-02
8.2903383e-02
6.0136175e-02
3.8800748e-02
2.4681715e-02
1.9365496e-02
2.1118341e-02
2.5866527e-02
2.7267894e-02
2.0572973e-02
5.8087407e-03
-1.3004235e-02
-3.0067520e-02
-4.1075922e-02
-4.5116735e-02
-4.4175129e-02
-4.1609087e-02
-3.9847417e-02
-3.8946247e-02
-3.6875822e-02
-3.1489970e-02
-2.3027538e-02
-1.3904771e-02
-6.7480503e-03
-2.9935402e-03
-2.2853680e-03
-3.5489975e-03
-6.6127558e-03
-1.1927587e-02
-1.8998904e-02
-2.6213661e-02
-3.0990454e-02
-3.0561515e-02
-2.3842590e-02
-1.0264294e-02
1.0418483e-02
3.6739154e-02
6.5111333e-02
8.8398954e-02
9.8856201e-02
9.3417285e-02
7.5565096e-02
5.3384626e-02
3.4812794e-02
2.4685091e-02
2.4107658e-02
3.1680484e-02
4.3655688e-02
5.2882178e-02
5.1734053e-02
3.5385447e-02
4.8540497e-03
-3.1968896e-02
-6.5351790e-02
-8.8129851e-02
-9.7277028e-02
-9.3773342e-02
-8.1332714e-02
-6.5750212e-02
-5.3468453e-02
-4.8593297e-02
-5.0772307e-02
-5.6614432e-02
-6.2025180e-02
-6.3421268e-02
-5.9114749e-02
-4.9736985e-02
-3.7382315e-02
-2.4667650e-02
-1.2614075e-02
1.4047658e-03
2.1431244e-02
4.9475822e-02
8.2327369e-02
1.0941204e-01
1.1894277e-01
1.0788728e-01
8.4818190e-02
6.3219022e-02
5.1622256e-02
4.9594531e-02
5.0576838e-02
4.6480363e-02
3.2832780e-02
1.2019239e-02
-9.6172024e-03
-2.6273646e-02
-3.5342775e-02
-3.8053018e-02
-3.7374037e-02
-3.5559812e-02
-3.2245397e-02
-2.5270680e-02
-1.4150129e-02
-9.2076430e-04
1.0415629e-02
1.4934658e-02
9.8419475e-03
-4.8024495e-03
-2.6227645e-02
-4.8682259e-02
-6.5769475e-02
-7.2615192e-02
-6.7550979e-02
-5.2741540e-02
-3.3425392e-02
-1.6573253e-02
-7.7879761e-03
-9.4459993e-03
-2.0240379e-02
-3.7277765e-02
-5.2331017e-02
-5.3287385e-02
-3.7958561e-02
-9.9142402e-03
2.8582594e-02
7.3211412e-02
1.1646491e-01
1.4587710e-01
1.4922108e-01
1.2410786e-01
7.9944228e-02
3.0868672e-02
-1.1945433e-02
-4.2162990e-02
-5.8322483e-02
-6.1467160e-02
-5.3961446e-02
-4.0768833e-02
-2.7192545e-02
-1.7279260e-02
-1.2015196e-02
-8.0683028e-03
-1.5417385e-03
8.6240958e-03
1.9785702e-02
2.6190104e-02
2.3265060e-02
1.2212951e-02
-6.5397193e-04
-7.8965219e-03
-4.8740393e-03
9.3252655e-03
3.1286701e-02
5.2163617e-02
6.0822963e-02
4.9075345e-02
1.7805351e-02
-2.2446461e-02
-5.8914503e-02
-8.2302646e-02
-8.9433928e-02
-8.2054584e-02
-6.4193833e-02
-4.2974068e-02
-2.5227807e-02
-1.2231347e-02
-9.7158000e-04
1.3479911e-02
3.5391388e-02
6.5825582e-02
1.0159538e-01
1.3318261e-01
1.4657258e-01
1.3160034e-01
8.9759634e-02
3.2875327e-02
-2.4232647e-02
-7.0080882e-02
-1.0026698e-01
-1.1587556e-01
-1.2004052e-01
-1.1693228e-01
-1.0991981e-01
-9.9366788e-02
-8.4146527e-02
-6.2704793e-02
-3.3589240e-02
6.2119974e-04
3.2650024e-02
5.4542182e-02
6.2974146e-02
6.1508136e-02
5.5985947e-02
5.0220412e-02
4.5510268e-02
4.1523850e-02
3.8243788e-02
3.6989005e-02
3.8775309e-02
4.2271611e-02
4.2431433e-02
3.2591715e-02
1.1775743e-02
-1.3764241e-02
-3.5618662e-02
-4.7427615e-02
-4.7604237e-02
-3.7727642e-02
-2.0674317e-02
-3.5019411e-04
1.9769776e-02
3.6997695e-02
4.8438347e-02
5.0245256e-02
3.9445661e-02
1.5895315e-02
-1.6599656e-02
-5.0716223e-02
-7.9889879e-02
-1.0020178e-01
-1.1063500e-01
-1.1276750e-01
-1.0842269e-01
-1.0000210e-01
-8.9165480e-02
-7.5275407e-02
-5.7368147e-02
-3.3647243e-02
-1.9195272e-03
3.8326259e-02
8.6169365e-02
1.3848983e-01
1.8586756e-01
2.1158857e-01
1.9964796e-01
1.4543718e-01
6.2363773e-02
-2.4691454e-02
-9.4792783e-02
-1.3748269e-01
-1.5174522e-01
-1.4198954e-01
-1.1373209e-01
-7.2435385e-02
-2.3895379e-02
2.4449537e-02
6.3252413e-02
8.3858359e-02
8.4217709e-02
7.1146090e-02
5.5084369e-02
4.4180879e-02
4.0273173e-02
3.8546051e-02
3.1200389e-02
1.2303496e-02
-1.5099103e-02
-4.0030047e-02
-5.3444946e-02
-5.0046821e-02
-2.7124291e-02
1.5784653e-02
7.5088049e-02
1.3512257e-01
1.6958783e-01
1.5903077e-01
1.0747382e-01
3.8656392e-02
-2.2444089e-02
-6.2352734e-02
-8.0419853e-02
-8.2541983e-02
-7.6557520e-02
-7.1260011e-02
-7.2080597e-02
-7.7570021e-02
-8.1655903e-02
-7.7841263e-02
-6.3055069e-02
-4.0792928e-02
-2.0696787e-02
-1.4106497e-02
-2.8009054e-02
-5.9672996e-02
-9.7570265e-02
-1.2830343e-01
-1.4147567e-01
-1.3358749e-01
-1.1162152e-01
-8.7499632e-02
-6.6537345e-02
-4.4333849e-02
-1.2681089e-02
3.5289586e-02
1.0045768e-01
1.7216076e-01
2.3022156e-01
2.5760127e-01
2.5326519e-01
2.3137280e-01
2.1036738e-01
2.0261172e-01
2.0878302e-01
2.1948693e-01
2.1722200e-01
1.8370335e-01
1.1470879e-01
2.2256172e-02
-7.5729963e-02
-1.6346608e-01
-2.3156662e-01
-2.7681674e-01
-2.9993747e-01
-3.0405394e-01
-2.9295311e-01
-2.6979462e-01
-2.3605517e-01
-1.9212788e-01
-1.3984044e-01
-8.4025139e-02
-3.0693068e-02
1.5706516e-02
5.4595349e-02
8.9069680e-02
1.2249822e-01
1.5654439e-01
1.9067819e-01
2.2244252e-01
2.4876818e-01
2.6711317e-01
2.7500482e-01
2.6935108e-01
2.4711942e-01
2.0545731e-01
1.4306220e-01
6.3554558e-02
-2.4781059e-02
-1.1205239e-01
-1.8812182e-01
-2.4521883e-01
-2.8075304e-01
-2.9547309e-01
-2.9124783e-01
-2.7104146e-01
-2.3855124e-01
-1.9776934e-01
-1.5166775e-01
-1.0101931e-01
-4.5494874e-02
1.4856331e-02
7.5619197e-02
1.2231403e-01
1.3621032e-01
1.1046216e-01
5.7762940e-02
7.3298687e-04
-4.2737006e-02
-6.5536825e-02
-7.0250754e-02
-6.2923649e-02
-4.7392678e-02
-2.4802238e-02
5.0735837e-03
4.2938926e-02
8.7700710e-02
1.3238855e-01
1.6225696e-01
1.5976469e-01
1.2175058e-01
6.6562536e-02
1.7708665e-02
-9.8184356e-03
-1.2061870e-02
8.5597238e-03
4.9298477e-02
1.0572992e-01
1.6668661e-01
2.1277659e-01
2.2254870e-01
1.8360896e-01
1.0237598e-01
1.9388989e-03
-9.1282955e-02
-1.5960664e-01
-1.9888187e-01
-2.1334912e-01
-2.0907004e-01
-1.9207882e-01
-1.6658366e-01
-1.3385936e-01
-9.4042265e-02
-4.8022155e-02
1.0809201e-03
4.6174806e-02
7.8340627e-02
9.1018078e-02
8.3550172e-02
6.1820527e-02
3.3434063e-02
3.7366613e-03
-2.3661896e-02
-4.5366717e-02
-5.7841395e-02
-5.8176230e-02
-4.6030374e-02
-2.4750467e-02
-3.9564080e-04
2.0761331e-02
3.6560736e-02
4.9936242e-02
6.4193656e-02
7.8692329e-02
8.7132440e-02
8.0235500e-02
5.3793236e-02
1.4121866e-02
-2.5864812e-02
-5.5598167e-02
-7.1628456e-02
-7.4658110e-02
-6.5426439e-02
-4.4270754e-02
-1.2717939e-02
2.5074728e-02
6.3112397e-02
9.5105986e-02
1.1496585e-01
1.1690975e-01
9.7949999e-02
6.0400719e-02
1.1141208e-02
-4.1879083e-02
-9.2702997e-02
-1.3650388e-01
-1.6944349e-01
-1.8857301e-01
-1.9096155e-01
-1.7517564e-01
-1.4338966e-01
-1.0261405e-01
-6.0330500e-02
-1.8333072e-02
2.5760756e-02
7.5074897e-02
1.3072448e-01
1.8790451e-01
2.3651537e-01
2.6447581e-01
2.6313890e-01
2.3298716e-01
1.8232958e-01
1.2190735e-01
6.0772456e-02
4.8917443e-03
-4.3216821e-02
-8.4182114e-02
-1.1921516e-01
-1.4818597e-01
-1.6900166e-01
-1.7746876e-01
-1.7025707e-01
-1.4721807e-01
-1.1082130e-01
-6.5598610e-02
-1.6588405e-02
3.1244922e-02
7.1907166e-02
9.9224343e-02
1.0925709e-01
1.0277324e-01
8.5999179e-02
6.5404656e-02
4.2683963e-02
1.6542364e-02
-1.4150797e-02
-4.7234185e-02
-7.6741542e-02
-9.6851942e-02
-1.0442085e-01
-9.8932092e-02
-8.0874355e-02
-5.1457650e-02
-1.5608390e-02
1.6705733e-02
3.5132388e-02
3.6369150e-02
2.5898111e-02
1.2164014e-02
4.1334029e-04
-7.6993654e-03
-1.2861743e-02
-1.7894028e-02
-2.6351719e-02
-4.0118336e-02
-5.7376631e-02
-7.3622367e-02
-8.3316145e-02
-8.1987394e-02
-6.8047695e-02
-4.0979545e-02
-5.2903873e-04
5.2992389e-02
1.1738621e-01
1.8382628e-01
2.3514853e-01
2.5208967e-01
2.2577688e-01
1.6474876e-01
8.8267342e-02
1.4530755e-02
-4.6931051e-02
-9.4813191e-02
-1.3149788e-01
-1.5851341e-01
-1.7409746e-01
-1.7532608e-01
-1.6030037e-01
-1.2867200e-01
-8.2974715e-02
-2.9637107e-02
2.3244949e-02
6.9589796e-02
1.0616012e-01
1.3112190e-01
1.4227289e-01
1.3737884e-01
1.1698132e-01
8.4325757e-02
4.4125698e-02
2.8096973e-03
-3.3145722e-02
-5.8597200e-02
-7.0045268e-02
-6.6866631e-02
-5.1660969e-02
-2.8884136e-02
-6.1589640e-03
5.3699828e-03
-1.8458982e-03
-2.6645172e-02
-5.9729127e-02
-8.8451440e-02
-1.0463873e-01
-1.0547170e-01
-9.0829422e-02
-6.2561673e-02
-2.3154463e-02
2.3618584e-02
7.1386845e-02
1.1216161e-01
1.3839591e-01
1.4443394e-01
1.2935718e-01
9.9502249e-02
6.4684840e-02
3.2471210e-02
6.6367103e-03
-1.2929777e-02
-2.8363954e-02
-3.9289483e-02
-4.2538975e-02
-3.3892401e-02
-1.0320554e-02
2.4678248e-02
5.8906215e-02
7.6510171e-02
6.9173484e-02
4.1622730e-02
5.3128326e-03
-2.8890011e-02
-5.5112379e-02
-7.3886784e-02
-8.9355966e-02
-1.0467696e-01
-1.1865726e-01
-1.2607848e-01
-1.2175677e-01
-1.0399104e-01
-7.4852283e-02
-4.0389167e-02
-7.7855242e-03
1.8989198e-02
3.9495753e-02
5.6333328e-02
7.3095762e-02
9.2347881e-02
1.1440129e-01
1.3481577e-01
1.4501742e-01
1.3678235e-01
1.0778765e-01
6.2833284e-02
1.0597985e-02
-3.9882533e-02
-8.2284986e-02
-1.1281062e-01
-1.2905483e-01
-1.3086304e-01
-1.2026404e-01
-9.9746918e-02
-7.1467535e-02
-3.7636037e-02
-8.7942026e-04
3.4594953e-02
6.3364662e-02
8.1534613e-02
8.8162971e-02
8.3787549e-02
6.9128016e-02
4.6635142e-02
2.0433098e-02
-5.8930980e-03
-2.8976768e-02
-4.5506229e-02
-5.3775057e-02
-5.2371771e-02
-4.0023120e-02
-1.8677705e-02
5.3550110e-03
2.1334400e-02
2.0115258e-02
2.6433740e-03
-2.1191721e-02
-3.9867198e-02
-4.6322295e-02
-3.8886719e-02
-1.9616254e-02
7.0052617e-03
3.5872945e-02
6.2149075e-02
8.1667835e-02
9.2395531e-02
9.5456417e-02
9.3810257e-02
8.9576137e-02
8.1655079e-02
6.6723006e-02
4.3888578e-02
1.7087022e-02
-6.9656343e-03
-2.2466019e-02
-2.7220228e-02
-2.3083292e-02
-1.3649506e-02
-2.6168724e-03
5.7185761e-03
7.2632112e-03
-1.8005910e-03
-2.3355747e-02
-5.3860558e-02
-8.5200088e-02
-1.0964763e-01
-1.2417858e-01
-1.2984443e-01
-1.3047518e-01
-1.2945245e-01
-1.2642994e-01
-1.2083976e-01
-1.1299768e-01
-1.0431598e-01
-9.2042871e-02
-6.7807366e-02
-3.0614342e-02
1.6175325e-02
7.2555686e-02
1.3854880e-01
2.0933404e-01
2.6731616e-01
2.8696016e-01
2.5354298e-01
1.7546854e-01
7.8445513e-02
-1.2103934e-02
-8.1857302e-02
-1.2810500e-01
-1.5433681e-01
-1.6462878e-01
-1.6265053e-01
-1.5106268e-01
-1.3196159e-01
-1.0785019e-01
-8.0871052e-02
-5.3013306e-02
-2.5714731e-02
1.3530617e-03
3.0676538e-02
6.6906497e-02
1.1354318e-01
1.6544584e-01
2.0576674e-01
2.1649710e-01
1.9237197e-01
1.4512786e-01
9.5000875e-02
5.5786349e-02
3.2103672e-02
2.3963129e-02
2.7103794e-02
3.3129247e-02
2.9873143e-02
6.7593132e-03
-3.6889690e-02
-9.0581992e-02
-1.4055415e-01
-1.7676987e-01
-1.9284847e-01
-1.8688661e-01
-1.6079558e-01
-1.1711900e-01
-5.8921396e-02
9.4887384e-03
7.9996837e-02
1.3730529e-01
1.6329162e-01
1.4930847e-01
1.0207856e-01
3.8303789e-02
-2.3392804e-02
-7.0302161e-02
-9.9590084e-02
-1.1386859e-01
-1.1568985e-01
-1.0659571e-01
-8.5849454e-02
-5.1025519e-02
-3.5078253e-04
6.5283754e-02
1.3658839e-01
1.9504085e-01
2.2172328e-01
2.0796086e-01
1.6059433e-01
9.7504414e-02
3.6729371e-02
-1.1651479e-02
-4.5547120e-02
-6.8765588e-02
-8.8189009e-02
-1.0813106e-01
-1.2843536e-01
-1.4566316e-01
-1.5474767e-01
-1.5214619e-01
-1.3745663e-01
-1.1261013e-01
-7.9615024e-02
-3.9506750e-02
6.6351921e-03
5.6079003e-02
1.0239612e-01
1.3632319e-01
1.5045560e-01
1.4439569e-01
1.2527887e-01
1.0276123e-01
8.4683485e-02
7.3749224e-02
6.5684339e-02
5.2641308e-02
2.7940528e-02
-8.1791589e-03
-4.6914832e-02
-7.8474703e-02
-9.6985380e-02
-1.0136203e-01
-9.5761920e-02
-8.8245624e-02
-8.8959027e-02
-1.0348246e-01
-1.2718622e-01
-1.4907485e-01
-1.5897199e-01
-1.5251012e-01
-1.3147397e-01
-9.9825681e-02
-6.0274662e-02
-1.2918000e-02
4.4041254e-02
1.1213527e-01
1.9166382e-01
2.7686216e-01
3.4839522e-01
3.7674251e-01
3.3981469e-01
2.4300948e-01
1.1962302e-01
7.3335975e-03
-7.3159654e-02
-1.1985420e-01
-1.3962516e-01
-1.4121030e-01
-1.3313803e-01
-1.2209344e-01
-1.1164579e-01
-1.0261409e-01
-9.5456040e-02
-9.1283259e-02
-8.9963163e-02
-8.8589795e-02
-8.2534456e-02
-6.8155031e-02
-4.4137297e-02
-1.0633326e-02
3.1551142e-02
7.8197187e-02
1.1893172e-01
1.4174076e-01
1.4045127e-01
1.1945230e-01
9.2066330e-02
7.0851342e-02
6.0969501e-02
5.9762081e-02
5.8145989e-02
4.7718201e-02
2.7962170e-02
6.0949098e-03
-8.2868801e-03
-9.4672556e-03
1.5962688e-03
1.6561379e-02
2.2382838e-02
1.1163185e-02
-1.4094184e-02
-4.4302130e-02
-7.0681202e-02
-8.9085115e-02
-1.0092222e-01
-1.1132885e-01
-1.2542786e-01
-1.4268247e-01
-1.5757445e-01
-1.6578800e-01
-1.6673517e-01
-1.6261202e-01
-1.5534878e-01
-1.4468147e-01
-1.3007411e-01
-1.1165202e-01
-9.0457160e-02
