-9.2932361e-03
2.4681170e-02
5.7658282e-02
8.8882234e-02
1.1072457e-01
1.1064540e-01
9.0186853e-02
6.3882823e-02
3.8851141e-02
1.7408574e-02
-2.7986936e-04
-1.5867183e-02
-2.8389678e-02
-3.9777388e-02
-5.2220616e-02
-6.5687011e-02
-8.0191294e-02
-9.2264636e-02
-9.9599283e-02
-1.0333373e-01
-1.0367602e-01
-9.8484764e-02
-8.5237429e-02
-6.5682119e-02
-4.4943938e-02
-2.9827532e-02
-2.3358964e-02
-1.9632638e-02
-1.2327818e-02
1.5328462e-03
2.4090378e-02
5.8285166e-02
1.0794955e-01
1.7072791e-01
2.3170433e-01
2.6785635e-01
2.6977500e-01
2.4003315e-01
1.8494489e-01
1.2834390e-01
8.7605004e-02
5.9104711e-02
3.9698605e-02
2.7334884e-02
1.6833781e-02
2.6535647e-03
-1.4687188e-02
-3.5708633e-02
-6.5195420e-02
-1.0215542e-01
-1.4321883e-01
-1.7948952e-01
-2.0249008e-01
-2.1003507e-01
-2.0140159e-01
-1.7934774e-01
-1.4510932e-01
-1.0147881e-01
-5.3880739e-02
-5.9069944e-03
4.0797582e-02
9.3543105e-02
1.5612945e-01
2.1469454e-01
2.4811582e-01
2.4447783e-01
2.1446866e-01
1.7148131e-01
1.1946559e-01
6.7592526e-02
2.2220591e-02
-1.4263429e-02
-4.1537872e-02
-6.3877078e-02
-8.3129466e-02
-9.6176756e-02
-9.9681154e-02
-9.2872691e-02
-7.6551806e-02
-5.8202460e-02
-4.6714710e-02
-3.9084583e-02
-2.9133568e-02
-2.3304670e-02
-2.6620087e-02
-3.2348323e-02
-3.6044906e-02
-3.9989276e-02
-4.4480633e-02
-4.3509138e-02
-3.5562427e-02
-2.3309592e-02
-8.2508229e-03
6.3100084e-03
2.0251115e-02
3.7517251e-02
6.1205114e-02
8.1971722e-02
8.9376817e-02
8.2428280e-02
5.8635075e-02
2.8620747e-02
4.5900905e-03
-1.7838983e-02
-4.0271412e-02
-5.6354886e-02
-6.0835201e-02
-5.4909414e-02
-4.0051361e-02
-1.6088182e-02
6.6212456e-03
1.9316153e-02
2.2726342e-02
1.2812730e-02
-6.8879018e-03
-2.0087328e-02
-1.9230047e-02
-9.3248746e-03
8.1953257e-03
3.8907575e-02
7.5302022e-02
9.3779510e-02
7.7417154e-02
2.8579466e-02
-3.3756331e-02
-8.8832507e-02
-1.2833587e-01
-1.5328883e-01
-1.6593383e-01
-1.7003449e-01
-1.7202772e-01
-1.7402457e-01
-1.7487153e-01
-1.7597343e-01
-1.7271273e-01
-1.5569839e-01
-1.2160181e-01
-7.4973282e-02
-1.8551758e-02
5.3507448e-02
1.3907408e-01
2.3191486e-01
3.2921322e-01
4.0644618e-01
4.3169791e-01
4.1600433e-01
3.8552136e-01
3.3272828e-01
2.5914888e-01
1.8797262e-01
1.2763058e-01
7.8772473e-02
4.1564229e-02
1.1321921e-02
-1.7052446e-02
-4.2670172e-02
-6.3020401e-02
-8.0802105e-02
-9.2643152e-02
-9.7242209e-02
-1.0202507e-01
-1.0358914e-01
-9.8522956e-02
-9.5144341e-02
-1.0163844e-01
-1.1525218e-01
-1.2404266e-01
-1.2457127e-01
-1.1964736e-01
-1.0963796e-01
-9.6327169e-02
-7.9647308e-02
-5.9612719e-02
-3.9938832e-02
-2.7682456e-02
-2.5916850e-02
-2.7893737e-02
-2.9881020e-02
-3.0996614e-02
-2.9606437e-02
-2.7209708e-02
-2.1921730e-02
-1.2523505e-02
-4.4573694e-03
-5.9377189e-03
-1.7209754e-02
-2.9161792e-02
-3.6925490e-02
-3.6916506e-02
-3.0434496e-02
-2.4244618e-02
-1.5011793e-02
3.2226662e-04
2.0518563e-02
3.9164903e-02
4.8824582e-02
5.1408868e-02
4.7286581e-02
4.4620055e-02
4.5004985e-02
3.8134664e-02
3.2670962e-02
3.7271251e-02
4.4758371e-02
3.6298651e-02
3.0002027e-03
-3.6649206e-02
-6.8002077e-02
-8.5530585e-02
-8.7000807e-02
-7.6942016e-02
-5.5268687e-02
-2.2663228e-02
1.3070396e-02
3.7712641e-02
4.7455714e-02
4.7371439e-02
3.4781606e-02
2.1732756e-02
2.1319345e-02
3.1210833e-02
5.2932877e-02
8.6392378e-02
1.1556007e-01
1.1008339e-01
6.8404758e-02
2.1023006e-02
-1.9719231e-02
-5.0346047e-02
-6.8078249e-02
-7.7553041e-02
-7.5139265e-02
-5.8212249e-02
-3.9683820e-02
-3.8432657e-02
-5.0708317e-02
-6.0425540e-02
-6.4756949e-02
-5.7320336e-02
-3.5682848e-02
-5.2821070e-03
3.8380173e-02
9.5674547e-02
1.4382617e-01
1.5196664e-01
1.2722243e-01
9.7803912e-02
7.1914081e-02
5.8025583e-02
4.9025645e-02
2.8823157e-02
1.2583168e-02
1.1642890e-02
1.2052619e-02
-6.0311079e-03
-4.0724977e-02
-7.2810706e-02
-9.6151916e-02
-1.0748519e-01
-1.0788122e-01
-1.0265875e-01
-8.6215421e-02
-5.5649057e-02
-2.0952411e-02
2.4660634e-03
1.5641980e-02
3.3149012e-02
5.9556941e-02
9.1304811e-02
1.1324193e-01
1.1936014e-01
1.2892091e-01
1.5106052e-01
1.7047488e-01
1.5958733e-01
1.1445338e-01
6.0103638e-02
9.7411435e-03
-3.3429234e-02
-6.9630785e-02
-1.0159820e-01
-1.2556866e-01
-1.4026230e-01
-1.4995880e-01
-1.5829165e-01
-1.6177909e-01
-1.5856219e-01
-1.5285346e-01
-1.4580502e-01
-1.3696209e-01
-1.1944530e-01
-8.5455146e-02
-3.7822642e-02
1.8117370e-02
7.3584030e-02
1.2128321e-01
1.4801475e-01
1.4149339e-01
1.1133704e-01
6.3466261e-02
8.7717923e-03
-3.5532872e-02
-6.5514045e-02
-7.9687289e-02
-8.0094256e-02
-6.7811336e-02
-5.4666977e-02
-5.5781652e-02
-6.9634200e-02
-9.6698305e-02
-1.2689492e-01
-1.4406708e-01
-1.4213186e-01
-1.1445390e-01
-5.9825882e-02
1.9186637e-02
1.0507977e-01
1.7792621e-01
2.3188238e-01
2.6081665e-01
2.6980381e-01
2.6403547e-01
2.4424254e-01
2.1670383e-01
1.8956541e-01
1.7253857e-01
1.6049969e-01
1.4612056e-01
1.2713368e-01
9.9736797e-02
7.2350002e-02
4.7348765e-02
1.9010198e-02
-9.4081025e-03
-2.9231053e-02
-3.8546140e-02
-4.9416960e-02
-6.7581312e-02
-9.3685804e-02
-1.3303638e-01
-1.7517108e-01
-2.0595520e-01
-2.2244030e-01
-2.2402834e-01
-2.1467344e-01
-2.0126282e-01
-1.8675039e-01
-1.6615496e-01
-1.4565274e-01
-1.3705589e-01
-1.3349871e-01
-1.2549210e-01
-1.0521591e-01
-6.5075852e-02
-8.1970205e-03
4.6977816e-02
7.6676150e-02
8.2140792e-02
6.8779979e-02
3.5550538e-02
-2.5143135e-03
-3.8446277e-02
-6.5558368e-02
-6.9114211e-02
-4.5503519e-02
1.5102221e-03
5.9439748e-02
1.1912069e-01
1.7052084e-01
2.0663552e-01
2.3256249e-01
2.3027684e-01
1.9241284e-01
1.5081591e-01
1.3289074e-01
1.3939269e-01
1.4859689e-01
1.4532947e-01
1.2601792e-01
9.6415782e-02
6.7786809e-02
2.7187252e-02
-2.9966900e-02
-7.7867478e-02
-9.7650796e-02
-9.0797745e-02
-7.4034087e-02
-5.5862002e-02
-4.8471244e-02
-6.5399918e-02
-8.9356203e-02
-1.1274314e-01
-1.3546550e-01
-1.4194672e-01
-1.2519308e-01
-9.7576214e-02
-7.6256659e-02
-5.4624008e-02
-3.3630369e-02
-2.4997165e-02
-1.9033203e-02
-1.7598512e-02
-2.5869378e-02
-2.7874131e-02
-8.8457997e-03
2.8165526e-02
6.9061205e-02
1.0947561e-01
1.3464545e-01
1.3348564e-01
1.2254281e-01
9.9018076e-02
5.9605737e-02
2.6361648e-02
1.4109569e-02
2.0073580e-02
3.4139188e-02
5.1629664e-02
5.2851806e-02
2.5094146e-02
-1.2088133e-02
-5.5761011e-02
-1.0520024e-01
-1.4210503e-01
-1.5794108e-01
-1.5467231e-01
-1.3739079e-01
-1.1112180e-01
-9.0704703e-02
-8.2139957e-02
-7.3059432e-02
-6.7840814e-02
-6.9234018e-02
-5.9599182e-02
-2.6852976e-02
2.5592502e-02
8.9286411e-02
1.5509429e-01
1.9564612e-01
2.0168355e-01
1.9495629e-01
1.6899991e-01
1.1732778e-01
6.5738225e-02
3.4330757e-02
2.3032707e-02
2.7100070e-02
4.8178453e-02
6.5778676e-02
6.1225372e-02
4.8061249e-02
2.0308571e-02
-2.7082586e-02
-6.9186665e-02
-8.8362505e-02
-8.7343728e-02
-7.5277366e-02
-5.5251068e-02
-4.6352624e-02
-6.0706299e-02
-7.7129350e-02
-8.9820216e-02
-9.9955109e-02
-9.4530536e-02
-6.8355183e-02
-2.7693159e-02
1.8710762e-02
5.9227976e-02
6.4071823e-02
2.6777144e-02
-1.9246409e-02
-5.9450359e-02
-9.0836464e-02
-1.0454590e-01
-9.9834669e-02
-9.0746424e-02
-9.1716303e-02
-9.5174464e-02
-9.2983473e-02
-7.7129913e-02
-4.4862240e-02
-1.8309715e-02
-6.0402798e-03
1.3015779e-02
5.6046927e-02
1.1593736e-01
1.7942648e-01
2.3481666e-01
2.5109876e-01
2.2063106e-01
1.7358223e-01
1.2102541e-01
6.5232002e-02
2.3330991e-02
7.2483284e-03
1.4291089e-02
3.9250669e-02
7.7283825e-02
1.0706173e-01
1.1203650e-01
9.9387643e-02
7.0417941e-02
2.8040197e-02
-7.3816465e-03
-2.2801726e-02
-1.9461458e-02
-7.5405306e-04
2.4116156e-02
3.8882660e-02
3.4143961e-02
1.4951197e-02
-4.3197219e-03
-1.5157751e-02
-2.2397320e-02
-3.2385626e-02
-4.6181985e-02
-6.3776710e-02
-8.2898681e-02
-1.0303821e-01
-1.2542711e-01
-1.4592181e-01
-1.5891724e-01
-1.6316326e-01
-1.6127167e-01
-1.5528295e-01
-1.4434054e-01
-1.2606593e-01
-9.9303584e-02
-6.8441155e-02
-4.2948101e-02
-2.5987325e-02
-1.0956912e-02
8.7384680e-03
3.1651512e-02
5.1092332e-02
6.1992582e-02
6.8173293e-02
7.7184764e-02
8.9395649e-02
9.9811224e-02
1.0370149e-01
1.0374054e-01
1.0278072e-01
1.0039821e-01
9.8830708e-02
9.6709327e-02
9.1337215e-02
7.9319155e-02
5.6603282e-02
2.8082941e-02
-7.3768386e-04
-2.5945306e-02
-4.3017610e-02
-5.2265674e-02
-5.5090265e-02
-5.4049143e-02
-5.0544600e-02
-4.5810718e-02
-4.3007852e-02
-3.9840303e-02
-3.5005514e-02
-3.2041909e-02
-3.0944456e-02
-2.9005923e-02
-2.7479310e-02
-3.2323588e-02
-4.3802529e-02
-5.5014325e-02
-6.1610315e-02
-6.2327478e-02
-5.9573017e-02
-5.5598736e-02
-4.9894444e-02
-4.3678490e-02
-3.8594862e-02
-3.6018790e-02
-3.1931448e-02
-2.2200013e-02
-8.7300703e-03
2.0471383e-03
5.5681259e-03
1.1081100e-02
2.8072933e-02
5.3755657e-02
7.9899584e-02
9.6066011e-02
9.8612445e-02
9.1022214e-02
7.6020550e-02
5.7095895e-02
3.6225992e-02
1.8356009e-02
1.0045202e-02
1.1628817e-02
2.0552742e-02
3.2621061e-02
4.4535105e-02
5.0617362e-02
4.6806674e-02
3.2911290e-02
7.1848854e-03
-2.0685713e-02
-3.9004892e-02
-4.7982914e-02
-5.1041816e-02
-5.0648397e-02
-4.6653533e-02
-3.8166062e-02
-2.4852353e-02
-1.0040806e-02
-7.8623856e-04
3.6181151e-03
8.1567518e-03
9.3030656e-03
-3.7193675e-06
-1.6987066e-02
-3.0825259e-02
-3.7058511e-02
-3.6933357e-02
-3.0665874e-02
-1.9411621e-02
-4.2340970e-03
1.1992360e-02
2.2076706e-02
2.1376099e-02
1.1407781e-02
-1.1288463e-03
-1.2617153e-02
-2.5685666e-02
-3.7227511e-02
-4.5118350e-02
-5.3148000e-02
-6.0336334e-02
-6.5275683e-02
-6.8582189e-02
-6.8966818e-02
-6.5070665e-02
-5.8464892e-02
-4.8777612e-02
-3.2915726e-02
-1.2420384e-02
1.2485913e-02
4.2389122e-02
7.1031522e-02
9.4020509e-02
1.1703601e-01
1.4666592e-01
1.6764126e-01
1.6728403e-01
1.5227629e-01
1.2281568e-01
8.8741956e-02
6.0793920e-02
3.4904966e-02
7.9112180e-03
-1.8867515e-02
-3.9504122e-02
-5.2697061e-02
-6.1311888e-02
-6.7071136e-02
-7.2013671e-02
-7.3170498e-02
-6.8597302e-02
-6.2031977e-02
-5.7847665e-02
-5.7743026e-02
-5.8630234e-02
-6.0893344e-02
-6.3843141e-02
-6.2178474e-02
-5.5308972e-02
-4.3642402e-02
-2.7837673e-02
-1.2607262e-02
-7.5346302e-03
-1.4449811e-02
-2.1304415e-02
-2.3098597e-02
-2.0526038e-02
-1.1693388e-02
2.7833511e-03
2.4390153e-02
5.3256933e-02
8.2671233e-02
9.4095869e-02
7.8881959e-02
5.5422130e-02
3.0743503e-02
4.2607029e-03
-1.4870404e-02
-2.6353443e-02
-3.1931580e-02
-3.0054540e-02
-2.2838586e-02
-1.2836939e-02
2.3966823e-03
2.1183313e-02
3.6003066e-02
5.3223901e-02
6.7326539e-02
6.1019414e-02
4.8132397e-02
4.1729735e-02
3.5008518e-02
1.9328557e-02
-5.2187234e-03
-2.6849172e-02
-3.9767108e-02
-4.0646972e-02
-3.2945311e-02
-2.6133432e-02
-1.4429943e-02
6.2334825e-03
2.5666943e-02
2.9655397e-02
1.7269309e-02
3.6151218e-03
-3.0311462e-03
1.5039034e-03
1.6667748e-02
3.5704531e-02
6.0452381e-02
9.2095351e-02
1.1965011e-01
1.1821336e-01
8.0743550e-02
3.4958940e-02
-2.4113388e-03
-3.1445004e-02
-5.1569312e-02
-6.4310698e-02
-6.8785348e-02
-6.7128789e-02
-6.4482189e-02
-6.7033656e-02
-7.8262471e-02
-9.1629428e-02
-1.0262165e-01
-1.0854046e-01
-1.1030946e-01
-1.1352675e-01
-1.1364360e-01
-1.0480388e-01
-8.6972786e-02
-6.3971002e-02
-3.9998986e-02
-1.6597528e-02
2.4847731e-03
1.9207248e-02
3.0364735e-02
2.9734569e-02
3.0518798e-02
4.0601137e-02
5.2832124e-02
5.3141431e-02
3.5064931e-02
1.1469851e-02
-9.2267916e-03
-2.0695317e-02
-2.1250006e-02
-1.4946688e-02
4.0191575e-03
3.5863914e-02
6.1731426e-02
5.8287841e-02
3.3316160e-02
9.8412424e-03
-5.4922508e-03
-4.3323681e-03
9.7566594e-03
2.4798374e-02
4.7835323e-02
8.2931330e-02
1.0939663e-01
9.7668733e-02
5.5214129e-02
1.3670132e-02
-1.5783990e-02
-2.7313829e-02
-1.6583879e-02
1.2380215e-02
5.7219515e-02
1.1386275e-01
1.5873143e-01
1.5612414e-01
1.1331182e-01
6.2524253e-02
1.2379828e-02
-2.7818373e-02
-5.5486865e-02
-7.6807734e-02
-8.5587658e-02
-7.8640696e-02
-6.4776046e-02
-5.3834046e-02
-4.0050953e-02
-2.2061709e-02
-8.2277950e-03
1.0518595e-03
-2.5067334e-03
-1.5965771e-02
-2.1058240e-02
-1.4504388e-02
-3.6264187e-03
1.7196092e-04
-4.2391390e-03
-1.0998885e-02
-2.0846268e-02
-3.0593987e-02
-4.0918396e-02
-4.9046401e-02
-4.5207958e-02
-2.8936948e-02
-5.0443909e-03
1.8152731e-02
4.0590602e-02
5.7579245e-02
5.7555655e-02
4.8237760e-02
3.6697125e-02
3.0028498e-02
3.6310089e-02
5.5239975e-02
8.2888569e-02
1.0019751e-01
9.6288862e-02
7.9116222e-02
5.3401437e-02
2.1483610e-02
-1.6248606e-02
-5.5201167e-02
-8.8626629e-02
-1.1453656e-01
-1.3069415e-01
-1.3583872e-01
-1.2726219e-01
-1.1363615e-01
-1.0706804e-01
-1.0801242e-01
-1.1596801e-01
-1.2029698e-01
-1.1107890e-01
-8.9129873e-02
-5.4200347e-02
-9.8008844e-03
4.1492674e-02
8.9334006e-02
1.2239774e-01
1.3548030e-01
1.2069753e-01
9.1293959e-02
6.2211650e-02
3.9405159e-02
3.2250388e-02
4.1621691e-02
6.7237820e-02
9.5706852e-02
1.0948361e-01
1.0012415e-01
6.3031405e-02
1.7396956e-02
-1.9204629e-02
-4.3907625e-02
-5.3259928e-02
-4.9281649e-02
-3.2646176e-02
-9.1448354e-03
1.2901139e-02
1.9203201e-02
-3.0782335e-03
-3.6523151e-02
-6.6652176e-02
-9.0375231e-02
-1.0442363e-01
-1.1262693e-01
-1.1215218e-01
-1.0042994e-01
-8.0341327e-02
-6.2958395e-02
-5.7021405e-02
-5.5944955e-02
-5.5598189e-02
-4.8011699e-02
-2.1317343e-02
2.5949745e-02
8.5744563e-02
1.3537698e-01
1.6515933e-01
1.7330544e-01
1.5285058e-01
1.1709305e-01
7.1611154e-02
2.2585607e-02
-8.7855241e-03
-1.5357481e-02
-2.3813183e-03
1.5632459e-02
3.0858567e-02
3.5452979e-02
1.9526203e-02
-5.7460773e-03
-3.4787918e-02
-6.1533679e-02
-6.9742482e-02
-5.5907822e-02
-2.7143318e-02
1.3399424e-03
2.4147367e-02
3.1107862e-02
9.3058606e-03
-2.1887879e-02
-5.0845417e-02
-7.6710111e-02
-8.8230069e-02
-8.1446796e-02
-6.0785744e-02
-3.9525350e-02
-2.2031313e-02
-1.6872614e-02
-3.5693310e-02
-6.2965288e-02
-9.0544005e-02
-1.1352244e-01
-1.1464496e-01
-8.8114353e-02
-3.9780599e-02
1.8829008e-02
8.1943689e-02
1.3248927e-01
1.5787369e-01
1.7171023e-01
1.6099610e-01
1.1659518e-01
7.1010285e-02
4.8582779e-02
5.0793464e-02
6.8344074e-02
9.6506020e-02
1.1701247e-01
1.1189274e-01
9.3653739e-02
5.7414382e-02
3.3175646e-03
-3.8667893e-02
-5.2773820e-02
-4.5070105e-02
-3.0453538e-02
-9.5106929e-03
7.0636559e-03
9.0466554e-04
-1.4387734e-02
-3.6475692e-02
-6.8756779e-02
-9.1903247e-02
-9.4271449e-02
-8.0400994e-02
-5.9670788e-02
-3.3686936e-02
-1.9489219e-02
-3.2805862e-02
-5.4152428e-02
-7.4567284e-02
-9.2083616e-02
-9.1924181e-02
-6.7652004e-02
-2.7250850e-02
1.5497466e-02
5.7070282e-02
7.9140338e-02
6.8775371e-02
5.0328835e-02
3.2544162e-02
1.6337888e-02
1.6703524e-02
3.9667784e-02
6.8820004e-02
8.3912637e-02
9.4711117e-02
9.6543449e-02
7.6617511e-02
5.2784369e-02
3.0572362e-02
1.0860441e-02
7.2990681e-03
2.5159230e-02
5.3942857e-02
8.2368837e-02
1.1207959e-01
1.2254005e-01
9.8016892e-02
6.2878210e-02
2.2522165e-02
-2.8602879e-02
-7.6421178e-02
-1.1102728e-01
-1.3781483e-01
-1.6438975e-01
-1.8422615e-01
-1.9548709e-01
-2.0266073e-01
-2.0456228e-01
-2.0458545e-01
-2.0098891e-01
-1.8466732e-01
-1.5158648e-01
-1.0821047e-01
-6.2565996e-02
-1.7663713e-02
7.3894551e-03
5.6607031e-03
7.5468955e-04
9.1072877e-04
7.2579119e-03
3.1471882e-02
8.0203771e-02
1.4555556e-01
2.1544923e-01
2.7587716e-01
2.9426360e-01
2.7098162e-01
2.3853473e-01
1.9397616e-01
1.3508258e-01
8.2546068e-02
4.8499577e-02
3.7191091e-02
4.8957075e-02
7.0482433e-02
6.9151198e-02
3.7183954e-02
8.2401717e-04
-3.1377871e-02
-5.7687870e-02
-6.7303470e-02
-5.6194478e-02
-3.4074853e-02
-1.1967399e-02
8.8260419e-03
8.4831180e-03
-2.3429296e-02
-6.2460474e-02
-9.9200742e-02
-1.3534494e-01
-1.6289365e-01
-1.7624946e-01
-1.7766632e-01
-1.7278974e-01
-1.6158436e-01
-1.4769167e-01
-1.3610943e-01
-1.2180060e-01
-1.0245402e-01
-7.7439376e-02
-3.9696876e-02
1.5686606e-02
8.0977113e-02
1.4596803e-01
2.0237340e-01
2.2458470e-01
2.0450953e-01
1.7051092e-01
1.3379623e-01
9.1217883e-02
5.6502681e-02
4.2172081e-02
4.0372607e-02
3.9387864e-02
3.6197111e-02
2.3687490e-02
4.1286659e-03
-9.5870262e-03
-1.5905188e-02
-1.5679670e-02
-5.2991192e-03
1.7141927e-02
3.5786909e-02
3.3782314e-02
2.1064704e-02
3.4183850e-03
-2.2593423e-02
-5.1288054e-02
-7.5169773e-02
-9.0981922e-02
-9.7995299e-02
-9.4454982e-02
-8.8579576e-02
-9.0380593e-02
-9.4860785e-02
-9.7575871e-02
-9.8044393e-02
-9.2462087e-02
-7.6546564e-02
-4.8765274e-02
-1.2253381e-02
3.0215297e-02
6.8588147e-02
9.3104373e-02
1.0384652e-01
9.7973206e-02
7.8695677e-02
5.5765819e-02
3.8404488e-02
3.2456936e-02
3.4755269e-02
4.2372999e-02
4.5249502e-02
3.2917227e-02
1.3717259e-02
-5.5145539e-03
-2.2949454e-02
-3.4011262e-02
-3.5186972e-02
-2.5164823e-02
-8.2520948e-03
1.2622541e-02
2.6969395e-02
2.4157309e-02
1.0966880e-02
-6.9635900e-03
-2.5266250e-02
-3.8752355e-02
-4.5817407e-02
-4.3383400e-02
-3.3746882e-02
-2.2991305e-02
-1.8649960e-02
-2.3794333e-02
-3.0367296e-02
-3.3635876e-02
-3.5223187e-02
-3.5658931e-02
-3.1516934e-02
-1.8273474e-02
6.5966257e-04
1.9764121e-02
2.8515412e-02
1.9561496e-02
4.1914146e-03
-8.7421889e-03
-1.7397735e-02
-1.9645683e-02
-1.2980550e-02
4.2907175e-03
2.6378480e-02
4.4042183e-02
4.7725090e-02
3.8456733e-02
2.9969408e-02
2.8260608e-02
2.7615978e-02
2.3889098e-02
2.4094931e-02
3.4001810e-02
4.7840018e-02
5.6139721e-02
5.1539655e-02
3.8687586e-02
2.5589771e-02
1.2818802e-02
1.2818291e-03
-8.7097885e-03
-1.3162105e-02
-7.3550115e-03
3.5632168e-03
1.3961667e-02
1.5254256e-02
2.1096079e-03
-1.4850468e-02
-2.8229757e-02
-3.6855549e-02
-4.0335422e-02
-3.8382237e-02
-2.9323129e-02
-1.8958723e-02
-1.9399454e-02
-3.7260632e-02
-6.6767135e-02
-9.5965069e-02
-1.1737207e-01
-1.2995493e-01
-1.3541794e-01
-1.3379389e-01
-1.2330528e-01
-1.0616751e-01
-8.6176800e-02
-6.9612426e-02
-5.9940820e-02
-4.8351149e-02
-2.7912776e-02
-2.3347498e-03
2.5118022e-02
6.1618251e-02
1.1297407e-01
1.6918076e-01
2.1167623e-01
2.2397048e-01
2.0816672e-01
1.7608990e-01
1.3173332e-01
8.2791091e-02
3.4839367e-02
-4.8096873e-03
-2.5536324e-02
-2.6284990e-02
-1.2043515e-02
9.5295967e-03
3.5015471e-02
5.7248468e-02
6.8128705e-02
6.6699468e-02
5.0256563e-02
2.8372096e-02
1.3815676e-02
2.2267337e-03
-1.1158422e-02
-2.5345246e-02
-3.9122377e-02
-4.8656986e-02
-5.0440124e-02
-4.3910706e-02
-2.9983846e-02
-8.9936256e-03
1.5654309e-02
3.1146271e-02
2.4690196e-02
1.3623771e-03
-2.1197093e-02
-3.5789210e-02
-4.4880485e-02
-4.8194225e-02
-4.7307041e-02
-4.4438904e-02
-3.9667261e-02
-3.7413842e-02
-4.2989003e-02
-5.4277086e-02
-6.2067491e-02
-6.3987930e-02
-6.3247036e-02
-5.9737685e-02
-5.6790333e-02
-5.4774140e-02
-4.9241560e-02
-4.1938456e-02
-3.8133410e-02
-3.5792085e-02
-2.7628772e-02
-1.5910153e-02
-3.6415664e-03
1.2805737e-02
3.2397412e-02
5.6566464e-02
8.7453767e-02
1.1509010e-01
1.1723500e-01
8.8293450e-02
5.2513070e-02
2.1877171e-02
-4.2325250e-03
-1.7685732e-02
-1.6164945e-02
-1.4260432e-03
2.4577326e-02
5.0792021e-02
5.9781239e-02
5.0499637e-02
3.9042578e-02
2.9462537e-02
2.3715784e-02
3.0324173e-02
4.7961900e-02
7.2309748e-02
9.9185955e-02
1.1607955e-01
1.0438988e-01
6.5379441e-02
2.5597533e-02
-3.5596371e-03
-2.7166507e-02
-4.5731362e-02
-5.9256030e-02
-6.6362907e-02
-6.8268228e-02
-6.9949265e-02
-7.5584156e-02
-8.5714845e-02
-9.4299421e-02
-9.9116797e-02
-9.9889119e-02
-9.4813917e-02
-8.6140498e-02
-7.4010422e-02
-5.9800662e-02
-4.7258836e-02
-3.9643495e-02
-3.6985126e-02
-3.3620255e-02
-2.8349509e-02
-1.9303048e-02
-4.9778194e-03
8.8846663e-03
2.2450346e-02
3.7708318e-02
4.8104277e-02
4.5625162e-02
3.4094569e-02
2.6211560e-02
2.5975209e-02
3.4631225e-02
4.9599923e-02
6.1616611e-02
7.3695285e-02
9.1088587e-02
1.0015338e-01
8.1987739e-02
4.4116397e-02
1.1134154e-02
-8.0129965e-03
-1.4131739e-02
-9.2680215e-03
2.1217358e-03
2.0818807e-02
4.6821642e-02
6.6037587e-02
5.8264729e-02
2.7654833e-02
-2.1364667e-03
-2.1684042e-02
-3.3055150e-02
-4.2632331e-02
-5.6164485e-02
-6.7043494e-02
-7.0341767e-02
-7.0214829e-02
-7.0573062e-02
-7.0243667e-02
-6.5261655e-02
-5.4876190e-02
-3.7552369e-02
-1.9550177e-02
-1.0016168e-02
-5.0936231e-04
1.4082060e-02
2.4443778e-02
2.4753645e-02
2.2179922e-02
2.2348333e-02
2.1203662e-02
2.4730295e-02
3.0829829e-02
2.8165441e-02
2.5412568e-02
2.8281428e-02
2.3967877e-02
8.5829162e-04
-3.3580193e-02
-6.4486586e-02
-8.8112513e-02
-1.0153721e-01
-1.0626229e-01
-1.0811172e-01
-1.0384124e-01
-9.2294206e-02
-7.7412546e-02
-6.3746572e-02
-5.1020337e-02
-3.4417143e-02
-1.3591607e-02
1.7369257e-02
5.9419447e-02
1.0698333e-01
1.6376197e-01
2.2838740e-01
2.7723723e-01
2.7256196e-01
2.1579832e-01
1.4731677e-01
8.7486201e-02
4.0105169e-02
3.9106817e-03
-2.4465654e-02
-3.9665352e-02
-4.1323474e-02
-4.2695761e-02
-5.9153119e-02
-8.6080431e-02
-1.0842896e-01
-1.2271508e-01
-1.2723382e-01
-1.2366310e-01
-1.1484908e-01
-9.5655883e-02
-6.6229513e-02
-3.2689573e-02
5.6901116e-04
3.3763630e-02
7.0008223e-02
1.0863660e-01
1.3580186e-01
1.2763700e-01
8.8959909e-02
4.8947263e-02
1.9287635e-02
-3.3308833e-03
-2.7186698e-02
-5.4090217e-02
-7.4990870e-02
-8.5853169e-02
-8.9877798e-02
-9.1238422e-02
-8.6740927e-02
-7.0107443e-02
-4.2749453e-02
-1.0780747e-02
1.8298073e-02
4.5608307e-02
7.4676569e-02
1.0108584e-01
1.1819146e-01
1.1524114e-01
9.7989344e-02
8.6370911e-02
8.5575358e-02
8.5005971e-02
6.8627169e-02
3.6747401e-02
2.2374535e-03
-2.9497969e-02
-5.6312757e-02
-7.8044420e-02
-9.3843577e-02
-9.9963598e-02
-9.3871602e-02
-7.5163208e-02
-4.7713046e-02
-1.4151596e-02
1.8353363e-02
4.1812953e-02
4.7147088e-02
2.5586827e-02
-5.7391522e-03
-2.9645045e-02
-4.4432116e-02
-4.8125401e-02
-4.2533280e-02
-2.9312440e-02
-2.2178017e-02
-3.5004256e-02
-5.7265353e-02
-7.9929595e-02
-9.8628079e-02
-1.0776431e-01
-1.0575577e-01
-8.9700403e-02
-6.0399058e-02
-1.9048020e-02
2.0393628e-02
4.2207005e-02
4.4639028e-02
2.6094408e-02
-1.1204194e-03
-2.3899745e-02
-3.4604164e-02
-2.4145506e-02
7.8605953e-03
6.0063174e-02
1.1736873e-01
1.6461320e-01
1.9726190e-01
2.1117282e-01
2.0875309e-01
1.7873610e-01
1.2068428e-01
6.1499878e-02
2.0061217e-02
-9.6020664e-04
-1.1512726e-02
-1.9494732e-02
-3.5111847e-02
-6.5959328e-02
-1.0026057e-01
-1.3068675e-01
-1.5137109e-01
-1.5270574e-01
-1.3435811e-01
-9.9072531e-02
-5.9282901e-02
-2.5130311e-02
-5.4263769e-03
-8.4413385e-03
-2.1812244e-02
-4.2821605e-02
-6.8731608e-02
-7.9088852e-02
-6.4674679e-02
-3.1656062e-02
2.7934656e-03
3.2889296e-02
5.1110116e-02
4.4751361e-02
2.7731750e-02
5.0448132e-03
-1.9952960e-02
-2.6256222e-02
-5.9518016e-03
3.3547613e-02
7.5116768e-02
1.1422519e-01
1.4377778e-01
1.5253682e-01
1.5065377e-01
1.2566414e-01
7.0548935e-02
1.7682568e-02
-9.8681168e-03
-9.5297697e-03
1.0054418e-02
3.9959575e-02
5.9338202e-02
5.3722566e-02
3.8272216e-02
1.0337326e-02
-3.1062661e-02
-6.1882710e-02
-6.8218163e-02
-5.5736240e-02
-4.2359447e-02
-3.0787193e-02
-2.2981661e-02
-2.6334440e-02
-3.0421200e-02
-3.9138759e-02
-5.5001063e-02
-5.7467632e-02
-3.5461397e-02
3.4644091e-03
4.1635096e-02
7.2921883e-02
8.5505289e-02
6.8997037e-02
4.3580132e-02
1.4250900e-02
-1.9712861e-02
-4.0205782e-02
-3.9692960e-02
-2.7619995e-02
-1.5992844e-02
-5.1554486e-04
8.9934789e-03
-4.1529854e-03
-2.4864840e-02
-4.6876747e-02
-6.9497927e-02
-7.7254263e-02
-6.2619067e-02
-2.8570162e-02
1.7715457e-02
6.8117150e-02
9.6328718e-02
8.8717439e-02
6.7988390e-02
3.6825234e-02
-6.9521201e-03
-4.3554736e-02
-6.1535184e-02
-6.2086986e-02
-4.9658997e-02
-3.2715864e-02
-3.7614224e-02
-7.3401892e-02
-1.1209476e-01
-1.3952786e-01
-1.5220371e-01
-1.4132779e-01
-1.0575020e-01
-5.8149871e-02
-1.5840481e-02
1.4262424e-02
2.5655356e-02
2.7876070e-02
3.8059768e-02
3.9551114e-02
2.1511171e-02
8.4160209e-03
1.9941885e-02
5.1762795e-02
9.5534150e-02
1.4830835e-01
1.8431902e-01
1.9028177e-01
1.9124929e-01
1.8427769e-01
1.5774852e-01
1.3360626e-01
1.3189331e-01
1.4574733e-01
1.6275945e-01
1.7994052e-01
1.7104372e-01
1.2477777e-01
7.2653694e-02
2.5091640e-02
-2.2175545e-02
-6.0220653e-02
-8.2227696e-02
-9.1841895e-02
-9.4633973e-02
-9.3035567e-02
-9.8871096e-02
-1.1459026e-01
-1.2468579e-01
-1.2742821e-01
-1.2790980e-01
-1.2261789e-01
-1.0874476e-01
-9.1716642e-02
-7.8987473e-02
-7.0030770e-02
-6.7412727e-02
-7.0465250e-02
-7.0454794e-02
-6.6091485e-02
-5.7320256e-02
-4.1337561e-02
-1.6764735e-02
3.5095996e-03
5.4053421e-03
-1.0227125e-03
-7.7401547e-03
-1.7159670e-02
-2.6521542e-02
-3.0565337e-02
-2.7115235e-02
-1.5143715e-02
8.0248751e-03
3.1799613e-02
4.3578967e-02
4.7995699e-02
4.7074136e-02
4.2597429e-02
4.1942144e-02
4.3646276e-02
4.4059139e-02
4.4154499e-02
4.5944037e-02
4.6710974e-02
4.3301818e-02
3.6054104e-02
1.9972191e-02
-2.5806512e-03
-2.0410692e-02
-2.9768339e-02
-3.1381272e-02
-2.8543682e-02
-2.3262596e-02
-2.0406711e-02
-2.5993995e-02
-3.3586064e-02
-3.7848992e-02
-3.8846850e-02
-3.4822567e-02
-2.5436387e-02
-1.0628252e-02
7.6908631e-03
2.6688613e-02
3.9839377e-02
4.2675786e-02
3.7143304e-02
2.2565035e-02
3.9567695e-03
-1.2062866e-02
-2.2053641e-02
-2.2926431e-02
-1.7386243e-02
-7.3882961e-03
-9.9399475e-04
-6.8108268e-03
-1.7520003e-02
-2.6473089e-02
-3.2442948e-02
-3.4136147e-02
-3.0254215e-02
-1.8654908e-02
-2.8113640e-03
1.2764440e-02
2.0831586e-02
1.6058778e-02
6.3416311e-03
-2.0386047e-03
-7.9786178e-03
-1.0087468e-02
-4.7093585e-03
1.0943689e-02
3.2345755e-02
5.4167335e-02
6.8357836e-02
7.2704948e-02
6.9625524e-02
5.7628440e-02
4.3564007e-02
3.1199673e-02
2.2345782e-02
2.0883378e-02
2.0556343e-02
1.4666189e-02
1.5287552e-03
-1.5678396e-02
-3.0375753e-02
-3.9694584e-02
-4.3933861e-02
-4.5234620e-02
-4.2632282e-02
-3.4585800e-02
-2.6210658e-02
-2.1186323e-02
-2.0151838e-02
-2.0983047e-02
-2.0953819e-02
-2.0623896e-02
-1.9468950e-02
-1.8373871e-02
-1.6192723e-02
-1.0251627e-02
-2.7157635e-03
4.1686592e-03
6.5677236e-03
3.8164988e-03
-1.2125106e-03
-9.5921728e-03
-1.8823591e-02
-2.6604755e-02
-3.2292587e-02
-3.3462602e-02
-3.2416965e-02
-3.1785575e-02
-3.2819383e-02
-3.4139403e-02
-3.5246520e-02
-3.8591543e-02
-4.0992164e-02
-4.1027906e-02
-3.7015310e-02
-2.5301889e-02
-8.9442297e-03
8.0155820e-03
2.6279265e-02
5.1276830e-02
7.6067269e-02
9.0747421e-02
9.7781517e-02
9.5954045e-02
9.3259122e-02
1.0030461e-01
1.0563345e-01
9.2056633e-02
6.3235687e-02
3.8606102e-02
2.3916546e-02
1.3835757e-02
7.6050723e-03
4.4750141e-03
7.6102882e-03
2.0056240e-02
3.2193966e-02
3.1088237e-02
1.7730501e-02
5.6283758e-03
-1.7151990e-04
-3.5570446e-03
-6.3459496e-03
-9.8885162e-03
-1.0916698e-02
-7.7347158e-03
-7.5434459e-03
-1.6638083e-02
-3.4602654e-02
-5.5363760e-02
-7.2998654e-02
-8.7188796e-02
-1.0091461e-01
-1.1597566e-01
-1.2902870e-01
-1.3651732e-01
-1.3900081e-01
-1.3791519e-01
-1.3416471e-01
-1.2577679e-01
-1.1175024e-01
-9.2630608e-02
-6.8014238e-02
-3.9439843e-02
-6.1596326e-03
3.2962352e-02
7.6049706e-02
1.1759834e-01
1.5350117e-01
1.8398547e-01
1.9374433e-01
1.7723609e-01
1.5456639e-01
1.3300659e-01
1.1405878e-01
1.0138226e-01
8.7826004e-02
6.1043703e-02
2.1831003e-02
-1.4074767e-02
-4.3038718e-02
-6.7823979e-02
-8.5740307e-02
-9.8066391e-02
-1.0364327e-01
-1.0093832e-01
-9.2954260e-02
-8.3248617e-02
-7.1706355e-02
-5.6907085e-02
-4.2265198e-02
-2.3888038e-02
5.1994039e-03
4.3080435e-02
8.6719277e-02
1.3091414e-01
1.5649468e-01
1.4263347e-01
1.0108701e-01
6.1848719e-02
3.3768854e-02
1.2787422e-02
-2.6627186e-03
-1.3844544e-02
-1.8387004e-02
-1.5878732e-02
-1.0214443e-02
-9.8294412e-03
-1.9846844e-02
-3.1335618e-02
-4.0324012e-02
-4.5917360e-02
-4.6018511e-02
-4.4322604e-02
-3.9186518e-02
-2.8991136e-02
-1.4944636e-02
-3.4520316e-04
1.1460840e-02
1.9748529e-02
2.0694678e-02
2.0833848e-02
2.1532162e-02
1.2571989e-02
2.1391653e-04
-8.2713810e-03
-1.5482363e-02
-2.6304612e-02
-4.2723629e-02
-5.8719789e-02
-7.1029162e-02
-7.6952332e-02
-7.7382619e-02
-7.7720797e-02
-7.4618934e-02
-6.7063767e-02
-5.8878465e-02
-5.4473221e-02
-5.5065774e-02
-5.1943265e-02
-4.0103864e-02
-1.7669645e-02
1.5719803e-02
5.5688268e-02
1.0287255e-01
1.5737112e-01
1.9941737e-01
1.9372988e-01
1.4137212e-01
8.1986691e-02
3.6292388e-02
5.5251221e-03
-1.3839742e-02
-2.7394358e-02
-3.1338738e-02
-2.3814222e-02
-1.2925086e-02
-1.1172866e-02
-1.9287511e-02
-2.9794896e-02
-4.2542299e-02
-4.9157434e-02
-4.3237944e-02
-2.8820125e-02
-4.2161240e-03
2.8796515e-02
5.4712451e-02
5.7999209e-02
4.4945061e-02
2.9448666e-02
1.4247641e-02
6.9712387e-03
5.5786145e-03
-1.3241250e-03
-5.8767254e-03
-1.6075775e-03
-7.1083772e-05
-1.6471868e-02
-4.7231937e-02
-7.5191692e-02
-9.3692269e-02
-1.0002648e-01
-9.6959538e-02
-9.0732534e-02
-7.5928226e-02
-4.9800994e-02
-2.2301180e-02
-3.8015433e-03
1.0200111e-02
2.4094639e-02
3.3205074e-02
4.6455239e-02
6.8697423e-02
9.4570433e-02
1.2707399e-01
1.6603448e-01
1.9287678e-01
1.7681635e-01
1.2064138e-01
5.9950530e-02
1.1948582e-02
-2.1951149e-02
-4.6112620e-02
-6.5006246e-02
-7.3538672e-02
-7.2435580e-02
-7.3056642e-02
-8.4085267e-02
-9.8444388e-02
-1.0304814e-01
-9.5593808e-02
-8.0140303e-02
-6.2173526e-02
-4.1112093e-02
-1.0000441e-02
3.1849650e-02
7.9866460e-02
1.2481792e-01
1.6382906e-01
1.9267398e-01
2.0370131e-01
2.0014446e-01
1.6808337e-01
1.0483457e-01
3.8239392e-02
-1.7649390e-02
-6.2590437e-02
-9.6581816e-02
-1.2027391e-01
-1.3486416e-01
-1.4090060e-01
-1.4125472e-01
-1.4254268e-01
-1.4432406e-01
-1.4196343e-01
-1.3596211e-01
-1.2770819e-01
-1.1728342e-01
-1.0143709e-01
-8.0767314e-02
-5.9210793e-02
-3.5882569e-02
-1.1565694e-02
1.6438588e-02
5.3425594e-02
9.9002302e-02
1.4575292e-01
1.7180456e-01
1.6511288e-01
1.3760371e-01
9.9607839e-02
5.7841221e-02
1.8317044e-02
-1.3550608e-02
-3.3744348e-02
-4.1591385e-02
-3.5439289e-02
-1.7279372e-02
1.1278397e-02
4.0329436e-02
5.7535945e-02
6.0807523e-02
4.9053021e-02
3.1862503e-02
1.7331207e-02
8.3066763e-03
1.0496370e-02
2.3441701e-02
4.7298439e-02
6.5270608e-02
5.6988676e-02
2.8025047e-02
-1.3384984e-02
-5.5971925e-02
-9.0819134e-02
-1.1756083e-01
-1.3358017e-01
-1.3873728e-01
-1.3279475e-01
-1.2061528e-01
-1.0809435e-01
-1.0372217e-01
-1.1544414e-01
-1.2880889e-01
-1.3076940e-01
-1.2044051e-01
-9.4171252e-02
-5.2776942e-02
-8.1304881e-04
4.6748414e-02
7.9860799e-02
1.0377620e-01
1.1996902e-01
1.2989789e-01
1.3333023e-01
1.3878692e-01
1.5627294e-01
1.7906810e-01
1.8848219e-01
1.6195293e-01
1.0493705e-01
4.8919696e-02
1.4327024e-02
-3.5472799e-03
-1.9405676e-02
-3.1659732e-02
-2.8736141e-02
-7.4259405e-03
2.8482327e-02
5.9004354e-02
6.8751848e-02
5.4810702e-02
1.4413935e-02
-3.4626450e-02
-7.6869004e-02
-1.0677803e-01
-1.1712586e-01
-1.0823177e-01
-8.1730610e-02
-4.9742168e-02
-2.4522944e-02
-1.2939297e-02
-2.2803871e-02
-4.3103099e-02
-6.2570967e-02
-7.5478909e-02
-7.2208385e-02
-5.0833606e-02
-1.9514387e-02
1.8389536e-03
7.5876161e-03
1.0668593e-03
-1.9529507e-02
-4.1585466e-02
-5.7944053e-02
-6.4768347e-02
-5.1205032e-02
-1.6035864e-02
3.1681197e-02
7.3976923e-02
1.0660044e-01
1.2935196e-01
1.3740259e-01
1.3873116e-01
1.2412736e-01
9.0539414e-02
6.3735901e-02
6.0639738e-02
7.5290718e-02
7.9993315e-02
6.4808733e-02
3.8352159e-02
9.8721509e-04
-3.6094435e-02
-6.7121760e-02
-8.9844634e-02
-9.3068103e-02
-7.5060505e-02
-4.3788443e-02
-1.2472546e-02
1.7639888e-02
3.6612098e-02
2.8552012e-02
9.3160098e-03
-1.4943230e-02
-4.5583768e-02
-6.5353899e-02
-6.5035803e-02
-4.9383292e-02
-2.9221161e-02
-6.3037793e-03
6.4171484e-03
-7.0204685e-03
-3.0177882e-02
-5.4026718e-02
-7.6036460e-02
-8.2319150e-02
-6.8338559e-02
-3.8221094e-02
-2.4379729e-03
3.3459317e-02
5.4037266e-02
4.4849263e-02
2.5100534e-02
3.0446743e-03
-2.1812235e-02
-3.3849385e-02
-2.5414506e-02
1.3112438e-03
3.9479195e-02
8.4283251e-02
1.1487099e-01
1.1423372e-01
9.7465639e-02
6.7764722e-02
2.9379144e-02
2.5980543e-03
-4.1325761e-03
6.0758912e-03
1.7345163e-02
2.1413422e-02
1.7801860e-02
3.4314649e-03
-1.2374688e-02
-3.3173882e-02
-6.3081560e-02
-8.3985707e-02
-8.4386749e-02
-6.5023730e-02
-3.3348170e-02
1.9714142e-03
1.9323359e-02
5.2838972e-03
-1.7030537e-02
-3.7723720e-02
-5.9000873e-02
-6.8167955e-02
-5.7339807e-02
-3.5660676e-02
-1.7098268e-02
2.1518406e-03
1.1265004e-02
-4.2641077e-03
-2.2278152e-02
-3.1649714e-02
-3.3280111e-02
-1.7210753e-02
1.9565956e-02
6.0550407e-02
8.4993010e-02
1.0038341e-01
1.0033910e-01
7.1761322e-02
3.8304784e-02
7.8778652e-03
-2.3310277e-02
-4.1305504e-02
-3.6894171e-02
-1.3938973e-02
2.1139128e-02
6.3508636e-02
8.5140290e-02
7.2041805e-02
4.9087855e-02
1.8959790e-02
-2.2156106e-02
-5.4588763e-02
-6.2752972e-02
-5.3223413e-02
-4.0280210e-02
-2.2859531e-02
-1.3320378e-02
-2.4206939e-02
-3.7612603e-02
-4.8553935e-02
-6.0903998e-02
-6.3014683e-02
-4.5667412e-02
-1.1020611e-02
3.4256201e-02
7.9569581e-02
9.5384505e-02
7.3798287e-02
4.5611015e-02
1.9573514e-02
-5.5542448e-03
-1.5710080e-02
-2.8821807e-03
2.2115510e-02
4.5937924e-02
7.2611170e-02
8.5167031e-02
6.8273671e-02
4.4815771e-02
2.0638875e-02
-8.6424054e-03
-2.9257438e-02
-3.0536544e-02
-1.4425278e-02
1.3356225e-02
4.7787261e-02
6.4532164e-02
5.2368691e-02
3.4222597e-02
1.4959246e-02
-6.9809745e-03
-1.7665718e-02
-9.8121772e-03
1.1540685e-02
3.8635948e-02
6.5883444e-02
6.9296441e-02
3.6329963e-02
-6.1863895e-03
-4.3778436e-02
-7.7491290e-02
-1.0149729e-01
-1.1377003e-01
-1.2253026e-01
-1.3640444e-01
-1.4893672e-01
-1.5584086e-01
-1.5742098e-01
-1.4773187e-01
-1.2927428e-01
-1.0585204e-01
-7.2252629e-02
-2.4669199e-02
2.8074528e-02
7.5153243e-02
1.1267138e-01
1.2323456e-01
1.0401985e-01
8.0682667e-02
6.0658064e-02
4.1967226e-02
3.4618340e-02
4.4939357e-02
6.5147214e-02
8.5614977e-02
9.9313837e-02
8.9474907e-02
5.8401803e-02
2.9324190e-02
8.4828100e-03
-3.1774038e-03
9.5956087e-04
2.1531338e-02
4.8320176e-02
7.1251543e-02
8.3720327e-02
7.0036448e-02
3.3008056e-02
-3.7863863e-03
-3.3843093e-02
-5.9370607e-02
-7.7574345e-02
-8.6040145e-02
-8.8928718e-02
-9.2615569e-02
-9.3740748e-02
-9.3376471e-02
-9.5497423e-02
-9.4082751e-02
-8.4830584e-02
-6.6622596e-02
-3.8125073e-02
1.5390313e-03
4.3943602e-02
7.8874529e-02
1.0099728e-01
9.9123170e-02
7.4569058e-02
4.2668194e-02
1.6774970e-02
3.6728975e-03
1.1724844e-03
7.5858782e-03
1.5397587e-02
1.4238771e-02
6.3686485e-03
-6.0649125e-03
-2.5257486e-02
-4.8622193e-02
-6.5763422e-02
-6.7484984e-02
-5.4655020e-02
-3.0978479e-02
-5.6008945e-03
1.2208036e-02
2.3315666e-02
2.6279648e-02
1.8418997e-02
5.0228690e-03
-4.7678673e-03
-6.1847124e-03
-7.6482210e-05
1.2582775e-02
2.1236318e-02
1.5711739e-02
3.8399357e-03
-8.0448882e-03
-1.5944529e-02
-1.4227889e-02
-2.1983104e-03
2.1140733e-02
5.2276584e-02
8.7406713e-02
1.1687414e-01
1.3089468e-01
1.2945874e-01
1.1027835e-01
7.7097435e-02
3.6457778e-02
-2.1666991e-03
-3.0193541e-02
-4.9774892e-02
-6.2712419e-02
-7.1956024e-02
-8.0751539e-02
-8.6355753e-02
-8.7877655e-02
-8.6679247e-02
-8.1012411e-02
-6.9003679e-02
-4.9985684e-02
-2.6833525e-02
-2.7324208e-03
1.3944990e-02
1.5699687e-02
1.1882179e-02
1.0763527e-02
8.0607002e-03
-1.3562142e-03
-1.3752657e-02
-2.3051920e-02
-3.1439155e-02
-4.2955584e-02
-5.6200401e-02
-6.6187879e-02
-6.9493581e-02
-6.6198464e-02
-5.9563926e-02
-5.2441948e-02
-4.1367831e-02
-2.2091287e-02
4.5989459e-03
3.5593832e-02
5.8355090e-02
6.4640417e-02
6.2541119e-02
5.7114883e-02
5.2767487e-02
5.5278143e-02
6.8251765e-02
9.5446867e-02
1.3333208e-01
1.6504055e-01
1.6914277e-01
1.4706888e-01
1.1724428e-01
8.7192177e-02
5.3722871e-02
1.4734121e-02
-2.3021750e-02
-5.2091575e-02
-7.1529564e-02
-8.5780874e-02
-1.0011871e-01
-1.1287422e-01
-1.2184883e-01
-1.2815851e-01
-1.3230301e-01
-1.3371764e-01
-1.2951028e-01
-1.1758092e-01
-9.9850272e-02
-8.1048461e-02
-6.7421837e-02
-5.7962563e-02
-4.9120104e-02
-4.2082743e-02
-3.4492995e-02
-2.2612783e-02
-2.1410917e-03
2.9588225e-02
6.8999946e-02
1.0833802e-01
1.3936208e-01
1.6477150e-01
1.8297221e-01
1.8652808e-01
1.7447082e-01
1.4357599e-01
1.0573610e-01
7.5194611e-02
5.0070533e-02
2.6139043e-02
8.0210098e-04
-2.2170743e-02
-3.8480867e-02
-4.8611030e-02
-5.2990352e-02
-5.4070760e-02
-5.2644842e-02
-4.7294388e-02
-4.2230209e-02
-4.4054881e-02
-5.3299305e-02
-6.2072488e-02
-6.5036075e-02
-6.2682899e-02
-5.5050710e-02
-4.4989923e-02
-3.4165625e-02
-2.1885095e-02
-1.2946991e-02
-1.0657488e-02
-1.1336331e-02
-1.0245963e-02
-5.3417571e-03
2.5847200e-03
1.1563693e-02
1.9646021e-02
2.8863264e-02
4.0845780e-02
5.1323435e-02
5.3905865e-02
4.3721575e-02
2.3488617e-02
-5.7689623e-03
-4.3266370e-02
-7.5555801e-02
-9.6526845e-02
-1.1039652e-01
-1.1856680e-01
-1.2228177e-01
-1.1952839e-01
-1.0493270e-01
-7.5064608e-02
-3.5413365e-02
8.0197888e-03
4.7584117e-02
7.1850950e-02
9.0311885e-02
1.1427143e-01
1.3235121e-01
1.2684433e-01
9.9587142e-02
6.8980001e-02
4.0004124e-02
1.4849120e-02
1.7300986e-03
-1.6751247e-03
3.7243328e-05
6.6068849e-03
1.0032169e-02
-3.0334009e-03
-2.8854233e-02
-4.7488792e-02
-5.0389452e-02
-3.8697886e-02
-1.1931921e-02
2.7776683e-02
7.8923632e-02
1.3830405e-01
1.9136807e-01
2.1041881e-01
1.8613267e-01
1.4222195e-01
9.5676877e-02
5.0861687e-02
1.3464738e-02
-1.6941964e-02
-4.3774393e-02
-6.8848986e-02
-9.4923567e-02
-1.2187609e-01
-1.4331878e-01
-1.5421192e-01
-1.5490002e-01
-1.4530192e-01
-1.2563823e-01
-9.8778934e-02
-6.6257875e-02
-2.9902812e-02
6.9495829e-03
4.2647013e-02
8.0058695e-02
1.1642132e-01
1.3585855e-01
1.3623487e-01
1.1796069e-01
7.3239101e-02
1.8824509e-02
-2.8329853e-02
-6.7974995e-02
-9.9735836e-02
-1.2285960e-01
-1.3563631e-01
-1.3855391e-01
-1.3314141e-01
-1.2302786e-01
-1.1192199e-01
-9.5995473e-02
-7.4040407e-02
-5.1436778e-02
-3.2644752e-02
-1.6947103e-02
5.3417814e-04
2.2219270e-02
5.2085276e-02
9.0914328e-02
1.3393255e-01
1.8155073e-01
2.3106250e-01
2.6284104e-01
2.4563302e-01
1.8135496e-01
1.0942454e-01
4.9186612e-02
-6.3336374e-04
-4.1179461e-02
-7.4517752e-02
-9.9582798e-02
-1.1601907e-01
-1.2546167e-01
-1.3067942e-01
-1.3267816e-01
-1.2689532e-01
-1.1314789e-01
-9.3920015e-02
-7.0296976e-02
-4.4498585e-02
-1.3885245e-02
2.0267876e-02
4.5553377e-02
5.1100243e-02
4.4694635e-02
4.2719755e-02
4.8845286e-02
6.3706135e-02
7.3051611e-02
5.9155082e-02
3.8242249e-02
2.4442276e-02
1.3023719e-02
-2.5844847e-03
-2.3515607e-02
-4.2839507e-02
-5.7890938e-02
-6.5115815e-02
-6.7052852e-02
-7.0545704e-02
-6.8883651e-02
-5.7555390e-02
-4.7610655e-02
-5.2744320e-02
-6.7519146e-02
-7.3602764e-02
-6.3280783e-02
-3.5919662e-02
5.3718459e-03
5.4699744e-02
1.1092239e-01
1.6910945e-01
2.0661998e-01
1.9529145e-01
1.4512868e-01
9.3975549e-02
5.7378919e-02
3.6081276e-02
2.7106503e-02
2.4470438e-02
2.9800377e-02
4.2120384e-02
4.9866960e-02
3.6588428e-02
3.5833740e-03
-3.0197881e-02
-5.6302394e-02
-7.1387823e-02
-7.4832061e-02
-7.0832580e-02
-5.8875685e-02
-4.0860918e-02
-2.4008843e-02
-1.4997347e-02
-1.0968162e-02
-5.9364429e-03
-7.5506831e-04
9.4685335e-03
1.7541864e-02
9.6135354e-03
-3.4121263e-03
-9.2368732e-03
-6.9509457e-03
-8.1774891e-04
5.8202636e-03
3.3830906e-03
-1.8891299e-02
-4.6093915e-02
-6.2749202e-02
-6.8405803e-02
-6.4430898e-02
-5.3917628e-02
-4.0649564e-02
-3.0528376e-02
-2.4752774e-02
-2.0324863e-02
-1.5903688e-02
-7.6746370e-03
5.7548980e-03
2.5512607e-02
5.4209656e-02
8.9132587e-02
1.1635532e-01
1.1226298e-01
7.5983354e-02
3.0878896e-02
-9.9396172e-03
-4.2355397e-02
-6.4627288e-02
-7.7330753e-02
-7.9363359e-02
-7.2792143e-02
-6.6061577e-02
-6.9296290e-02
-8.1573604e-02
-9.6499386e-02
-1.1080803e-01
-1.1945048e-01
-1.2014560e-01
-1.1073210e-01
-8.9826980e-02
-6.0510488e-02
-2.4245412e-02
1.7332556e-02
5.9705852e-02
9.1789810e-02
1.1131451e-01
1.2913942e-01
1.4673794e-01
1.6707680e-01
1.9490592e-01
2.2599550e-01
2.5028460e-01
2.5614072e-01
2.4290133e-01
2.0625243e-01
1.4171855e-01
6.1775984e-02
-2.1754107e-02
-9.9299600e-02
-1.6405316e-01
-2.1209017e-01
-2.3896629e-01
-2.4550970e-01
-2.3408740e-01
-2.0782862e-01
-1.7039497e-01
-1.2918258e-01
-9.2162213e-02
-5.3405836e-02
-3.0043614e-03
5.7917903e-02
1.2080815e-01
1.6907477e-01
1.8541920e-01
1.7268975e-01
1.5207260e-01
1.3382432e-01
1.1739804e-01
1.0353332e-01
8.3323715e-02
5.3505529e-02
2.4160656e-02
1.9525647e-03
-1.2875604e-02
-2.6717981e-02
-4.1226140e-02
-5.5596708e-02
-7.1564775e-02
-8.5632803e-02
-9.6524742e-02
-9.8273119e-02
-8.3023486e-02
-5.2455734e-02
-1.3148609e-02
2.1830594e-02
4.7619331e-02
5.5751293e-02
3.4358303e-02
-6.7837591e-04
-3.7876776e-02
-7.5838554e-02
-1.0575149e-01
-1.2429467e-01
-1.3291047e-01
-1.3517995e-01
-1.3194106e-01
-1.3093707e-01
-1.4015398e-01
-1.5022132e-01
-1.5409088e-01
-1.4769562e-01
-1.2464777e-01
-8.3743775e-02
-2.5760343e-02
4.3298827e-02
1.1819504e-01
1.8201395e-01
2.2121639e-01
2.4772839e-01
2.5959160e-01
2.5465327e-01
2.4522212e-01
2.3788667e-01
2.3162186e-01
2.1246166e-01
1.7660702e-01
1.2848570e-01
7.0788538e-02
1.6683367e-02
-3.0910794e-02
-7.0669316e-02
-9.2255187e-02
-9.2669438e-02
-7.5769601e-02
-5.0645421e-02
-2.3035765e-02
-1.2439347e-02
-3.5125924e-02
-6.9615106e-02
-1.0049257e-01
-1.2330257e-01
-1.2960594e-01
-1.1974677e-01
-1.0107148e-01
-8.2804670e-02
-6.3471835e-02
-5.1727061e-02
-6.0090218e-02
-7.5730865e-02
-8.8334825e-02
-9.3883406e-02
-8.5194877e-02
-6.1807856e-02
-2.7925103e-02
9.2529288e-03
4.4515730e-02
5.8333296e-02
3.7629845e-02
8.5209739e-03
-8.5865578e-03
-1.0312478e-02
7.7293920e-03
4.5694414e-02
9.5860653e-02
1.4501265e-01
1.8172545e-01
1.8204224e-01
1.4110272e-01
9.0141791e-02
4.0769292e-02
-5.2630576e-03
-3.5388264e-02
-4.4582603e-02
-3.7224092e-02
-2.0178397e-02
2.2367248e-03
5.6326170e-03
-2.5052220e-02
-6.1006170e-02
-8.4742352e-02
-9.7700642e-02
-9.4901770e-02
-7.3713130e-02
-4.1333210e-02
-6.4624134e-03
2.9448752e-02
4.5019106e-02
2.7177946e-02
2.9289783e-03
-1.5911131e-02
-3.3655905e-02
-4.1542675e-02
-3.1769909e-02
-6.7948599e-03
2.7493870e-02
6.4795296e-02
7.9121299e-02
5.9312323e-02
3.3050110e-02
1.2352358e-02
-3.2811199e-03
-4.7288012e-03
1.2591864e-02
4.5534943e-02
8.8939557e-02
1.3185615e-01
1.4093394e-01
1.0522310e-01
5.8607255e-02
1.9132366e-02
-1.2274126e-02
-3.0493431e-02
-3.4435585e-02
-2.9127978e-02
-1.9500132e-02
-8.5477933e-03
-1.2247968e-02
-3.6799177e-02
-6.3705881e-02
-8.3380457e-02
-9.6371178e-02
-9.9523845e-02
-9.1333145e-02
-7.8175483e-02
-6.7119551e-02
-5.7775526e-02
-5.1002331e-02
-4.5251803e-02
-3.3664594e-02
-1.4566495e-02
9.7728442e-03
3.5378885e-02
5.9123824e-02
7.0422858e-02
6.0024394e-02
4.3667956e-02
3.2526400e-02
2.4808561e-02
2.3969959e-02
2.8516779e-02
3.5938414e-02
4.6413893e-02
5.8629301e-02
6.1500818e-02
4.6067557e-02
2.7584725e-02
1.3913786e-02
-1.1652066e-03
-1.2483143e-02
-1.3490388e-02
-3.8824518e-03
1.3882162e-02
3.6853761e-02
5.3881840e-02
5.4843353e-02
4.2634425e-02
1.8654819e-02
-9.4187227e-03
-3.1981499e-02
-5.0959828e-02
-6.7241450e-02
-7.8789860e-02
-8.4679154e-02
-8.7505240e-02
-8.9661914e-02
-8.9758407e-02
-9.0197021e-02
-9.5416384e-02
-1.0452213e-01
-1.1288810e-01
-1.1723827e-01
-1.1603126e-01
-1.0974070e-01
-1.0028221e-01
-8.6516824e-02
-6.5911287e-02
-3.8421785e-02
-8.2903186e-03
2.2498663e-02
5.9156584e-02
1.0189089e-01
1.3324126e-01
1.2690379e-01
8.0458613e-02
2.1610828e-02
-2.6216969e-02
-5.6635109e-02
-6.9744792e-02
-6.6033466e-02
-4.3454541e-02
-4.1446780e-04
5.7623855e-02
1.1723366e-01
1.5458594e-01
1.6001257e-01
1.4504614e-01
1.1617979e-01
8.8827991e-02
7.5860616e-02
7.4673711e-02
8.1472878e-02
8.1865311e-02
5.9047239e-02
1.6920792e-02
-2.5366111e-02
-5.4668585e-02
-6.7146202e-02
-6.2683371e-02
-4.2867505e-02
-6.2967649e-03
4.8175291e-02
1.1386430e-01
1.7372401e-01
2.0394047e-01
1.9695950e-01
1.6270537e-01
1.1106566e-01
5.4747858e-02
3.1550775e-03
-3.9909689e-02
-7.2439672e-02
-9.6322929e-02
-1.1381798e-01
-1.2689973e-01
-1.3530747e-01
-1.3637273e-01
-1.3032344e-01
-1.2373372e-01
-1.2104953e-01
-1.1524472e-01
-1.0043670e-01
-8.0310937e-02
-6.1360089e-02
-4.7877414e-02
-3.8361601e-02
-3.0665812e-02
-2.3862104e-02
-1.5044698e-02
-4.9102804e-03
7.0073429e-03
2.3193386e-02
3.8934972e-02
4.4074162e-02
3.5852398e-02
2.4284274e-02
1.5182608e-02
8.7140637e-03
1.7128604e-03
-1.1456356e-02
-2.4180727e-02
-2.8979006e-02
-2.7353760e-02
-2.3796649e-02
-2.3048825e-02
-2.5026580e-02
-2.9538205e-02
-3.5328563e-02
-3.7393656e-02
-3.3579536e-02
-2.1012064e-02
2.8432137e-03
2.7978333e-02
3.6417733e-02
2.5454569e-02
7.4052972e-03
-8.9677868e-03
-1.6157258e-02
-6.0649091e-03
2.2014536e-02
6.5722767e-02
1.2315493e-01
1.8284759e-01
2.1780418e-01
2.1021814e-01
1.7242432e-01
1.2147601e-01
6.5301239e-02
1.0522595e-02
-4.1396834e-02
-8.9284266e-02
-1.2833046e-01
-1.5480496e-01
-1.6784925e-01
-1.7253755e-01
-1.7463883e-01
-1.7383523e-01
-1.6562274e-01
-1.4647244e-01
-1.2122281e-01
-9.4253895e-02
-6.4312563e-02
-3.4620366e-02
-5.7499952e-03
2.8902868e-02
6.8002786e-02
9.9892815e-02
1.2577833e-01
1.4700242e-01
1.5592688e-01
1.6572360e-01
1.8822321e-01
2.0708945e-01
1.9686728e-01
1.5661995e-01
1.0397604e-01
4.6452714e-02
-6.0165122e-03
-4.2030183e-02
-6.1395688e-02
-6.6811621e-02
-6.2531072e-02
-5.6551418e-02
-5.7448441e-02
-6.4270865e-02
-7.0706291e-02
-7.7225911e-02
-7.8465443e-02
-6.6095337e-02
-4.1429976e-02
-6.9040060e-03
3.3464999e-02
6.5608139e-02
6.8820316e-02
4.0890274e-02
6.5916428e-03
-1.5731712e-02
-2.4612400e-02
-2.1139591e-02
-9.2244330e-03
7.1097956e-03
2.7162095e-02
4.4071687e-02
4.6865540e-02
3.6796362e-02
2.1216264e-02
3.0671004e-03
-1.0924790e-02
-1.5136189e-02
-1.2448062e-02
-4.7851059e-03
7.3132145e-03
2.0874651e-02
3.2443288e-02
4.2039649e-02
4.6100144e-02
3.6728062e-02
2.0847519e-02
3.5201539e-03
-2.0333894e-02
-4.5984745e-02
-6.7265401e-02
-8.3851381e-02
-9.7255767e-02
-1.0695371e-01
-1.1283569e-01
-1.1709507e-01
-1.1635268e-01
-1.0871209e-01
-9.8462644e-02
-8.6190103e-02
-7.2407857e-02
-6.1016382e-02
-5.3017615e-02
-4.4606474e-02
-3.0782756e-02
-1.0259188e-02
1.8569035e-02
5.3674975e-02
8.9594409e-02
1.2878362e-01
1.7107250e-01
1.9848783e-01
1.8652381e-01
1.4176389e-01
9.5455154e-02
6.0886749e-02
3.8489061e-02
2.6932806e-02
2.2897814e-02
2.7784978e-02
3.9618156e-02
4.3824098e-02
1.8879066e-02
-3.2506748e-02
-8.3254819e-02
-1.2114073e-01
-1.4524361e-01
-1.5841419e-01
-1.6622171e-01
-1.6463282e-01
-1.5038181e-01
-1.2535472e-01
-9.0681412e-02
-4.6401587e-02
5.9982647e-03
6.3013500e-02
1.1914211e-01
1.6051545e-01
1.7822777e-01
1.7965294e-01
1.6609114e-01
1.2746972e-01
6.8669246e-02
1.2404330e-02
-2.7040185e-02
-4.9732935e-02
-6.2390908e-02
-7.6651317e-02
-9.4500710e-02
-1.0635508e-01
-1.0873352e-01
-1.0534048e-01
-9.7725581e-02
-8.2217954e-02
-5.4243645e-02
-1.4364379e-02
2.9216463e-02
6.5229027e-02
9.4489374e-02
1.2796167e-01
1.6588720e-01
1.8780431e-01
1.7605930e-01
1.4526763e-01
1.1193084e-01
7.4315637e-02
3.6224470e-02
3.0731781e-03
-2.1389417e-02
-3.2647445e-02
-3.3110474e-02
-3.0642226e-02
-3.8235173e-02
-5.9998782e-02
-8.6241268e-02
-1.0960614e-01
-1.2211998e-01
-1.1825421e-01
-1.0058333e-01
-7.4414831e-02
-4.6249051e-02
-2.5702284e-02
-1.8278741e-02
-1.3096975e-02
-9.2809709e-03
-1.5477363e-02
-2.6172631e-02
-3.9768262e-02
-5.1480014e-02
-4.9740871e-02
-3.1372005e-02
2.0559985e-03
4.5215921e-02
9.5349157e-02
1.4081189e-01
1.6749704e-01
1.7165169e-01
1.4629854e-01
1.0218457e-01
5.8741667e-02
2.2721696e-02
-2.7673887e-03
-1.5258163e-02
-1.1511960e-02
5.8148786e-03
3.1790322e-02
4.9032051e-02
3.5761818e-02
5.2162713e-03
-1.9167007e-02
-3.2904452e-02
-3.8465746e-02
-4.1169940e-02
-4.2301316e-02
-3.9463884e-02
-3.1927468e-02
-2.1679021e-02
-1.5679191e-02
-2.1446276e-02
-4.1242177e-02
-6.9255006e-02
-9.7764918e-02
-1.2144012e-01
-1.3459545e-01
-1.3573262e-01
-1.2604397e-01
-1.0965472e-01
-9.1604514e-02
-6.8090811e-02
-3.5246644e-02
7.9333758e-03
6.4148187e-02
1.2985266e-01
1.9665538e-01
2.4588849e-01
2.6456960e-01
2.5021879e-01
1.9921798e-01
1.3280515e-01
7.2807992e-02
2.4010385e-02
-8.9275644e-03
-2.7198381e-02
-3.4325755e-02
-3.9805015e-02
-5.1306467e-02
-6.3807397e-02
-7.2912621e-02
-7.5657341e-02
-7.1136436e-02
-6.0532340e-02
-4.2979540e-02
-2.0826353e-02
-1.1159304e-04
6.9381948e-03
-2.8838616e-03
-2.1410851e-02
-4.5387865e-02
-6.9137580e-02
-8.9501065e-02
-1.0512745e-01
-1.1118921e-01
-1.0735039e-01
-9.4390335e-02
-7.6894328e-02
-5.8889141e-02
-4.6139938e-02
-4.3924620e-02
-4.5407897e-02
-4.8070347e-02
-4.7299126e-02
-3.2619377e-02
-1.8832388e-03
4.1983708e-02
8.7031456e-02
1.2443201e-01
1.4221952e-01
1.2972826e-01
1.0231850e-01
6.8452969e-02
3.4390194e-02
1.5369897e-02
1.4943644e-02
3.2656107e-02
5.7617261e-02
7.7209747e-02
7.8550674e-02
5.2909230e-02
1.5598890e-02
-2.7784132e-02
-7.3549541e-02
-1.0498574e-01
-1.1694967e-01
-1.1099699e-01
-9.9805605e-02
-9.4564027e-02
-1.0525524e-01
-1.4111023e-01
-1.8152959e-01
-2.1134925e-01
-2.2940920e-01
-2.2720086e-01
-2.0112609e-01
-1.5183454e-01
-8.6811554e-02
-1.0638404e-02
6.4005735e-02
1.2309305e-01
1.7192319e-01
1.9351355e-01
1.7989570e-01
1.6077833e-01
1.5835626e-01
1.8189008e-01
2.2109216e-01
2.6407990e-01
3.0337792e-01
3.3291984e-01
3.5443024e-01
3.3948791e-01
2.6896823e-01
1.6950465e-01
7.6210073e-02
1.1400170e-02
-2.4880362e-02
-3.6540156e-02
-4.1163680e-02
-5.8322332e-02
-7.6173530e-02
-9.7840018e-02
-1.2882035e-01
-1.4707993e-01
-1.4043731e-01
-1.1784615e-01
-9.2973977e-02
-6.2012816e-02
-3.6510092e-02
-3.6409857e-02
-4.5487234e-02
-5.9306039e-02
-8.0837215e-02
-9.2652759e-02
-8.6286726e-02
-6.5444274e-02
-3.8294593e-02
-6.0658103e-03
1.6731711e-02
1.1986288e-02
-4.4288617e-03
-2.0666682e-02
-3.1919102e-02
-2.6335260e-02
-2.8466219e-03
3.2989363e-02
7.1545018e-02
1.0803562e-01
1.2762515e-01
1.1662573e-01
8.8696034e-02
4.6078736e-02
-8.1798287e-03
-5.4273477e-02
-8.4521055e-02
-1.0240225e-01
-1.1539069e-01
-1.2582682e-01
-1.3270841e-01
-1.3535289e-01
-1.3189273e-01
-1.2406579e-01
-1.0823635e-01
-7.7104181e-02
-3.1953491e-02
2.0410245e-02
7.2172456e-02
1.1683447e-01
1.3479014e-01
1.1453866e-01
7.7777424e-02
3.8225073e-02
3.9870950e-04
-2.4818619e-02
-3.2953290e-02
-2.8735829e-02
-1.9042992e-02
-2.4077868e-03
3.8576342e-03
-1.6867939e-02
-4.1365495e-02
-5.1200558e-02
-4.4530179e-02
-1.8873504e-02
2.3150128e-02
7.1505339e-02
1.1403274e-01
1.4455363e-01
1.4209729e-01
9.9526082e-02
4.9797901e-02
1.1202831e-02
-1.4191579e-02
-2.0362218e-02
-6.4045371e-03
1.8156025e-02
4.0813573e-02
6.2070308e-02
6.4521980e-02
3.2141264e-02
-1.1449348e-02
-5.2977391e-02
-9.1502914e-02
-1.1646214e-01
-1.2490494e-01
-1.2355569e-01
-1.2007029e-01
-1.1492697e-01
-1.1097031e-01
-1.0993415e-01
-1.0467129e-01
-9.5505462e-02
-8.0915130e-02
-5.0668795e-02
-1.8708029e-03
4.9707191e-02
8.7049655e-02
1.1582074e-01
1.2664799e-01
1.1056481e-01
9.0234214e-02
6.9699978e-02
4.4984891e-02
2.9720619e-02
3.3497659e-02
4.8669003e-02
6.4889921e-02
8.5142710e-02
9.4007668e-02
7.9884095e-02
6.0146388e-02
3.0255908e-02
-1.5908762e-02
-5.7447631e-02
-7.9451071e-02
-8.1164001e-02
-6.6392825e-02
-4.1062592e-02
-2.2857276e-02
-2.0016892e-02
-2.0282523e-02
-2.7740936e-02
-4.6694537e-02
-6.2904540e-02
-6.4651938e-02
-5.0244087e-02
-2.4269656e-02
5.7481795e-03
1.6239495e-02
-4.0387446e-03
-3.1284919e-02
-5.5107641e-02
-7.7169941e-02
-8.8252256e-02
-8.1260226e-02
-5.4960312e-02
-1.5893370e-02
1.8458747e-02
1.9827313e-02
-1.2290989e-02
-4.0732859e-02
-4.9543960e-02
-4.3472574e-02
-1.9154947e-02
2.7456841e-02
9.3044420e-02
1.7118222e-01
2.5213641e-01
3.0347440e-01
3.0267146e-01
2.6640796e-01
2.1036163e-01
1.4398134e-01
8.5371231e-02
4.7089875e-02
2.7132710e-02
2.0211550e-02
2.0142615e-02
-9.9976631e-04
-5.2520177e-02
-1.0214293e-01
-1.3386673e-01
-1.5019600e-01
-1.5069420e-01
-1.3622183e-01
-1.1342091e-01
-8.9867297e-02
-6.7204439e-02
-5.8592223e-02
-6.9226708e-02
-7.9655511e-02
-8.4203615e-02
-8.6404107e-02
-7.8681674e-02
-5.5820995e-02
-2.2761101e-02
1.4241072e-02
5.1104355e-02
6.6242564e-02
4.8791519e-02
2.2793604e-02
2.9269017e-03
-9.5460730e-03
-9.7962597e-03
4.3847541e-03
3.0036003e-02
6.4007413e-02
1.0183730e-01
1.2637101e-01
1.2571863e-01
1.0541860e-01
7.1626429e-02
3.3103270e-02
3.2939590e-03
-1.0704955e-02
-9.8224434e-03
1.8193966e-03
1.7593603e-02
1.9443174e-02
-9.8457830e-04
-2.7999922e-02
-5.4639786e-02
-8.0226896e-02
-9.6491419e-02
-9.9285826e-02
-9.4980360e-02
-9.1168976e-02
-8.7045195e-02
-9.1259332e-02
-1.0865288e-01
-1.2375572e-01
-1.2957397e-01
-1.2764677e-01
-1.1548233e-01
-9.0719499e-02
-5.6204542e-02
-1.6765865e-02
2.1659929e-02
3.9018612e-02
2.9401601e-02
1.4575684e-02
4.6719957e-03
6.8175972e-04
1.0307951e-02
3.9230079e-02
8.5001184e-02
1.4246323e-01
2.0150910e-01
2.3224523e-01
2.2059618e-01
1.8867285e-01
1.5021720e-01
1.0938033e-01
7.7614576e-02
6.1828182e-02
6.0015507e-02
6.7643602e-02
7.7743843e-02
7.4176000e-02
5.1294852e-02
2.3757137e-02
1.5630467e-03
-1.4240289e-02
-2.3374800e-02
-2.6870035e-02
-3.3650428e-02
-5.1794312e-02
-7.3580894e-02
-9.6294319e-02
-1.2193007e-01
-1.4360045e-01
-1.5787891e-01
-1.6403771e-01
-1.6011191e-01
-1.4655290e-01
-1.3298605e-01
-1.2748703e-01
-1.2214094e-01
-1.1372618e-01
-1.0572764e-01
-9.3723315e-02
-7.3943972e-02
-4.5754719e-02
-8.4325083e-03
3.8708810e-02
9.0609449e-02
1.4208001e-01
1.9088160e-01
2.2269829e-01
2.3049390e-01
2.2414449e-01
2.0598353e-01
1.7809417e-01
1.5411980e-01
1.4236838e-01
1.3315929e-01
1.1823083e-01
9.6881544e-02
6.2801698e-02
1.8266009e-02
-2.6586474e-02
-6.5622821e-02
-9.5839766e-02
-1.1751643e-01
-1.3146116e-01
-1.4014274e-01
-1.4521873e-01
-1.4394850e-01
-1.3592686e-01
-1.2693921e-01
-1.2107563e-01
-1.1521565e-01
-1.0592885e-01
-9.4553689e-02
-8.3430130e-02
-7.1720773e-02
-5.6018174e-02
-3.8271318e-02
-2.4432832e-02
-1.8776141e-02
-2.4717519e-02
-3.9488607e-02
-5.5792186e-02
-6.7022867e-02
-6.7824784e-02
-5.5580438e-02
-2.9021977e-02
7.7007080e-03
4.0854857e-02
5.5448162e-02
5.3500310e-02
5.4787892e-02
7.2970784e-02
1.0672756e-01
1.4672858e-01
1.7696717e-01
1.8987375e-01
1.8716733e-01
1.6729056e-01
1.3837375e-01
1.1230804e-01
8.8957378e-02
6.4283206e-02
3.8267517e-02
1.2799836e-02
-7.8215242e-03
-1.7899283e-02
-1.7269520e-02
-1.2226573e-02
-1.2161097e-02
-2.4391150e-02
-4.8375912e-02
-7.7474751e-02
-1.0322852e-01
-1.1968485e-01
-1.2932640e-01
-1.3573664e-01
-1.3510407e-01
-1.2531299e-01
-1.0693300e-01
-7.9787720e-02
-4.7431165e-02
-1.2617425e-02
2.2367445e-02
5.3210528e-02
7.6117934e-02
8.9703157e-02
9.1130262e-02
7.6615754e-02
4.7738749e-02
8.9304412e-03
-3.0040526e-02
-6.0674319e-02
-8.2408974e-02
-9.7867886e-02
-1.1436357e-01
-1.3524720e-01
-1.5383304e-01
-1.6512697e-01
-1.6651042e-01
-1.5506080e-01
-1.3079993e-01
-9.3451989e-02
-4.6262889e-02
2.5942225e-03
4.9955448e-02
1.0210473e-01
1.6696202e-01
2.4207500e-01
3.1119456e-01
3.5166116e-01
3.4996574e-01
3.1400177e-01
2.6717802e-01
2.2892384e-01
1.9962154e-01
1.7317899e-01
1.4118691e-01
9.3635739e-02
4.1233105e-02
-2.3787023e-03
-3.7588584e-02
-6.6676027e-02
-9.0558160e-02
-1.0941449e-01
-1.2314618e-01
-1.2970421e-01
-1.2945422e-01
-1.2720959e-01
-1.2379171e-01
-1.1683599e-01
-1.0688201e-01
-9.5849680e-02
-8.7022999e-02
-8.2419156e-02
-8.0333025e-02
-7.7404174e-02
-7.1453192e-02
-6.3098693e-02
-5.4706678e-02
-4.8184734e-02
-4.1135508e-02
-3.1433344e-02
-2.1378452e-02
-1.2552035e-02
-6.6699128e-03
-3.5611348e-03
-1.8325776e-03
-3.4009466e-03
-7.1196655e-03
-8.6813511e-03
-3.0614397e-03
1.2696518e-02
3.5713551e-02
6.1748617e-02
7.8544730e-02
7.7193165e-02
6.8561660e-02
6.1306043e-02
5.1082128e-02
3.4272280e-02
1.8102405e-02
1.0162235e-02
9.6634315e-03
1.4628923e-02
1.8779575e-02
1.7378575e-02
1.5536743e-02
1.5656386e-02
1.0387885e-02
-5.0580262e-03
-2.2352064e-02
-3.3769280e-02
-3.9607271e-02
-4.1160840e-02
-3.9588260e-02
-3.3187915e-02
-1.9782517e-02
-4.4466899e-03
-1.8151336e-03
-1.7677187e-02
-3.7533430e-02
-5.0827715e-02
-6.0085141e-02
-6.8515379e-02
-7.6879828e-02
-8.4339813e-02
-8.9806770e-02
-9.0896296e-02
-8.6447500e-02
-7.8841079e-02
-6.7642848e-02
-5.0005903e-02
-2.5355423e-02
4.6062531e-03
3.3326669e-02
5.9927610e-02
8.5962780e-02
1.0856568e-01
1.2692922e-01
1.3950165e-01
1.5408691e-01
1.7797943e-01
2.0319569e-01
2.1743769e-01
2.0452483e-01
1.6234107e-01
1.0828429e-01
5.0969442e-02
-1.8631214e-03
-4.2099495e-02
-6.9837715e-02
-8.5743486e-02
-9.1685040e-02
-8.8705925e-02
-8.1152766e-02
-7.3173755e-02
-6.5049428e-02
-5.8624469e-02
-5.3168129e-02
-4.7127767e-02
-3.9261749e-02
-2.8436251e-02
-1.8136929e-02
-1.1623514e-02
-1.1908826e-02
-1.9261345e-02
-2.7276207e-02
-3.5113332e-02
-4.3878094e-02
-4.9578323e-02
-4.9579009e-02
-4.2690888e-02
-2.9789969e-02
-1.3796167e-02
-1.2220097e-03
5.1353153e-03
8.5760713e-03
1.0036206e-02
8.1445795e-03
-3.9260419e-04
-1.1130889e-02
-1.6538348e-02
-1.8371982e-02
-1.8799163e-02
-1.9025463e-02
-2.0073120e-02
-2.1262555e-02
-2.2129380e-02
-2.3106019e-02
-2.5223755e-02
-2.2844115e-02
-1.2192962e-02
2.0352645e-03
1.6860109e-02
2.7467628e-02
3.3171283e-02
3.9417991e-02
4.6704783e-02
5.4516103e-02
6.1690017e-02
7.2420731e-02
9.2153910e-02
1.1299639e-01
1.2546066e-01
1.2168382e-01
1.0094922e-01
7.5415574e-02
5.1330537e-02
3.0175513e-02
1.2327074e-02
-1.9107047e-03
-1.0794525e-02
-1.9895630e-02
-3.4795640e-02
-5.5073870e-02
-7.7245934e-02
-9.6257104e-02
-1.1109273e-01
-1.2261023e-01
-1.3045620e-01
-1.3285627e-01
-1.2731772e-01
-1.1539061e-01
-9.9303801e-02
-8.2798646e-02
-6.8510596e-02
-5.3743977e-02
-3.7326406e-02
-1.9916498e-02
-1.4927477e-03
2.1981580e-02
5.5104924e-02
9.4088822e-02
1.2663977e-01
1.3936166e-01
1.3602967e-01
1.2316101e-01
9.8018000e-02
7.1697134e-02
5.3513515e-02
4.3213837e-02
4.2129071e-02
4.6833125e-02
5.1504651e-02
4.8523717e-02
3.7361634e-02
2.2560315e-02
3.3650776e-03
-1.4485810e-02
-2.6819209e-02
-3.4647388e-02
-3.6198779e-02
-3.5047932e-02
-3.6607304e-02
-4.2266166e-02
-4.9078652e-02
-5.5242448e-02
-6.2171973e-02
-6.5968531e-02
-6.3384464e-02
-5.4613124e-02
-4.0418334e-02
-2.4329311e-02
-1.0136198e-02
-2.5041403e-03
-5.8054188e-04
1.9573419e-03
7.1822945e-03
1.2692384e-02
1.6429670e-02
2.2448954e-02
3.4176971e-02
4.7087510e-02
5.2909765e-02
4.5436913e-02
2.9999212e-02
1.3697009e-02
-3.2041462e-03
-1.7001964e-02
-2.5904878e-02
-2.9649161e-02
-2.6455446e-02
-2.2038207e-02
-2.2203083e-02
-2.3331700e-02
-2.0705743e-02
-1.3416757e-02
-1.3650487e-03
6.2800744e-03
-7.7534029e-04
-1.3123321e-02
-2.0227063e-02
-2.5103322e-02
-3.1456691e-02
-3.9219691e-02
-4.3879916e-02
-4.1139109e-02
-3.1176649e-02
-1.5263046e-02
4.7220253e-03
3.0351732e-02
6.3750017e-02
1.0085409e-01
1.3063994e-01
1.3511078e-01
1.1452993e-01
8.5855514e-02
5.5744230e-02
2.9534883e-02
9.2837711e-03
-7.2096533e-03
-2.0379839e-02
-3.3611640e-02
-4.6237319e-02
-5.3920326e-02
-5.4850799e-02
-5.0242348e-02
-4.3471473e-02
-3.7925563e-02
-3.5490399e-02
-3.2462523e-02
-2.4693208e-02
-1.5145555e-02
-8.0576913e-03
-5.7720240e-03
-4.6144311e-03
-4.0533359e-03
-8.7409900e-03
-1.2936350e-02
-1.2988417e-02
-9.2220279e-03
6.6183171e-04
1.3502744e-02
2.4252269e-02
3.1164078e-02
3.7902512e-02
4.0730273e-02
3.2981788e-02
2.3104107e-02
1.6449060e-02
1.3439342e-02
1.5093256e-02
1.3627084e-02
4.2341102e-05
-2.3976737e-02
-4.5994248e-02
-5.8289713e-02
-6.1236107e-02
-5.6720610e-02
-4.8743921e-02
-3.6827885e-02
-1.6638587e-02
9.0248204e-03
3.1434480e-02
4.5092765e-02
5.2910493e-02
5.3576891e-02
4.2479853e-02
2.7337335e-02
1.4256920e-02
4.5196500e-03
-3.6633764e-05
-3.6035073e-03
-1.0068233e-02
-1.7728870e-02
-2.3109605e-02
-2.3885524e-02
-1.9975844e-02
-1.4058816e-02
-9.7206325e-03
-6.0145289e-03
-2.1549213e-03
-2.1769276e-03
-7.9634127e-03
-1.6326829e-02
-1.9719386e-02
-1.6726789e-02
-1.0249843e-02
-2.2555063e-03
2.6404761e-03
8.4813380e-03
2.0365867e-02
3.3543118e-02
4.1893451e-02
4.3645453e-02
4.4552300e-02
4.4065224e-02
3.6995802e-02
2.6099765e-02
1.1966955e-02
-8.3083362e-04
-6.6517533e-03
-7.9509147e-03
-8.0575625e-03
-8.3602040e-03
-6.6543096e-03
-5.5261937e-03
-8.4842826e-03
-1.1450939e-02
-1.3107047e-02
-1.2208139e-02
-7.0291183e-03
-1.4683530e-03
-2.0954431e-03
-1.2395306e-02
-2.6125347e-02
-4.0393413e-02
-5.6888374e-02
-7.1807144e-02
-8.4097728e-02
-9.2822961e-02
-9.5302450e-02
-9.1898156e-02
-8.3956056e-02
-7.2256759e-02
-5.5906734e-02
-3.7480191e-02
-1.9073455e-02
3.6583438e-03
3.1652738e-02
6.5073844e-02
1.0468607e-01
1.4459661e-01
1.6893204e-01
1.6644454e-01
1.4823715e-01
1.2063664e-01
8.3953266e-02
5.2113593e-02
3.1734409e-02
2.0174594e-02
1.3757844e-02
6.6701143e-03
-3.0994474e-03
-1.0973897e-02
-1.1087448e-02
-7.9095835e-03
-6.0152151e-03
-4.6209597e-03
-6.4651781e-03
-8.3316059e-03
-7.6440851e-03
-7.5383851e-03
-1.0856938e-02
-1.9388328e-02
-2.7094702e-02
-3.1832843e-02
-3.5139667e-02
-3.4914800e-02
-3.4103038e-02
-3.2985673e-02
-3.0207308e-02
-2.7612796e-02
-2.7866677e-02
-3.2549967e-02
-3.5333846e-02
-3.3276308e-02
-2.8912725e-02
-2.3255699e-02
-1.8647149e-02
-1.2723796e-02
-4.1039218e-03
1.4624517e-03
-2.3208638e-03
-1.5365122e-02
-2.9755919e-02
-4.1217064e-02
-4.9701406e-02
-5.5144474e-02
-5.8953167e-02
-5.8994658e-02
-5.3317080e-02
-4.3290279e-02
-3.2377545e-02
-2.3309114e-02
-1.3771158e-02
-4.0770634e-03
6.5857949e-03
2.0954792e-02
3.6581063e-02
5.5556722e-02
8.0204055e-02
1.0697911e-01
1.2597161e-01
1.3208815e-01
1.3165762e-01
1.2289142e-01
1.1095463e-01
9.8644849e-02
7.3612885e-02
4.3077405e-02
1.6848432e-02
-8.3876739e-03
-3.3572375e-02
-5.6862924e-02
-7.7048252e-02
-9.9024053e-02
-1.2044540e-01
-1.3408071e-01
-1.4175521e-01
-1.4209964e-01
-1.3325835e-01
-1.1902567e-01
-1.0485920e-01
-9.1845758e-02
-7.2946742e-02
-4.5606357e-02
-9.1990116e-03
3.4780221e-02
7.8941171e-02
1.2329139e-01
1.6660428e-01
1.8953910e-01
1.7159926e-01
1.2742687e-01
8.8158919e-02
6.1748463e-02
4.6496451e-02
4.3085275e-02
5.0740796e-02
6.8086689e-02
8.7234591e-02
8.9551004e-02
6.0447360e-02
1.1525144e-02
-3.4964594e-02
-7.0134742e-02
-9.0597761e-02
-9.5393806e-02
-8.7400648e-02
-6.7516862e-02
-3.7399792e-02
-7.1559470e-03
1.2196562e-02
2.4604724e-02
3.6031577e-02
4.0258915e-02
3.4213795e-02
1.6672731e-02
-1.1905189e-02
-3.8616543e-02
-5.5660434e-02
-6.7700253e-02
-8.0309841e-02
-9.1811906e-02
-9.7667577e-02
-9.8135378e-02
-9.2534091e-02
-8.1647288e-02
-6.9846651e-02
-5.6862487e-02
-3.9878500e-02
-2.7208877e-02
-3.1862629e-02
-4.6501147e-02
-5.3826976e-02
-4.8646852e-02
-3.0161491e-02
1.3889748e-03
4.4990512e-02
1.0096675e-01
1.6144394e-01
2.0422253e-01
2.0299630e-01
1.6434780e-01
1.2302062e-01
9.3740266e-02
7.6549137e-02
7.2071309e-02
7.7225990e-02
8.9055788e-02
1.0275511e-01
1.0534417e-01
7.8003170e-02
2.4212386e-02
-3.0683397e-02
-7.5575240e-02
-1.0831700e-01
-1.2741129e-01
-1.3599955e-01
-1.3403721e-01
-1.2206464e-01
-1.0160541e-01
-7.5376642e-02
-4.7335720e-02
-2.5321892e-02
-1.9384773e-02
-2.1488123e-02
-2.6726441e-02
-4.1042555e-02
-5.4680721e-02
-6.0113628e-02
-5.8931526e-02
-5.6234557e-02
-5.7239200e-02
-5.8230743e-02
-5.6042124e-02
-4.6517742e-02
-2.7704907e-02
-2.6188335e-03
3.0779840e-02
7.2247850e-02
1.0864544e-01
1.2199223e-01
1.1791988e-01
1.1317140e-01
1.0689831e-01
9.9753648e-02
9.3377587e-02
8.6603543e-02
8.4261781e-02
8.6240770e-02
7.9494875e-02
4.8246478e-02
2.0336673e-03
-4.3165445e-02
-8.8777765e-02
-1.2864557e-01
-1.5895895e-01
-1.8517817e-01
-2.0226572e-01
-2.0633040e-01
-2.0001461e-01
-1.8551752e-01
-1.6285723e-01
-1.3209320e-01
-9.4854218e-02
-5.0381858e-02
-3.5327924e-03
4.3601585e-02
9.9244715e-02
1.6493002e-01
2.2643660e-01
2.6299380e-01
2.8004305e-01
2.8977778e-01
2.8771463e-01
2.7412834e-01
2.3282476e-01
1.6076216e-01
9.0021715e-02
3.5490486e-02
-9.0543995e-03
-5.3309342e-02
-9.7468347e-02
-1.3400584e-01
-1.6124009e-01
-1.7623280e-01
-1.8039870e-01
-1.7790563e-01
-1.6603453e-01
-1.4620943e-01
-1.2753779e-01
-1.1736606e-01
-1.0861000e-01
-9.1363816e-02
-6.5336251e-02
-3.1583753e-02
7.1676104e-04
2.8051858e-02
6.2891515e-02
1.0883508e-01
1.5561038e-01
1.8733652e-01
2.0419461e-01
2.0602661e-01
1.8407257e-01
1.4660786e-01
9.8515463e-02
5.0570146e-02
1.6483496e-02
-4.8621050e-03
-1.5833023e-02
-2.1359753e-02
-2.2820685e-02
-2.2067381e-02
-2.5797081e-02
-3.4041067e-02
-4.8084251e-02
-6.5472007e-02
-7.7064791e-02
-8.1066003e-02
-7.9777231e-02
-7.6131078e-02
-7.0074671e-02
-6.3805522e-02
-6.1646612e-02
-6.4465634e-02
-7.5948954e-02
-9.1882976e-02
-1.0292732e-01
-1.0652997e-01
-1.0091853e-01
-8.6114110e-02
-6.2494695e-02
-3.3042934e-02
-3.2042484e-03
1.6017050e-02
1.2755936e-02
-3.9834080e-04
-6.0434466e-03
-3.8385996e-04
1.6821999e-02
4.2680410e-02
7.8295061e-02
1.2236182e-01
1.6984220e-01
2.0543171e-01
2.0262006e-01
1.6957026e-01
1.3660798e-01
1.1343387e-01
9.1984013e-02
5.9076560e-02
1.8864053e-02
-1.5204478e-02
-3.9826167e-02
-6.0913123e-02
-8.7867662e-02
-1.1624332e-01
-1.3467007e-01
-1.4032235e-01
-1.3402457e-01
-1.1714054e-01
-8.9519847e-02
-5.5117173e-02
-1.9442053e-02
3.2163957e-03
-1.0868393e-03
-1.4804704e-02
-2.0338245e-02
-1.7592562e-02
-5.0910220e-03
1.7282745e-02
4.8541866e-02
7.8546154e-02
9.7293387e-02
9.5033947e-02
6.1606695e-02
1.5459428e-02
-2.5627642e-02
-5.8076905e-02
-7.5915783e-02
-7.9346774e-02
-6.9517598e-02
-5.2513958e-02
-3.5147055e-02
-2.6366651e-02
-3.4933174e-02
-4.4826971e-02
-4.0690560e-02
-2.2760666e-02
1.0087512e-02
5.7096172e-02
1.1119203e-01
1.5191046e-01
1.6992228e-01
1.6475018e-01
1.3198434e-01
9.1110205e-02
5.7131828e-02
3.1845089e-02
2.0152269e-02
1.9480350e-02
2.5225281e-02
2.4011950e-02
7.8746352e-03
-1.4120005e-02
-3.5534854e-02
-5.5211883e-02
-7.8845823e-02
-1.0459611e-01
-1.2025997e-01
-1.2147079e-01
-1.0916291e-01
-8.8178507e-02
-6.3900035e-02
-4.9723124e-02
-5.6278887e-02
-7.2000657e-02
-8.8501572e-02
-1.0128045e-01
-1.0116004e-01
-8.5581386e-02
-5.6317018e-02
-2.0284371e-02
1.5085642e-02
3.1555575e-02
1.8161613e-02
-2.2631054e-03
-1.5559641e-02
-1.9071485e-02
-4.2990247e-03
3.0108101e-02
7.6324165e-02
1.1779979e-01
1.4686245e-01
1.5613143e-01
1.4065443e-01
1.1474050e-01
8.0064764e-02
3.8695299e-02
9.3413067e-03
2.1689402e-03
1.9135345e-02
5.8486489e-02
1.1627643e-01
1.6894376e-01
1.9370471e-01
1.9347980e-01
1.5767719e-01
8.4762776e-02
5.1012716e-03
-5.6954233e-02
-9.4803179e-02
-1.1331579e-01
-1.1845510e-01
-1.1689019e-01
-1.1400129e-01
-1.1098928e-01
-1.1318768e-01
-1.1731098e-01
-1.1137476e-01
-9.1129653e-02
-6.1384558e-02
-3.1435475e-02
-1.2782303e-03
1.4962456e-02
1.5126826e-04
-2.5688668e-02
-4.9001920e-02
-6.8800638e-02
-7.5198782e-02
-6.4493730e-02
-4.5026071e-02
-2.6153392e-02
-8.5025809e-04
2.2688336e-02
2.7853111e-02
2.2713652e-02
8.8797277e-03
-1.0409228e-02
-1.8199692e-02
-6.4175728e-03
1.9858822e-02
4.9703257e-02
8.0562527e-02
1.0081896e-01
1.0067633e-01
8.9781864e-02
6.2833708e-02
2.2317189e-02
-8.6306906e-03
-1.8679396e-02
-9.9879057e-03
1.0927889e-02
3.8490140e-02
4.6890835e-02
1.9790871e-02
-1.5395647e-02
-4.4009195e-02
-6.7571587e-02
-7.6990973e-02
-6.6186020e-02
-3.8725730e-02
-3.1687094e-03
3.4466344e-02
5.0395035e-02
3.2016386e-02
4.9366750e-03
-2.0501166e-02
-4.4017046e-02
-5.4114754e-02
-4.4942657e-02
-1.8817652e-02
1.7299201e-02
5.3238756e-02
6.1200450e-02
3.1686251e-02
-3.3343874e-03
-3.1384889e-02
-5.4985498e-02
-6.2976432e-02
-4.9756298e-02
-2.2015911e-02
1.3112737e-02
5.3322970e-02
7.2192757e-02
5.5396270e-02
3.4081883e-02
1.7227614e-02
-2.9363158e-03
-1.2742672e-02
-8.1420651e-04
3.1210444e-02
7.7634565e-02
1.2843892e-01
1.5210843e-01
1.3640463e-01
1.1047190e-01
8.2138315e-02
4.8471308e-02
2.4230441e-02
1.8771785e-02
2.5506885e-02
3.5479282e-02
4.6899806e-02
4.0295044e-02
5.6605159e-03
-3.4758669e-02
-7.4151580e-02
-1.1433956e-01
-1.4526363e-01
-1.6118279e-01
-1.6799539e-01
-1.7348287e-01
-1.7383705e-01
-1.6743312e-01
-1.5550575e-01
-1.3405830e-01
-1.0535754e-01
-7.0699938e-02
-2.5151966e-02
3.3801245e-02
9.9932283e-02
1.6454755e-01
2.1975847e-01
2.4091775e-01
2.2120157e-01
1.8823495e-01
1.4955899e-01
1.0089295e-01
5.3697142e-02
1.8388178e-02
-7.7722633e-03
-3.0885235e-02
-4.7917730e-02
-6.1939149e-02
-7.7268463e-02
-8.6738443e-02
-8.7800156e-02
-8.1806445e-02
-6.8102088e-02
-4.5930371e-02
-2.2628895e-02
-7.0600995e-03
2.0473583e-03
1.0432126e-03
-8.9116518e-03
-1.6190488e-02
-1.7596113e-02
-1.3787773e-02
-3.2081846e-03
1.5279955e-02
3.6190739e-02
5.1252926e-02
5.4667972e-02
3.7655348e-02
5.5139242e-03
-2.4541464e-02
-4.5594959e-02
-5.8467737e-02
-6.4544962e-02
-6.3387297e-02
-5.7285192e-02
-4.9427013e-02
-4.1996292e-02
-4.0395228e-02
-4.3240134e-02
-4.2591718e-02
-3.6227621e-02
-2.5248658e-02
-1.2409002e-02
4.1149905e-05
9.4408131e-03
1.3076079e-02
1.3635585e-02
1.1177186e-02
7.7292696e-03
8.7582229e-03
1.6286121e-02
3.1814066e-02
5.3854620e-02
8.0395141e-02
1.0253106e-01
1.1161501e-01
1.0744384e-01
8.5971955e-02
5.4032296e-02
2.4796282e-02
2.3924995e-03
-1.2181489e-02
-1.9909477e-02
-2.0261141e-02
-1.8710628e-02
-2.2011423e-02
-2.7629428e-02
-3.3882479e-02
-3.9533214e-02
-4.3067591e-02
-4.2461695e-02
-3.4804817e-02
-2.1589045e-02
-4.2965934e-03
8.5546639e-03
8.4307270e-03
2.1075960e-03
-4.4114130e-03
-1.1063044e-02
-1.7762623e-02
-2.1347539e-02
-1.8611091e-02
-1.2602122e-02
-6.0281842e-03
-3.7964886e-03
-8.6803842e-03
-1.4723085e-02
-1.9811094e-02
-2.5051936e-02
-2.9948969e-02
-3.2085274e-02
-2.8175316e-02
-2.0451489e-02
-1.2117330e-02
-7.7247471e-03
-9.9743979e-03
-1.5916766e-02
-2.4723376e-02
-3.2609512e-02
-3.5027461e-02
-2.9707139e-02
-1.4609611e-02
7.4909594e-03
3.2824716e-02
5.4731812e-02
6.9051458e-02
7.3701250e-02
6.5020986e-02
4.8586682e-02
2.9754887e-02
1.5610942e-02
1.3145562e-02
1.6918274e-02
1.9777083e-02
1.6580611e-02
7.5367476e-03
-1.9727102e-03
-9.9661373e-03
-1.3586475e-02
-1.0728795e-02
-1.8323496e-04
2.0151484e-02
4.5508180e-02
6.5687805e-02
6.9181254e-02
5.6521014e-02
3.8267067e-02
1.7916122e-02
-3.4287799e-03
-2.4945142e-02
-4.2176577e-02
-5.0756804e-02
-5.4234821e-02
-5.5154943e-02
-5.5581673e-02
-5.5169064e-02
-4.8805383e-02
-3.7069942e-02
-2.7410992e-02
-2.3977580e-02
-2.0737076e-02
-1.0904632e-02
3.5304762e-03
1.6028792e-02
2.0161415e-02
1.6927885e-02
8.6305924e-03
-5.5980097e-03
-1.9773637e-02
-2.8647966e-02
-2.9662926e-02
-2.1233966e-02
-7.4196332e-03
6.7962884e-03
1.7736601e-02
2.6432203e-02
3.2274627e-02
3.3029547e-02
3.0829933e-02
2.5681548e-02
2.3633339e-02
3.0904168e-02
4.2629306e-02
5.2807476e-02
5.6451590e-02
5.3567352e-02
4.6476149e-02
3.5426496e-02
2.4306297e-02
1.4840817e-02
9.8500581e-03
1.1600868e-02
1.4232340e-02
1.1073183e-02
1.4686995e-03
-6.7807637e-03
-1.2566032e-02
-2.1063542e-02
-2.9264869e-02
-3.5919962e-02
-4.1749854e-02
-4.5749370e-02
-4.9332103e-02
-5.2245076e-02
-5.1923851e-02
-4.6028076e-02
-3.7489665e-02
-3.1764190e-02
-2.9521371e-02
-2.9517074e-02
-2.8125094e-02
-2.3234562e-02
-1.7887031e-02
-1.4166568e-02
-1.1191441e-02
-6.0360625e-03
-2.2365796e-03
-3.9708888e-03
-5.8945878e-03
-5.2094569e-03
-1.1045501e-03
7.8861983e-03
1.8898962e-02
2.7057667e-02
3.0516667e-02
3.1766363e-02
2.8888073e-02
2.1626112e-02
1.6214896e-02
1.2219924e-02
8.3222353e-03
5.5567726e-03
1.5442299e-03
-5.4176394e-03
-1.3751180e-02
-1.8438251e-02
-1.9197838e-02
-1.6676612e-02
-8.8233944e-03
9.7142460e-04
1.1159704e-02
2.2667396e-02
3.1814371e-02
3.0519547e-02
1.8093067e-02
8.9293369e-03
7.5140843e-03
7.7567981e-03
9.3371661e-03
1.1047179e-02
1.4109129e-02
1.8920896e-02
2.1371766e-02
1.5048583e-02
-1.9979636e-03
-2.0329784e-02
-3.4334101e-02
-4.2785470e-02
-4.3531693e-02
-3.8691874e-02
-2.9154119e-02
-1.5142163e-02
2.4177236e-04
1.1243295e-02
1.4777352e-02
1.6865027e-02
1.8842355e-02
1.8990807e-02
2.0826412e-02
2.2765597e-02
2.5192536e-02
3.0679008e-02
3.7664459e-02
4.2069605e-02
4.1707260e-02
3.9144627e-02
3.2312341e-02
2.3625855e-02
1.7010350e-02
7.7366578e-03
-2.5259239e-03
-1.0284765e-02
-1.6375316e-02
-2.2639845e-02
-3.0402136e-02
-3.9029763e-02
-5.1054625e-02
-6.3701931e-02
-7.2044556e-02
-7.7875423e-02
-8.0445355e-02
-7.9059353e-02
-7.4665071e-02
-6.9354754e-02
-6.5404060e-02
-6.0704307e-02
-5.4363932e-02
-4.3248340e-02
-2.5779172e-02
-5.7432917e-03
1.7773527e-02
4.4149328e-02
6.7920776e-02
8.1462968e-02
8.4673405e-02
8.4864064e-02
8.1587631e-02
7.8149960e-02
7.4145063e-02
6.2602577e-02
5.1419385e-02
4.6729471e-02
4.2535929e-02
3.1105155e-02
1.3544541e-02
-2.5021315e-03
-1.6303120e-02
-2.3818884e-02
-2.3476231e-02
-2.1292859e-02
-1.4628594e-02
-1.6588954e-03
1.1524652e-02
1.4469283e-02
5.3850911e-03
-6.7296033e-03
-1.8564342e-02
-2.4393132e-02
-2.7271656e-02
-3.7592050e-02
-4.7798208e-02
-5.1558283e-02
-5.2320625e-02
-5.5037919e-02
-6.0556729e-02
-6.3808909e-02
-6.3257500e-02
-5.5083747e-02
-4.2448969e-02
-3.2925315e-02
-1.9089461e-02
3.9184124e-03
3.2466072e-02
5.7992234e-02
7.5132153e-02
8.6318087e-02
9.0356447e-02
9.3236295e-02
9.1718492e-02
7.6280045e-02
5.9455101e-02
5.1315574e-02
4.8397981e-02
3.9513236e-02
1.9376071e-02
-1.2407343e-03
-1.4989500e-02
-1.8711955e-02
-1.8641531e-02
-2.2886345e-02
-2.2789847e-02
-1.3865008e-02
-5.5426461e-03
-9.5487915e-03
-2.3476997e-02
-3.6395714e-02
-4.5849986e-02
-4.8101163e-02
-4.3179231e-02
-3.5246792e-02
-2.1296955e-02
-4.3675326e-04
2.4244264e-02
4.6013897e-02
6.1567819e-02
7.0762625e-02
7.0176634e-02
6.0659767e-02
3.9561014e-02
9.9854048e-03
-1.6055292e-02
-3.6814916e-02
-5.5190051e-02
-7.2406452e-02
-8.7016617e-02
-9.8159657e-02
-1.0808099e-01
-1.1606769e-01
-1.2364028e-01
-1.2931905e-01
-1.2570281e-01
-1.1221273e-01
-9.1601571e-02
-6.9816787e-02
-4.9534145e-02
-2.6025567e-02
2.4576004e-03
3.5302541e-02
6.6924669e-02
9.8874925e-02
1.4009965e-01
1.9026648e-01
2.3258864e-01
2.3968361e-01
2.1504232e-01
1.8682628e-01
1.6461841e-01
1.3259346e-01
7.6620238e-02
1.5800040e-02
-2.8919319e-02
-5.5991943e-02
-6.7114363e-02
-6.7143140e-02
-5.7545726e-02
-3.8386467e-02
-1.3809053e-02
3.1312734e-03
-4.1418789e-03
-2.8249292e-02
-4.9980702e-02
-6.1251772e-02
-6.0172000e-02
-4.7987428e-02
-2.5362795e-02
-3.0414729e-03
7.4119558e-03
5.5291462e-03
-1.0427487e-02
-3.2352980e-02
-5.0354249e-02
-6.2132237e-02
-6.4451603e-02
-5.8140942e-02
-4.3876983e-02
-2.5988324e-02
-1.0499317e-02
-6.2961210e-03
-2.2905003e-02
-4.6656737e-02
-6.2751246e-02
-6.9235459e-02
-6.2941721e-02
-4.4280088e-02
-1.4942971e-02
1.8005404e-02
4.7292478e-02
6.3215054e-02
5.5666358e-02
3.9688603e-02
3.0247492e-02
2.8688052e-02
3.6915576e-02
4.9839947e-02
5.6776635e-02
4.2300011e-02
5.1851674e-03
-3.7054818e-02
-7.4974977e-02
-1.0712148e-01
-1.3489914e-01
-1.5540679e-01
-1.6104646e-01
-1.4977097e-01
-1.2223725e-01
-8.6033043e-02
-4.6754297e-02
-1.1150268e-02
1.4113821e-02
3.2674056e-02
3.4778618e-02
2.4433948e-02
2.8755650e-02
5.8618880e-02
1.0619539e-01
1.4725853e-01
1.6998355e-01
1.7249837e-01
1.5242742e-01
1.2590021e-01
9.3534709e-02
5.6446865e-02
3.6895583e-02
4.5927947e-02
7.6617786e-02
1.0343050e-01
1.1210848e-01
1.0054342e-01
6.6829983e-02
2.6218462e-02
-2.0199589e-02
-7.2598796e-02
-1.1052886e-01
-1.2387284e-01
-1.1533607e-01
-9.1206296e-02
-5.4875191e-02
-2.4626457e-02
-1.5110264e-02
-1.4224051e-02
-2.5309796e-02
-4.8436659e-02
-6.2926635e-02
-5.6865251e-02
-3.4672691e-02
-1.0925156e-02
8.1367426e-03
1.3290727e-02
3.4260084e-03
-6.3912798e-03
-2.1493085e-02
-4.1401678e-02
-4.4781753e-02
-2.1414815e-02
2.1594219e-02
7.0064914e-02
1.1897790e-01
1.5155837e-01
1.5703497e-01
1.5466400e-01
1.4176442e-01
1.1496038e-01
9.6526612e-02
9.8964386e-02
1.0156790e-01
7.7589776e-02
4.2136550e-02
1.0054941e-03
-5.5690920e-02
-1.1208956e-01
-1.6377559e-01
-2.1210186e-01
-2.4480578e-01
-2.5365346e-01
-2.3975657e-01
-2.0963181e-01
-1.6975870e-01
-1.3572815e-01
-1.1853487e-01
-1.1258511e-01
-1.2108706e-01
-1.4092788e-01
-1.5009449e-01
-1.3486905e-01
-9.5263398e-02
-3.4147407e-02
4.2062723e-02
1.1472740e-01
1.7638345e-01
2.2462283e-01
2.3410417e-01
2.0452504e-01
1.7176999e-01
1.6159789e-01
1.6864896e-01
1.7282644e-01
1.7203267e-01
1.7145364e-01
1.7467958e-01
1.7523782e-01
1.4804922e-01
9.1743583e-02
3.6741203e-02
6.8194904e-03
8.0506542e-03
3.7602890e-02
7.9076171e-02
9.4247103e-02
7.1355560e-02
3.6250990e-02
-1.4715966e-02
-9.0649116e-02
-1.6638715e-01
-2.2052881e-01
-2.5146500e-01
-2.6290716e-01
-2.5578133e-01
-2.4369341e-01
-2.3910089e-01
-2.2903185e-01
-2.0193663e-01
-1.5456113e-01
-8.3380380e-02
1.0234513e-02
1.1077813e-01
1.9851388e-01
2.5888660e-01
2.6389631e-01
2.1751411e-01
1.6396070e-01
1.1671837e-01
7.3219999e-02
4.5818865e-02
4.3692085e-02
6.5229430e-02
1.0380499e-01
1.4663312e-01
1.6764732e-01
1.4696946e-01
9.5599755e-02
3.7709748e-02
-1.4009370e-02
-5.1997649e-02
-6.9633475e-02
-6.7339919e-02
-4.9167357e-02
-2.3858725e-02
-1.2333163e-02
-2.7987468e-02
-5.5945302e-02
-7.5898412e-02
-8.2060109e-02
-7.6643629e-02
-6.3025256e-02
-4.7368796e-02
-3.4226787e-02
-2.2077002e-02
-1.4622598e-02
-1.5704145e-02
-2.0155021e-02
-2.3028913e-02
-2.3256810e-02
-2.1485064e-02
-1.7604653e-02
-1.7399409e-02
-2.7853601e-02
-4.0522246e-02
-5.1380037e-02
-6.5095583e-02
-7.8089582e-02
-8.6021439e-02
-8.7495239e-02
-8.3344493e-02
-7.3977108e-02
-6.9762497e-02
-8.1062824e-02
-9.4973600e-02
-9.9218969e-02
-9.0627613e-02
-6.6402107e-02
-2.6669647e-02
2.6503759e-02
8.5102627e-02
1.3336648e-01
1.5783635e-01
1.6277290e-01
1.6224123e-01
1.6538121e-01
1.7329929e-01
1.7497505e-01
1.5596639e-01
1.1401598e-01
6.0292617e-02
6.5954284e-03
-4.1119169e-02
-7.7812510e-02
-1.0072372e-01
-1.1250313e-01
-1.1642672e-01
-1.1176612e-01
-9.5296904e-02
-6.5489184e-02
-2.6844962e-02
7.3452655e-03
2.3482642e-02
2.4824332e-02
1.7566859e-02
8.6812370e-04
-1.6558264e-02
-2.8557248e-02
-3.5736637e-02
-3.5842323e-02
-3.1803463e-02
-2.7880955e-02
-2.4254123e-02
-1.9566183e-02
-1.2902807e-02
-5.4315969e-03
1.0237007e-03
3.0173544e-03
4.0213677e-03
1.2027403e-02
2.3701949e-02
2.9001472e-02
2.4002215e-02
1.6012611e-02
1.3792812e-02
1.8787202e-02
2.8001862e-02
3.7184218e-02
4.9140014e-02
6.7197203e-02
8.4111544e-02
9.1257020e-02
8.0017830e-02
5.1103399e-02
1.5536337e-02
-2.2557449e-02
-5.6293300e-02
-7.9611878e-02
-9.3362298e-02
-9.7696494e-02
-9.4980864e-02
-8.7547652e-02
-7.7466499e-02
-6.4738625e-02
-4.6566641e-02
-2.2927555e-02
1.1850219e-03
2.0305722e-02
3.7855171e-02
5.7468013e-02
7.1518345e-02
6.9610727e-02
5.1483225e-02
2.9542750e-02
1.2882781e-02
2.6766565e-03
-7.2978345e-04
2.5371651e-04
6.2719873e-03
1.8200330e-02
2.9925003e-02
3.4416079e-02
2.9738005e-02
2.2541978e-02
1.4960403e-02
5.2124983e-03
-2.7289601e-03
-9.4429835e-03
-1.3417285e-02
-1.1762649e-02
-8.8497100e-03
-8.9627841e-03
-1.2646579e-02
-1.4136157e-02
-1.0173598e-02
-3.2301336e-03
6.4827441e-03
1.7108462e-02
2.9522140e-02
4.6270249e-02
6.0856510e-02
6.2708042e-02
5.0140812e-02
3.3164353e-02
1.5805175e-02
-4.3859222e-03
-2.2743200e-02
-3.6810996e-02
-4.8546573e-02
-5.8590565e-02
-6.7649269e-02
-7.5667214e-02
-8.2664460e-02
-8.8435184e-02
-9.3680168e-02
-9.9329706e-02
-1.0423251e-01
-1.0872590e-01
-1.1175443e-01
-1.1177822e-01
-1.1081594e-01
-1.1152426e-01
-1.1307670e-01
-1.0862770e-01
-9.7401854e-02
-8.2967882e-02
-6.3678953e-02
-3.9449088e-02
-7.7337843e-03
3.4924290e-02
8.6362364e-02
1.4036421e-01
1.9471256e-01
2.5172204e-01
2.9202578e-01
3.0429893e-01
2.9340238e-01
2.5309369e-01
2.0434015e-01
1.6959910e-01
1.4363152e-01
1.1167116e-01
6.6243980e-02
2.1400145e-02
-1.6637257e-02
-4.8745111e-02
-7.1323429e-02
-8.6980139e-02
-9.6142541e-02
-9.7499741e-02
-9.2137803e-02
-8.6289191e-02
-8.5725888e-02
-8.4697088e-02
-8.1330357e-02
-7.6905623e-02
-6.8892813e-02
-5.9122890e-02
-4.7295644e-02
-3.1732697e-02
-1.5373770e-02
-6.3917894e-03
-7.5166540e-03
-9.7152641e-03
-9.3224507e-03
-5.9669318e-03
7.1105939e-04
5.6779427e-03
8.9487907e-03
1.3271996e-02
1.8417329e-02
1.8218303e-02
7.3540452e-03
-8.1210240e-03
-2.4481848e-02
-3.8918027e-02
-4.5668628e-02
-4.4778912e-02
-3.7553594e-02
-2.5604769e-02
-1.1542189e-02
3.4849675e-03
2.0133533e-02
3.3477465e-02
3.4618598e-02
3.0459852e-02
2.8697858e-02
2.4043642e-02
1.8262152e-02
1.5156448e-02
1.2330652e-02
6.9151761e-03
7.6290138e-05
-5.0738881e-03
-9.3907451e-03
-9.6967735e-03
-3.8599430e-03
4.6234344e-03
1.7862411e-02
3.4767664e-02
4.5766668e-02
4.3629713e-02
3.2848151e-02
2.1945204e-02
1.1112705e-02
3.6834247e-03
3.0461857e-03
3.6926090e-03
2.1232294e-03
-1.5284834e-03
-7.8434877e-03
-1.8479368e-02
-3.1195560e-02
-3.9873033e-02
-4.3096420e-02
-4.0678375e-02
-3.4910720e-02
-3.0277171e-02
-2.3924377e-02
-1.6051421e-02
-1.3888934e-02
-2.4212829e-02
-4.5550395e-02
-6.6320542e-02
-8.0374393e-02
-8.6337846e-02
-8.4275905e-02
-7.8057075e-02
-6.6605414e-02
-4.9329378e-02
-3.0666807e-02
-1.4754478e-02
-8.1560365e-04
1.6492691e-02
3.8041279e-02
6.3331378e-02
7.8324163e-02
6.9630165e-02
5.5337924e-02
4.9688465e-02
4.8407225e-02
4.5012477e-02
3.8935290e-02
3.4937822e-02
3.2150104e-02
2.9403207e-02
1.9486205e-02
-2.3160832e-03
-2.3170540e-02
-3.5670513e-02
-4.3335288e-02
-4.9885988e-02
-5.4481311e-02
-5.1403027e-02
-3.8112016e-02
-1.2044366e-02
2.3524639e-02
6.3232062e-02
1.1108156e-01
1.6391951e-01
1.9792009e-01
1.8452425e-01
1.3353272e-01
8.1958136e-02
4.1940585e-02
8.7313639e-03
-2.0671147e-02
-4.5818440e-02
-6.1856817e-02
-6.9615917e-02
-7.5560771e-02
-8.6817691e-02
-1.0215693e-01
-1.1204849e-01
-1.1401174e-01
-1.1085805e-01
-1.0705654e-01
-1.0210416e-01
-8.8996211e-02
-6.9665656e-02
-5.3090559e-02
-4.4285104e-02
-3.5909022e-02
-1.6717164e-02
1.4205828e-02
4.6494084e-02
5.7880126e-02
4.6279568e-02
3.8770783e-02
4.8029411e-02
6.7395897e-02
8.8449075e-02
1.1075186e-01
1.2869308e-01
1.3273367e-01
1.1923675e-01
7.9604070e-02
2.8638647e-02
-1.0440691e-02
-3.6148761e-02
-5.4189819e-02
-6.7893391e-02
-6.9282871e-02
-5.6185827e-02
-3.4932709e-02
-1.1766962e-02
3.4602207e-03
1.6269798e-02
3.8280008e-02
6.8203754e-02
8.9527884e-02
8.2079462e-02
5.6638411e-02
3.9328561e-02
3.7080275e-02
3.7560001e-02
2.2152743e-02
-5.3825095e-03
-2.4867973e-02
-2.9478270e-02
-2.0714504e-02
-3.3547186e-03
1.8434320e-02
4.0648220e-02
5.7923167e-02
6.0881709e-02
3.8243338e-02
3.9501806e-03
-2.3262161e-02
-4.0490986e-02
-4.5179073e-02
-3.7349579e-02
-1.9393281e-02
-4.6567088e-03
-4.8659213e-03
-1.5420138e-02
-3.4599700e-02
-5.5367821e-02
-6.8253920e-02
-7.2538009e-02
-6.7619764e-02
-5.6477734e-02
-4.2004891e-02
-2.6715514e-02
-1.3976790e-02
-8.2808500e-03
-1.3827618e-02
-2.2447196e-02
-2.6564961e-02
-2.5888034e-02
-1.8546864e-02
-6.4368011e-03
8.6715335e-03
2.5017955e-02
4.0000423e-02
4.4686863e-02
2.9338041e-02
6.5753254e-03
-1.2114992e-02
-2.6958027e-02
-3.6141164e-02
-4.1403626e-02
-4.3230206e-02
-4.6223859e-02
-5.4910603e-02
-6.5160570e-02
-7.3897999e-02
-7.7338543e-02
-7.3810427e-02
-6.1734573e-02
-3.6749420e-02
1.1359026e-03
4.8238347e-02
8.8805329e-02
1.1316436e-01
1.1888110e-01
9.9879232e-02
6.9680084e-02
3.8709556e-02
1.1375046e-02
-5.4496940e-04
6.1420929e-03
2.9656488e-02
5.7375969e-02
7.7094746e-02
7.7953810e-02
5.0553322e-02
1.2182728e-02
-2.4855037e-02
-5.7763711e-02
-7.6634183e-02
-7.8854884e-02
-6.4098879e-02
-3.8788119e-02
-1.1123968e-02
4.9780896e-03
-2.6267123e-03
-1.7507059e-02
-2.7950737e-02
-3.1449896e-02
-1.8293370e-02
1.3305153e-02
6.0928171e-02
1.1799873e-01
1.7909803e-01
2.2787292e-01
2.4793563e-01
2.4846526e-01
2.3016054e-01
1.9624204e-01
1.6465208e-01
1.4262611e-01
1.2828322e-01
1.1652350e-01
1.0671052e-01
9.8366445e-02
8.7680461e-02
