-2.3151212e-01
-1.8991611e-01
-1.8958471e-01
-2.6511874e-01
-4.0207267e-01
-5.4195847e-01
-6.1871382e-01
-5.9424951e-01
-4.6848539e-01
-2.6844721e-01
-5.1567438e-02
1.0574635e-01
1.5403158e-01
1.0275449e-01
-3.3541369e-04
-1.1365699e-01
-2.1655331e-01
-3.0137180e-01
-3.6918065e-01
-4.1825210e-01
-4.3280331e-01
-3.9884350e-01
-3.2757115e-01
-2.4435394e-01
-1.5709805e-01
-4.7049742e-02
1.1251234e-01
3.2906287e-01
5.6223927e-01
7.2493598e-01
7.5292467e-01
6.7440880e-01
5.7420691e-01
5.0069483e-01
4.4675576e-01
3.8933369e-01
3.0304046e-01
1.5653630e-01
-6.9713435e-02
-3.4183488e-01
-5.7640631e-01
-7.0275581e-01
-6.9215813e-01
-5.5241766e-01
-3.2025919e-01
-4.9495058e-02
1.9852148e-01
3.6737924e-01
4.0639283e-01
2.8241460e-01
2.4147148e-02
-2.7627438e-01
-5.2085964e-01
-6.5282851e-01
-6.6861748e-01
-6.0604237e-01
-5.1329400e-01
-4.1595663e-01
-3.0798819e-01
-1.5849969e-01
6.3925115e-02
3.6362706e-01
7.2016659e-01
1.0829931e+00
1.3447839e+00
1.3698588e+00
1.1038957e+00
6.4674562e-01
1.7822024e-01
-1.7211623e-01
-3.6455907e-01
-4.2076098e-01
-3.8926366e-01
-3.1527957e-01
-2.2462533e-01
-1.1946904e-01
5.8174567e-03
1.4594842e-01
2.9402400e-01
4.4770915e-01
5.8324946e-01
6.3299344e-01
5.1855372e-01
2.3564311e-01
-1.1896446e-01
-4.3073938e-01
-6.3818395e-01
-7.2788505e-01
-7.1796205e-01
-6.5230020e-01
-5.7541164e-01
-4.9842930e-01
-4.1209008e-01
-3.2122897e-01
-2.3708395e-01
-1.6474623e-01
-1.1135850e-01
-8.6291890e-02
-9.1580081e-02
-1.1685864e-01
-1.4899826e-01
-1.8315857e-01
-2.1750891e-01
-2.4390649e-01
-2.5162563e-01
-2.3532709e-01
-1.9524956e-01
-1.3669081e-01
-6.8679116e-02
1.9105106e-03
7.4277649e-02
1.5225148e-01
2.3555394e-01
3.1670254e-01
3.9464745e-01
4.8563816e-01
6.1168658e-01
7.8003059e-01
9.7820033e-01
1.1793943e+00
1.3295464e+00
1.3304269e+00
1.0939463e+00
6.4583427e-01
1.2162460e-01
-3.4732019e-01
-7.0665216e-01
-9.8716069e-01
-1.2205836e+00
-1.3699334e+00
-1.4083930e+00
-1.3525947e+00
-1.2202329e+00
-1.0278298e+00
-7.9419955e-01
-5.3811737e-01
-2.7793762e-01
-2.6067235e-02
2.1144192e-01
4.3249527e-01
6.3680387e-01
8.2094689e-01
9.8064359e-01
1.1148999e+00
1.2182288e+00
1.2636932e+00
1.2078150e+00
1.0315470e+00
7.7290391e-01
4.9988015e-01
2.5702606e-01
5.3609209e-02
-1.2018502e-01
-2.8135804e-01
-4.4179129e-01
-5.9140522e-01
-7.0730629e-01
-7.7873850e-01
-8.0308895e-01
-7.7817266e-01
-7.1767169e-01
-6.5845279e-01
-6.2532627e-01
-5.9993738e-01
-5.5343198e-01
-4.9343007e-01
-4.5235108e-01
-4.4058150e-01
-4.3432157e-01
-4.0558610e-01
-3.4039293e-01
-2.3305259e-01
-8.5432956e-02
8.7267225e-02
2.6186414e-01
4.2006433e-01
5.4555343e-01
6.1519420e-01
6.1278543e-01
5.5195588e-01
4.7108001e-01
4.0427862e-01
3.6283628e-01
3.3808386e-01
3.1794560e-01
3.0017076e-01
2.8818325e-01
2.7707708e-01
2.4980978e-01
1.9212342e-01
1.0231021e-01
-1.2671708e-02
-1.3522808e-01
-2.3758902e-01
-2.9600310e-01
-3.0148340e-01
-2.5406100e-01
-1.5228601e-01
4.4969330e-03
2.0168915e-01
3.8958970e-01
4.9291016e-01
4.6966216e-01
3.5135375e-01
2.0797301e-01
8.9324898e-02
5.2987585e-03
-6.5649358e-02
-1.4811612e-01
-2.3578722e-01
-2.9610531e-01
-3.0550266e-01
-2.6846994e-01
-2.0974851e-01
-1.5509722e-01
-1.1506510e-01
-9.0523413e-02
-8.8868968e-02
-1.1875138e-01
-1.7016857e-01
-2.1199013e-01
-2.1320090e-01
-1.6342515e-01
-7.9008690e-02
7.4766964e-04
2.9741339e-02
-1.3657026e-02
-1.0362501e-01
-1.9131056e-01
-2.5417499e-01
-3.0664999e-01
-3.6823769e-01
-4.3161782e-01
-4.6450873e-01
-4.3691055e-01
-3.4371595e-01
-2.0800780e-01
-6.2212923e-02
7.8884532e-02
2.2113841e-01
3.5472649e-01
4.2743698e-01
3.8204932e-01
2.2538333e-01
4.2188753e-02
-7.0337863e-02
-6.1669513e-02
6.6418123e-02
2.7170387e-01
4.8442115e-01
6.3555777e-01
7.0867054e-01
7.5031172e-01
8.0769091e-01
8.7793589e-01
9.2263488e-01
9.3113623e-01
9.2264107e-01
8.6765942e-01
6.9760357e-01
3.9264924e-01
1.3612132e-02
-3.3853523e-01
-5.9008740e-01
-7.2387039e-01
-7.6265338e-01
-7.4969311e-01
-7.2844382e-01
-7.1858017e-01
-7.1292839e-01
-6.9723781e-01
-6.6908871e-01
-6.3798525e-01
-6.1025750e-01
-5.8247276e-01
-5.4829291e-01
-5.0417817e-01
-4.4916350e-01
-3.8298921e-01
-3.0745108e-01
-2.3219561e-01
-1.7212116e-01
-1.3060839e-01
-9.3095738e-02
-4.3519721e-02
2.2698019e-02
1.0629042e-01
2.0854384e-01
3.1952463e-01
4.0557138e-01
4.2162234e-01
3.6225309e-01
2.8580993e-01
2.6326118e-01
3.3141368e-01
4.8928204e-01
6.9751741e-01
8.8326073e-01
9.6956739e-01
9.1577484e-01
7.2237276e-01
4.1146448e-01
3.4634639e-02
-3.3023893e-01
-6.1325517e-01
-7.7871125e-01
-8.3285426e-01
-8.0737295e-01
-7.3073989e-01
-6.1242861e-01
-4.4818336e-01
-2.3252117e-01
3.1588538e-02
3.2986686e-01
6.4650415e-01
9.6270468e-01
1.2164133e+00
1.2868926e+00
1.0871955e+00
6.7475664e-01
2.1864854e-01
-1.3724698e-01
-3.4234621e-01
-4.2144193e-01
-4.3539471e-01
-4.3874547e-01
-4.5414274e-01
-4.6682558e-01
-4.5107460e-01
-3.9874761e-01
-3.1077079e-01
-1.9121754e-01
-6.5302129e-02
1.6349155e-02
1.7524906e-02
-4.2324460e-02
-1.1787894e-01
-1.9485174e-01
-2.7908105e-01
-3.5613626e-01
-3.9682299e-01
-3.8996877e-01
-3.4604167e-01
-2.7351859e-01
-1.6907663e-01
-2.3686374e-02
1.6939886e-01
4.0138216e-01
6.3032892e-01
7.7890153e-01
7.7845969e-01
6.3171892e-01
3.9906568e-01
1.3535818e-01
-1.2509125e-01
-3.5835553e-01
-5.5087197e-01
-6.9808483e-01
-7.9973101e-01
-8.4946074e-01
-8.3520744e-01
-7.5961343e-01
-6.4200137e-01
-4.9522368e-01
-3.1641356e-01
-1.0029683e-01
1.4653043e-01
4.0113624e-01
6.3470733e-01
8.3196945e-01
9.9756998e-01
1.1484508e+00
1.2880927e+00
1.3796453e+00
1.3600663e+00
1.1917934e+00
8.9608413e-01
5.3068367e-01
1.5577179e-01
-1.7499671e-01
-4.2395695e-01
-5.8306500e-01
-6.7794416e-01
-7.5847221e-01
-8.4705993e-01
-9.2394319e-01
-9.8216164e-01
-1.0251419e+00
-1.0381570e+00
-1.0022581e+00
-9.1164878e-01
-7.7804450e-01
-6.1850085e-01
-4.3553937e-01
-2.1718614e-01
4.8149837e-02
3.5484550e-01
6.6047768e-01
8.9240683e-01
9.9212548e-01
9.4902804e-01
7.9273292e-01
5.7131585e-01
3.3950302e-01
1.4907996e-01
2.7367979e-02
-4.1705405e-02
-9.9396523e-02
-1.7672262e-01
-2.7926736e-01
-3.8724215e-01
-4.6711464e-01
-4.9835542e-01
-4.9112531e-01
-4.6875656e-01
-4.3956048e-01
-3.9380530e-01
-3.1673453e-01
-1.9328138e-01
-1.2138510e-02
2.2460531e-01
5.0138553e-01
8.0124890e-01
1.1034259e+00
1.3450279e+00
1.4040534e+00
1.1787805e+00
7.0333211e-01
1.4644610e-01
-3.1939830e-01
-6.1507933e-01
-7.4734415e-01
-7.6217997e-01
-7.1041822e-01
-6.3321791e-01
-5.4474914e-01
-4.3526124e-01
-2.9756265e-01
-1.2922587e-01
7.2724272e-02
2.9555957e-01
4.9673111e-01
6.2371348e-01
6.5579738e-01
6.1623675e-01
5.4327091e-01
4.6514298e-01
3.9277468e-01
3.1690074e-01
2.0609485e-01
2.2440534e-02
-2.3320839e-01
-5.0524263e-01
-7.2620545e-01
-8.5770742e-01
-9.0088114e-01
-8.8636118e-01
-8.4697073e-01
-7.9679366e-01
-7.3150119e-01
-6.4374359e-01
-5.3353408e-01
-4.0177286e-01
-2.4745540e-01
-7.5608187e-02
1.0265761e-01
2.8258833e-01
4.7208532e-01
6.8394176e-01
9.2610334e-01
1.2016036e+00
1.5060963e+00
1.7956269e+00
1.9450681e+00
1.7952080e+00
1.2982871e+00
5.9301182e-01
-1.0151019e-01
-6.3858316e-01
-9.7965925e-01
-1.1532182e+00
-1.2161948e+00
-1.2217985e+00
-1.1912931e+00
-1.1207743e+00
-1.0142260e+00
-8.8319393e-01
-7.3169879e-01
-5.6525167e-01
-4.0503229e-01
-2.7902682e-01
-1.9127652e-01
-1.1303823e-01
-9.2021866e-03
1.4420304e-01
3.5846165e-01
6.1889427e-01
8.7319354e-01
1.0638257e+00
1.1778035e+00
1.2301318e+00
1.2102780e+00
1.0892469e+00
8.7404395e-01
6.2211564e-01
3.8981118e-01
1.9431459e-01
3.5182544e-02
-7.8006191e-02
-1.3393408e-01
-1.4805338e-01
-1.6308981e-01
-2.3994359e-01
-4.4426750e-01
-7.7063945e-01
-1.1096392e+00
-1.3405914e+00
-1.4121338e+00
-1.3334243e+00
-1.1466814e+00
-9.1137602e-01
-6.8086871e-01
-4.8240433e-01
-3.1281387e-01
-1.6334247e-01
-5.2336772e-02
-1.4404594e-02
-5.4417233e-02
-1.2584429e-01
-1.6298785e-01
-1.2373246e-01
-3.2753325e-03
1.7967913e-01
4.0212879e-01
6.3762851e-01
8.5757112e-01
1.0211271e+00
1.0607646e+00
9.3016086e-01
6.7219339e-01
4.0081497e-01
2.1131482e-01
1.3306623e-01
1.5055413e-01
2.2736579e-01
3.1120580e-01
3.4783320e-01
3.2252362e-01
2.7249765e-01
2.4824771e-01
2.8512051e-01
3.8474719e-01
4.9699450e-01
5.3644532e-01
4.4038143e-01
2.2485730e-01
-3.0597884e-02
-2.5187386e-01
-4.0556705e-01
-4.9019111e-01
-5.2075376e-01
-5.1755681e-01
-4.9970025e-01
-4.7695922e-01
-4.4825360e-01
-4.0894770e-01
-3.5221228e-01
-2.7726266e-01
-1.9959067e-01
-1.3936395e-01
-1.0348584e-01
-8.5345591e-02
-7.8702177e-02
-8.8443814e-02
-1.2347914e-01
-1.8664689e-01
-2.7604239e-01
-3.7833018e-01
-4.6231282e-01
-4.9354373e-01
-4.5545395e-01
-3.5898704e-01
-2.2799316e-01
-7.4278010e-02
1.0548007e-01
3.1074428e-01
5.2425567e-01
7.1895217e-01
8.6397497e-01
9.2561656e-01
8.8003717e-01
7.3333801e-01
5.2547435e-01
3.1113416e-01
1.3930997e-01
3.8492001e-02
7.9896995e-03
1.6649522e-02
1.2442009e-02
-4.4655029e-02
-1.5523380e-01
-2.8691629e-01
-3.9853438e-01
-4.6147006e-01
-4.6723060e-01
-4.2283531e-01
-3.4610093e-01
-2.6344015e-01
-2.0208824e-01
-1.7968071e-01
-1.9752772e-01
-2.3733983e-01
-2.7244914e-01
-2.8449576e-01
-2.6336169e-01
-2.0361784e-01
-1.0672418e-01
1.8414785e-02
1.5997333e-01
3.0805904e-01
4.5146962e-01
5.7574343e-01
6.6996496e-01
7.3256667e-01
7.6309994e-01
7.4222952e-01
6.3904272e-01
4.5662595e-01
2.4634532e-01
6.1032561e-02
-8.3948155e-02
-1.9976767e-01
-3.0447211e-01
-4.1956259e-01
-5.5612084e-01
-6.9019649e-01
-7.7265283e-01
-7.7679736e-01
-7.2774511e-01
-6.8372139e-01
-6.8455520e-01
-7.2785359e-01
-7.8216687e-01
-7.9694835e-01
-7.2424874e-01
-5.4489910e-01
-2.6632091e-01
9.0405423e-02
4.9070058e-01
8.8373945e-01
1.2024758e+00
1.3780239e+00
1.3704598e+00
1.1887644e+00
8.8632820e-01
5.4120975e-01
2.3344140e-01
2.0023488e-02
-8.4334251e-02
-1.0234936e-01
-7.1043454e-02
-2.4871488e-02
6.4412943e-03
3.1644094e-03
-4.4522974e-02
-1.3742482e-01
-2.5552338e-01
-3.6613700e-01
-4.4455731e-01
-4.8162278e-01
-4.8142754e-01
-4.5460028e-01
-4.1644051e-01
-3.8568638e-01
-3.7325336e-01
-3.7177154e-01
-3.6490773e-01
-3.4560950e-01
-3.1714872e-01
-2.8278312e-01
-2.3989881e-01
-1.8151586e-01
-9.9374093e-02
1.2864370e-02
1.4895330e-01
2.8068332e-01
3.6975108e-01
4.0181706e-01
4.0403168e-01
4.2061416e-01
4.8303923e-01
5.9841122e-01
7.4312640e-01
8.6351523e-01
8.9817534e-01
8.1567247e-01
6.2964555e-01
3.8153599e-01
1.1936104e-01
-1.1424481e-01
-2.8467771e-01
-3.7187832e-01
-3.8343340e-01
-3.5558366e-01
-3.3691916e-01
-3.5975342e-01
-4.2281627e-01
-4.9758172e-01
-5.4895998e-01
-5.5699452e-01
-5.1984473e-01
-4.4652061e-01
-3.5056550e-01
-2.4304567e-01
-1.3049968e-01
-1.6181279e-02
9.5383325e-02
1.9399135e-01
2.7057943e-01
3.2660789e-01
3.7039406e-01
4.0419579e-01
4.1874094e-01
4.0452740e-01
3.6924473e-01
3.3636090e-01
3.2445924e-01
3.3031187e-01
3.3011205e-01
2.9892812e-01
2.2759390e-01
1.2896080e-01
3.3746533e-02
-2.8293599e-02
-4.4818534e-02
-2.9578524e-02
-2.1048187e-02
-5.6224762e-02
-1.4251087e-01
-2.5658481e-01
-3.6273234e-01
-4.3307609e-01
-4.5727338e-01
-4.4190357e-01
-4.0170004e-01
-3.4924399e-01
-2.9251529e-01
-2.3247265e-01
-1.6293788e-01
-7.7831101e-02
2.2587097e-02
1.2765925e-01
2.1953102e-01
2.8664230e-01
3.3472180e-01
3.8415949e-01
4.5105912e-01
5.2394817e-01
5.6673458e-01
5.5622240e-01
5.0743765e-01
4.4440267e-01
3.6256982e-01
2.4881933e-01
1.1873938e-01
-1.7263312e-03
-1.2499215e-01
-3.0174271e-01
-5.2624632e-01
-7.1455953e-01
-8.2194898e-01
-8.6059751e-01
-8.4152884e-01
-7.7033382e-01
-6.5515450e-01
-5.1439853e-01
-3.7387752e-01
-2.4347100e-01
-1.1165284e-01
3.4953922e-02
1.9817096e-01
3.6751317e-01
5.2974970e-01
6.7373069e-01
7.7856895e-01
8.1088029e-01
7.4896028e-01
6.0636733e-01
4.2357072e-01
2.3650773e-01
6.2318793e-02
-8.9727118e-02
-2.1560092e-01
-3.2561439e-01
-4.3390342e-01
-5.3567222e-01
-6.1132500e-01
-6.4909996e-01
-6.5080569e-01
-6.2841517e-01
-6.0110326e-01
-5.8301285e-01
-5.7229009e-01
-5.5425746e-01
-5.1696813e-01
-4.6023743e-01
-3.8652222e-01
-2.9329560e-01
-1.7989686e-01
-5.3823363e-02
7.8808679e-02
2.2396613e-01
3.9353539e-01
5.9464492e-01
8.3068978e-01
1.0965626e+00
1.3447251e+00
1.4669429e+00
1.3666552e+00
1.0723438e+00
7.3002974e-01
4.7666638e-01
3.6964711e-01
3.9499650e-01
4.6999949e-01
4.5678075e-01
2.5094424e-01
-1.0813784e-01
-4.7705343e-01
-7.4626212e-01
-8.8190398e-01
-8.9892069e-01
-8.3794766e-01
-7.3882190e-01
-6.2221931e-01
-4.8952200e-01
-3.4730118e-01
-2.2681542e-01
-1.5780033e-01
-1.3551037e-01
-1.3348026e-01
-1.3285651e-01
-1.2318418e-01
-9.3084320e-02
-3.0785427e-02
7.0167571e-02
2.0581117e-01
3.6001011e-01
4.9762015e-01
5.6356231e-01
5.1509064e-01
3.6695631e-01
1.8223088e-01
1.6640077e-02
-1.0971271e-01
-2.0403721e-01
-2.8354664e-01
-3.5275961e-01
-3.9144761e-01
-3.6982304e-01
-2.7958330e-01
-1.4946339e-01
-1.8689869e-02
9.4006103e-02
1.7363459e-01
1.8740488e-01
1.1390286e-01
-2.2522327e-02
-1.6274050e-01
-2.5316107e-01
-2.7265475e-01
-2.3431660e-01
-1.7426984e-01
-1.3088542e-01
-1.2715243e-01
-1.5717808e-01
-1.9437405e-01
-2.1909484e-01
-2.2264204e-01
-1.9954582e-01
-1.4942860e-01
-7.8532616e-02
4.9907919e-03
1.0123206e-01
2.2224813e-01
3.8397377e-01
5.9958421e-01
8.7192551e-01
1.1621015e+00
1.3538809e+00
1.3054630e+00
9.9327110e-01
5.5395624e-01
1.5825289e-01
-9.7524066e-02
-2.1620235e-01
-2.7050485e-01
-3.2191675e-01
-3.7295282e-01
-3.9396447e-01
-3.7270654e-01
-3.3904429e-01
-3.4068839e-01
-3.9486005e-01
-4.6755834e-01
-5.0407116e-01
-4.7698125e-01
-3.9767822e-01
-2.9662445e-01
-2.0399795e-01
-1.3840541e-01
-1.0641828e-01
-1.0944181e-01
-1.4595961e-01
-2.0868496e-01
-2.8058560e-01
-3.3224666e-01
-3.3387811e-01
-2.7662261e-01
-1.7819947e-01
-7.1616052e-02
1.2356078e-02
5.9990375e-02
8.2339014e-02
1.0908646e-01
1.6784761e-01
2.7210781e-01
4.1798951e-01
5.7414901e-01
6.8110454e-01
6.8301831e-01
5.7647770e-01
4.1440486e-01
2.5537340e-01
1.2866552e-01
3.6066100e-02
-2.9491921e-02
-6.5734056e-02
-6.2663389e-02
-1.4924683e-02
5.7507836e-02
1.0142780e-01
7.0880451e-02
-2.4113031e-02
-1.2582297e-01
-1.8212823e-01
-1.7511091e-01
-1.1682001e-01
-4.2553986e-02
2.7396059e-03
-1.3768040e-02
-9.0891298e-02
-1.9771022e-01
-3.0146882e-01
-3.7934052e-01
-4.1745989e-01
-4.1728046e-01
-3.9785795e-01
-3.8062532e-01
-3.7248575e-01
-3.6815151e-01
-3.6122433e-01
-3.4188720e-01
-2.9920192e-01
-2.3765395e-01
-1.7918337e-01
-1.4246606e-01
-1.1981352e-01
-7.6094219e-02
2.5403168e-02
1.9918298e-01
4.3179500e-01
6.7941840e-01
8.8064672e-01
9.9786262e-01
1.0486016e+00
1.0724019e+00
1.0606175e+00
9.5211599e-01
7.1142340e-01
3.8678618e-01
7.0856842e-02
-1.7236937e-01
-3.2367238e-01
-3.9468999e-01
-4.1230597e-01
-3.9491023e-01
-3.4283778e-01
-2.5730262e-01
-1.6212672e-01
-9.0718013e-02
-5.6142598e-02
-5.0190218e-02
-6.6965042e-02
-1.1226105e-01
-1.8623447e-01
-2.7344951e-01
-3.5303606e-01
-4.0560842e-01
-4.2321796e-01
-4.2918249e-01
-4.6865080e-01
-5.5953207e-01
-6.7270852e-01
-7.6884889e-01
-8.3309794e-01
-8.7016921e-01
-8.8608480e-01
-8.7980660e-01
-8.4422712e-01
-7.7622632e-01
-6.7915948e-01
-5.5103104e-01
-3.7723621e-01
-1.3501581e-01
1.9639916e-01
6.1346298e-01
1.0607124e+00
1.4404829e+00
1.6875064e+00
1.8301299e+00
1.9444396e+00
2.0759239e+00
2.2214117e+00
2.3371571e+00
2.3292857e+00
2.0750816e+00
1.5250887e+00
7.7270382e-01
-1.2648930e-02
-6.8679192e-01
-1.1622134e+00
-1.4024840e+00
-1.4212685e+00
-1.2744779e+00
-1.0462847e+00
-8.3987733e-01
-7.4209575e-01
-7.6969559e-01
-8.5870421e-01
-9.0936851e-01
-8.4701227e-01
-6.5632569e-01
-3.8824316e-01
-1.3949513e-01
4.1292036e-03
2.1084428e-02
-3.8954857e-02
-1.0744863e-01
-1.5281378e-01
-1.8014390e-01
-2.0405945e-01
-2.2793719e-01
-2.3949038e-01
-2.2084128e-01
-1.6079367e-01
-6.7083721e-02
3.6214286e-02
1.3224114e-01
2.2251324e-01
3.0822017e-01
3.6853762e-01
3.6730641e-01
2.8863978e-01
1.6146663e-01
3.8293130e-02
-4.0022102e-02
-5.9206179e-02
-3.1515622e-02
1.3637859e-02
4.6430960e-02
5.8565823e-02
6.0603130e-02
5.5046081e-02
3.5353319e-02
6.1370068e-03
-1.2419410e-02
8.5972677e-04
5.4195114e-02
1.3834404e-01
2.2197353e-01
2.5741130e-01
2.1329371e-01
1.0743934e-01
-6.3768069e-03
-8.4280767e-02
-1.1455523e-01
-1.1186825e-01
-1.0036757e-01
-9.2062565e-02
-8.2306600e-02
-6.3829413e-02
-4.4286552e-02
-4.8015402e-02
-9.0493551e-02
-1.5460367e-01
-2.0080050e-01
-1.9932453e-01
-1.4535771e-01
-5.4766329e-02
4.0740345e-02
1.0261247e-01
1.0202621e-01
4.3487374e-02
-3.3033372e-02
-8.5038109e-02
-9.1006537e-02
-4.7681156e-02
3.9307093e-02
1.5757525e-01
2.8441151e-01
3.8800933e-01
4.3435446e-01
4.0431906e-01
3.1134213e-01
1.9662521e-01
1.0254115e-01
4.4302562e-02
2.5610741e-03
-5.4305515e-02
-1.3647526e-01
-2.2283008e-01
-2.8167662e-01
-2.9437712e-01
-2.6788690e-01
-2.3848391e-01
-2.5503374e-01
-3.3567499e-01
-4.4591228e-01
-5.2960391e-01
-5.4523309e-01
-4.7920741e-01
-3.4754350e-01
-1.9181523e-01
-6.8163876e-02
-1.3255683e-02
-1.5526864e-02
-3.6031537e-02
-4.0422808e-02
-2.9289624e-03
9.6547263e-02
2.6294670e-01
4.7336423e-01
6.8301976e-01
8.4516236e-01
9.1288585e-01
8.4350070e-01
6.4446949e-01
4.0413708e-01
2.3920788e-01
2.1280115e-01
3.1018314e-01
4.6194826e-01
5.8564713e-01
6.2287915e-01
5.4791021e-01
3.7517850e-01
1.6205747e-01
-1.7663659e-02
-1.1590891e-01
-1.3103166e-01
-9.8401561e-02
-7.7828060e-02
-1.2542923e-01
-2.5088808e-01
-4.1323313e-01
-5.6071814e-01
-6.6428011e-01
-7.1941324e-01
-7.3454121e-01
-7.2890236e-01
-7.2559292e-01
-7.3103913e-01
-7.2893243e-01
-6.9673209e-01
-6.2501812e-01
-5.2210535e-01
-4.0231883e-01
-2.7548690e-01
-1.4770255e-01
-2.9282346e-02
6.1884547e-02
1.0867304e-01
1.1111994e-01
9.5069763e-02
9.6991992e-02
1.4369974e-01
2.4241091e-01
3.7241040e-01
4.8212472e-01
5.1315181e-01
4.5248697e-01
3.5085065e-01
2.7484510e-01
2.6621215e-01
3.3716917e-01
4.6358953e-01
5.7535039e-01
5.7968926e-01
4.3631366e-01
1.9956135e-01
-3.5189481e-02
-1.9516861e-01
-2.5328429e-01
-2.2040186e-01
-1.1922128e-01
2.2008197e-02
1.6338252e-01
2.4997040e-01
2.2707079e-01
8.6148149e-02
-1.1239760e-01
-2.8308270e-01
-3.7906727e-01
-4.0276796e-01
-3.7632381e-01
-3.2242332e-01
-2.6342514e-01
-2.1522267e-01
-1.7174233e-01
-1.1295623e-01
-3.1516200e-02
5.9648345e-02
1.3607296e-01
1.7464720e-01
1.6491934e-01
1.1158665e-01
3.8694912e-02
-1.4978515e-02
-1.9228145e-02
2.8871368e-02
1.0678183e-01
1.8104445e-01
2.2936806e-01
2.5918773e-01
2.9795208e-01
3.5285806e-01
3.8415548e-01
3.3811247e-01
2.0454755e-01
2.6239445e-02
-1.4254782e-01
-2.6685263e-01
-3.3547337e-01
-3.5481850e-01
-3.3781011e-01
-3.0046343e-01
-2.5631775e-01
-2.1096158e-01
-1.6623965e-01
-1.2394660e-01
-9.0142275e-02
-8.3166296e-02
-1.2467149e-01
-2.1477161e-01
-3.2503547e-01
-4.2119427e-01
-4.8652271e-01
-5.1492453e-01
-4.9643275e-01
-4.2663531e-01
-3.2120979e-01
-2.0154596e-01
-7.1564265e-02
6.7518154e-02
1.9038920e-01
2.6561704e-01
3.0031025e-01
3.4829985e-01
4.6804228e-01
6.8887118e-01
1.0044960e+00
1.3487896e+00
1.5732474e+00
1.5200567e+00
1.1734795e+00
6.8277927e-01
2.1900856e-01
-1.2604743e-01
-3.5370281e-01
-5.3352108e-01
-7.2881920e-01
-9.4284375e-01
-1.1335871e+00
-1.2558937e+00
-1.2921116e+00
-1.2485500e+00
-1.1362353e+00
-9.5917123e-01
-7.1594670e-01
-4.1512656e-01
-8.2929528e-02
2.3811111e-01
4.9969902e-01
6.6763912e-01
7.3631402e-01
7.2934424e-01
6.8341140e-01
6.2882367e-01
5.7790065e-01
5.2677019e-01
4.6281545e-01
3.6714909e-01
2.3014933e-01
6.7508686e-02
-9.0297370e-02
-2.1940334e-01
-3.1366829e-01
-3.8197152e-01
-4.3329592e-01
-4.6300848e-01
-4.5476986e-01
-3.9355040e-01
-2.7870637e-01
-1.2440344e-01
4.8306865e-02
2.0644932e-01
3.0224977e-01
3.0051227e-01
2.1623179e-01
1.1447200e-01
6.2872010e-02
9.3627385e-02
1.9751186e-01
3.2349020e-01
3.9392401e-01
3.5108957e-01
2.0922097e-01
4.5288874e-02
-6.8438851e-02
-1.0130536e-01
-6.1244702e-02
1.6171287e-02
8.6698542e-02
1.1553901e-01
9.2642701e-02
3.3437229e-02
-3.9695682e-02
-1.0732593e-01
-1.5117593e-01
-1.5716622e-01
-1.2366773e-01
-6.6622514e-02
-8.4204037e-03
4.0892803e-02
8.5460333e-02
1.3505941e-01
1.9644899e-01
2.5753585e-01
2.7716341e-01
2.1056841e-01
6.0915778e-02
-1.1296098e-01
-2.4847605e-01
-3.1561740e-01
-3.1709160e-01
-2.7586590e-01
-2.1863964e-01
-1.6859778e-01
-1.3867762e-01
-1.3007844e-01
-1.4127498e-01
-1.6770317e-01
-1.9746297e-01
-2.1277214e-01
-1.9697330e-01
-1.4469883e-01
-6.4408376e-02
3.0129237e-02
1.2828058e-01
2.2274743e-01
3.0969294e-01
3.8825173e-01
4.5575288e-01
5.0856298e-01
5.4592930e-01
5.5965119e-01
5.2428131e-01
4.1398456e-01
2.3112260e-01
1.3118420e-02
-1.8966054e-01
-3.3824564e-01
-4.2185025e-01
-4.6166269e-01
-4.9423035e-01
-5.4636758e-01
-6.1461398e-01
-6.7526475e-01
-7.1243624e-01
-7.2135064e-01
-6.9516469e-01
-6.2584552e-01
-5.1958682e-01
-3.9896813e-01
-2.7953059e-01
-1.5375226e-01
-2.9303398e-03
1.8767365e-01
4.1430512e-01
6.2821958e-01
7.3596131e-01
6.6689648e-01
4.5531777e-01
2.2570543e-01
8.7751947e-02
7.2492283e-02
1.4284459e-01
2.5715887e-01
4.1020743e-01
5.7884132e-01
6.9534973e-01
7.0154050e-01
5.9908258e-01
4.5554353e-01
3.5407556e-01
3.3777247e-01
3.9733229e-01
4.7986399e-01
5.1792177e-01
4.7428094e-01
3.5369428e-01
1.7771590e-01
-3.1989548e-02
-2.5192564e-01
-4.5457753e-01
-6.1822178e-01
-7.3643882e-01
-8.1265767e-01
-8.5103088e-01
-8.5463740e-01
-8.2697582e-01
-7.7312098e-01
-7.0241994e-01
-6.2679644e-01
-5.5265631e-01
-4.7782901e-01
-3.9524430e-01
-2.9429768e-01
-1.6666117e-01
-2.1190961e-02
1.1202768e-01
2.0120063e-01
2.3863553e-01
2.4399989e-01
2.4360450e-01
2.5401834e-01
2.7716899e-01
3.0451230e-01
3.2866489e-01
3.5238562e-01
3.8748402e-01
4.4083421e-01
5.0312623e-01
5.6025448e-01
6.1006763e-01
6.4585579e-01
6.3080991e-01
5.1662884e-01
2.9509494e-01
1.9300500e-02
-2.3809675e-01
-4.3165615e-01
-5.4798336e-01
-5.9377979e-01
-5.8816865e-01
-5.5167697e-01
-4.9232354e-01
-4.1185506e-01
-3.2461165e-01
-2.5450283e-01
-2.1485667e-01
-2.0001325e-01
-1.9527834e-01
-1.8688884e-01
-1.6064666e-01
-1.0295590e-01
-8.5997920e-03
1.1643877e-01
2.5247168e-01
3.5986827e-01
3.9254552e-01
3.3539345e-01
2.1998569e-01
9.7620666e-02
4.3488795e-03
-5.0031103e-02
-7.2985183e-02
-7.3920534e-02
-5.4106305e-02
-1.0671023e-02
5.4916769e-02
1.3211358e-01
2.0194638e-01
2.4564779e-01
2.5612616e-01
2.3405264e-01
1.7738651e-01
8.9383369e-02
-8.2170305e-03
-7.7861277e-02
-8.7857064e-02
-3.2754468e-02
6.0109689e-02
1.3723332e-01
1.4759784e-01
7.5032075e-02
-5.4182616e-02
-1.9451843e-01
-3.0849363e-01
-3.7285104e-01
-3.8012343e-01
-3.4309488e-01
-2.8795852e-01
-2.3404350e-01
-1.7482133e-01
-9.0705076e-02
1.7756629e-02
1.2564245e-01
2.0492703e-01
2.3931261e-01
2.2856766e-01
1.8970096e-01
1.4899798e-01
1.2806516e-01
1.3510259e-01
1.6407655e-01
2.0649318e-01
2.6127090e-01
3.2343872e-01
3.7665212e-01
4.1606800e-01
4.6154954e-01
5.2607259e-01
5.7512487e-01
5.3685223e-01
3.7975534e-01
1.3042068e-01
-1.8423796e-01
-5.2451813e-01
-8.2462459e-01
-1.0351897e+00
-1.1374709e+00
-1.1314203e+00
-1.0264383e+00
-8.4045390e-01
-6.0511465e-01
-3.5935808e-01
-1.3515746e-01
4.9422230e-02
1.9020345e-01
2.9206556e-01
3.6379283e-01
4.1248229e-01
4.3614711e-01
4.2684506e-01
3.8521777e-01
3.2494339e-01
2.5957271e-01
1.9595009e-01
1.4192463e-01
1.0714352e-01
9.2687711e-02
8.5282185e-02
6.7824608e-02
3.3295973e-02
-1.5317648e-02
-7.2170300e-02
-1.2759371e-01
-1.6462411e-01
-1.6895171e-01
-1.4233330e-01
-9.8548441e-02
-4.7463520e-02
1.1205401e-02
8.4232903e-02
1.7249363e-01
2.5624685e-01
3.0413771e-01
2.9860109e-01
2.4286559e-01
1.5366241e-01
5.9954555e-02
-6.2525722e-03
-3.3023750e-02
-4.3735603e-02
-7.7687602e-02
-1.4847239e-01
-2.3217954e-01
-2.9396444e-01
-3.1117765e-01
-2.7832968e-01
-1.9993989e-01
-8.0736067e-02
7.2301473e-02
2.4165936e-01
3.8280723e-01
4.2884363e-01
3.4770913e-01
1.8589141e-01
3.1661170e-02
-5.5814548e-02
-6.8813210e-02
-3.6808260e-02
-1.7964685e-02
-7.3442155e-02
-2.1472441e-01
-3.8486316e-01
-5.1140746e-01
-5.6281041e-01
-5.4559085e-01
-4.8094257e-01
-3.9487248e-01
-3.1164902e-01
-2.4637147e-01
-1.9659848e-01
-1.4369222e-01
-6.5671567e-02
5.3934178e-02
2.2002883e-01
4.1988990e-01
6.2417800e-01
7.9948898e-01
9.2535943e-01
9.8805536e-01
9.6071458e-01
8.1454785e-01
5.5790998e-01
2.5562472e-01
-8.7430029e-03
-1.8770041e-01
-2.8199887e-01
-3.2396896e-01
-3.5596955e-01
-4.0727516e-01
-4.7417646e-01
-5.2753231e-01
-5.4449154e-01
-5.1850734e-01
-4.5105877e-01
-3.4989158e-01
-2.2900794e-01
-1.0202695e-01
2.8530458e-02
1.6656734e-01
3.0299576e-01
4.1177664e-01
4.6468786e-01
4.4453616e-01
3.5017300e-01
2.0201880e-01
4.4077234e-02
-7.2790836e-02
-1.1951585e-01
-1.0287385e-01
-5.3387052e-02
-9.2436396e-04
3.6465489e-02
4.6518632e-02
2.9634827e-02
7.9941160e-03
2.4963036e-03
-1.2191431e-03
-4.8728467e-02
-1.5012895e-01
-2.4867244e-01
-2.8110061e-01
-2.2058227e-01
-9.3287801e-02
1.0265412e-02
-5.4346550e-03
-1.4479522e-01
-3.1397973e-01
-4.1265341e-01
-4.0022505e-01
-2.8707889e-01
-1.1197170e-01
6.4357651e-02
1.7702589e-01
2.0057728e-01
1.6763737e-01
1.3121601e-01
1.2088263e-01
1.2979641e-01
1.3457229e-01
1.2160019e-01
8.7250618e-02
3.4864102e-02
-2.0166503e-02
-5.7843106e-02
-6.8233065e-02
-5.4618997e-02
-2.2947878e-02
2.7513742e-02
1.0342964e-01
2.0737967e-01
3.2534229e-01
4.2759686e-01
4.8428454e-01
4.7779908e-01
4.0454774e-01
2.7284607e-01
1.0392927e-01
-7.1024700e-02
-2.2068286e-01
-3.2634210e-01
-3.9029247e-01
-4.2685099e-01
-4.4592547e-01
-4.4718632e-01
-4.2433309e-01
-3.7179668e-01
-2.9874417e-01
-2.3470097e-01
-2.0400965e-01
-1.9946424e-01
-1.8951841e-01
-1.4691270e-01
-6.2274517e-02
6.0672510e-02
2.0648475e-01
3.5046957e-01
4.6943976e-01
5.5215593e-01
5.9711548e-01
6.0287879e-01
5.6952646e-01
5.0439608e-01
4.1581642e-01
3.0547566e-01
1.7564126e-01
3.8054639e-02
-9.2092799e-02
-2.0889563e-01
-3.1665879e-01
-4.1608614e-01
-4.9667887e-01
-5.4524895e-01
-5.5516548e-01
-5.2648647e-01
-4.6367817e-01
-3.7270098e-01
-2.5648661e-01
-1.1554261e-01
4.5138049e-02
2.1149906e-01
3.6626261e-01
4.9514625e-01
5.7963036e-01
5.9120715e-01
5.0958389e-01
3.5130555e-01
1.6542231e-01
-2.3083876e-03
-1.3191009e-01
-2.3082209e-01
-3.2306909e-01
-4.2309722e-01
-5.1427444e-01
-5.5850379e-01
-5.3024666e-01
-4.3770772e-01
-3.0832706e-01
-1.6702853e-01
-4.1533820e-02
3.1822267e-02
3.6880288e-02
7.1461983e-03
6.5524285e-03
7.8484112e-02
2.2057392e-01
3.9364379e-01
5.3795857e-01
5.9408969e-01
5.3812146e-01
4.0430565e-01
2.5158666e-01
1.1061145e-01
-1.8019637e-02
-1.2787587e-01
-1.9436165e-01
-1.9432591e-01
-1.2149423e-01
1.3641771e-02
1.8668080e-01
3.6300592e-01
5.0900267e-01
6.1092439e-01
6.7885067e-01
7.1461744e-01
6.7866614e-01
5.1490105e-01
2.3202574e-01
-9.3099213e-02
-3.9577496e-01
-6.3331478e-01
-7.7240349e-01
-8.0607434e-01
-7.5106125e-01
-6.3691522e-01
-4.9745083e-01
-3.5514399e-01
-2.1323830e-01
-6.6866016e-02
7.6223372e-02
1.7989160e-01
1.9726186e-01
1.1425115e-01
-2.9802218e-02
-1.7000859e-01
-2.5987777e-01
-2.9144032e-01
-2.8467164e-01
-2.6280793e-01
-2.4187193e-01
-2.2908312e-01
-2.2205581e-01
-2.1468170e-01
-1.9928232e-01
-1.6627868e-01
-1.1205456e-01
-4.7477416e-02
8.1273063e-03
4.4780476e-02
6.8826209e-02
9.2938472e-02
1.2879637e-01
1.8082863e-01
2.3561992e-01
2.7631149e-01
3.1323042e-01
3.7826433e-01
4.8271805e-01
5.7851514e-01
5.7844006e-01
4.4498237e-01
2.3418816e-01
3.2669847e-02
-1.0783041e-01
-1.7543817e-01
-1.7648227e-01
-1.2100609e-01
-2.9159994e-02
6.4089499e-02
1.1789961e-01
1.0529657e-01
3.1644029e-02
-7.0774290e-02
-1.6735605e-01
-2.4317950e-01
-3.0442465e-01
-3.6300848e-01
-4.2331315e-01
-4.8050911e-01
-5.2566631e-01
-5.5144954e-01
-5.6165439e-01
-5.6863866e-01
-5.7174206e-01
-5.5081093e-01
-4.8447571e-01
-3.6789925e-01
-2.1147112e-01
-2.7252965e-02
1.8149703e-01
4.2233834e-01
7.0655075e-01
1.0335180e+00
1.3607077e+00
1.5786310e+00
1.5613145e+00
1.2872231e+00
8.7969959e-01
4.9818762e-01
2.2860603e-01
7.6257836e-02
2.5608726e-03
-4.5057618e-02
-1.1316502e-01
-2.1455600e-01
-3.2272848e-01
-4.0718752e-01
-4.5497541e-01
-4.6618279e-01
-4.4533693e-01
-3.9847191e-01
-3.3361667e-01
-2.6168575e-01
-2.0255620e-01
-1.8113760e-01
-2.0781939e-01
-2.6709526e-01
-3.2741770e-01
-3.6237018e-01
-3.6222863e-01
-3.3479802e-01
-3.0066665e-01
-2.8024414e-01
-2.8023453e-01
-2.8729160e-01
-2.7962530e-01
-2.4720571e-01
-1.9341431e-01
-1.2477174e-01
-4.4311536e-02
4.8983742e-02
1.5639915e-01
2.7551762e-01
3.9049336e-01
4.7179570e-01
5.0430218e-01
5.1310700e-01
5.4261742e-01
6.0223569e-01
6.4861444e-01
6.3712184e-01
5.8219356e-01
5.3959266e-01
5.3826598e-01
5.6115724e-01
5.6968991e-01
5.1274215e-01
3.3882235e-01
4.2667908e-02
-3.0984124e-01
-6.2478162e-01
-8.3615260e-01
-9.2315631e-01
-9.0703990e-01
-8.4030405e-01
-7.7603583e-01
-7.2763928e-01
-6.6976624e-01
-5.8441417e-01
-4.8068797e-01
-3.7978896e-01
-3.0201687e-01
-2.5433082e-01
-2.2638850e-01
-1.9782718e-01
-1.4292709e-01
-4.0367965e-02
1.1048678e-01
2.8625073e-01
4.5657629e-01
6.0696494e-01
7.4499017e-01
8.8074639e-01
9.8971274e-01
9.9061963e-01
7.9243357e-01
3.9684899e-01
-7.6203939e-02
-4.8618771e-01
-7.5386696e-01
-8.6586123e-01
-8.5957855e-01
-8.0059729e-01
-7.3894427e-01
-6.7132074e-01
-5.6174806e-01
-3.9143603e-01
-1.6163718e-01
1.2191991e-01
4.3199755e-01
6.9665520e-01
8.2729134e-01
8.0857270e-01
7.3158241e-01
7.1035186e-01
8.0964171e-01
1.0258629e+00
1.2606178e+00
1.3322226e+00
1.1011364e+00
6.1202334e-01
4.8772270e-02
-4.3704448e-01
-7.8908748e-01
-1.0100471e+00
-1.1265398e+00
-1.1618328e+00
-1.1285261e+00
-1.0336027e+00
-8.9038400e-01
-7.2973799e-01
-5.8190772e-01
-4.5319973e-01
-3.3712266e-01
-2.3696638e-01
-1.6337658e-01
-1.2094298e-01
-1.0055302e-01
-7.7650305e-02
-2.1796604e-02
9.1417415e-02
2.7815048e-01
5.3986494e-01
8.5966008e-01
1.2092309e+00
1.5192324e+00
1.6502110e+00
1.4724427e+00
1.0062413e+00
4.3002446e-01
-6.9280938e-02
-4.0156841e-01
-5.6616373e-01
-6.1085997e-01
-5.9868562e-01
-5.9147722e-01
-6.2153461e-01
-6.8000826e-01
-7.4360754e-01
-7.8811282e-01
-7.9279023e-01
-7.4904003e-01
-6.6114043e-01
-5.4085225e-01
-4.0002022e-01
-2.4581700e-01
-8.0409449e-02
1.0044619e-01
3.0536627e-01
5.2347168e-01
6.9525859e-01
7.3316797e-01
6.0776423e-01
3.9438090e-01
2.0539145e-01
1.1569359e-01
1.4680659e-01
2.6859085e-01
4.0262451e-01
4.5257402e-01
3.8225440e-01
2.4070392e-01
9.2522610e-02
-2.4471409e-02
-8.9525635e-02
-8.9436142e-02
-2.6315135e-02
7.0705687e-02
1.6649095e-01
2.5047755e-01
3.2103734e-01
3.5661619e-01
3.4151782e-01
2.8848800e-01
2.0303496e-01
7.2402373e-02
-1.0066029e-01
-2.9221901e-01
-4.7402418e-01
-6.1412834e-01
-6.8744733e-01
-6.9357280e-01
-6.5040416e-01
-5.8773632e-01
-5.3860379e-01
-5.1454847e-01
-5.0163414e-01
-4.8014190e-01
-4.3967138e-01
-3.7928003e-01
-3.0036181e-01
-2.0779483e-01
-1.0646415e-01
1.0855757e-02
1.6104447e-01
3.5425840e-01
5.8059927e-01
7.9382134e-01
9.1099007e-01
8.6541435e-01
6.7221435e-01
4.2171718e-01
2.0659364e-01
7.1955923e-02
1.3035285e-02
-5.4253847e-03
-2.2079836e-02
-6.0655878e-02
-1.1870780e-01
-1.7120912e-01
-1.9360028e-01
-1.7553961e-01
-1.2156131e-01
-5.2975104e-02
-1.9277566e-03
7.3785855e-03
-2.1078365e-02
-5.4178071e-02
-5.3837226e-02
2.0202292e-03
1.0846092e-01
2.2387059e-01
2.7808583e-01
2.1219166e-01
3.2962148e-02
-1.8486796e-01
-3.6133240e-01
-4.5556647e-01
-4.6928237e-01
-4.3174584e-01
-3.7197764e-01
-3.0264564e-01
-2.2029262e-01
-1.1375720e-01
2.4541342e-02
1.9720398e-01
3.9936439e-01
5.9759190e-01
7.1741763e-01
6.8546762e-01
5.0498909e-01
2.6620367e-01
6.9323184e-02
-3.6342116e-02
-5.3130664e-02
-3.4208903e-03
9.7871716e-02
2.4146922e-01
4.1525187e-01
5.8019875e-01
6.4776159e-01
5.3246370e-01
2.4517443e-01
-1.0655988e-01
-4.1154313e-01
-6.0912315e-01
-6.8657214e-01
-6.7116307e-01
-6.1369617e-01
-5.5926757e-01
-5.2080632e-01
-4.9010448e-01
-4.7296424e-01
-4.8702447e-01
-5.3208285e-01
-5.8275058e-01
-6.0851049e-01
-5.9362427e-01
-5.4450824e-01
-4.8166398e-01
-4.1931674e-01
-3.5462665e-01
-2.7232956e-01
-1.5798334e-01
-8.9851564e-03
1.6863825e-01
3.6687641e-01
5.7413818e-01
7.7384819e-01
9.5538076e-01
1.1260947e+00
1.2910491e+00
1.4025631e+00
1.3647604e+00
1.1248202e+00
7.4266925e-01
3.4422609e-01
2.2000401e-02
-1.8355920e-01
-2.4751317e-01
-1.6263121e-01
3.8979187e-02
2.8791102e-01
4.8771284e-01
5.3665115e-01
3.8302592e-01
8.1651213e-02
-2.2713068e-01
-4.1883371e-01
-4.5813470e-01
-4.0404214e-01
-3.4191681e-01
-3.0973186e-01
-3.2141907e-01
-3.9137111e-01
-5.1267733e-01
-6.5435409e-01
-7.7471640e-01
-8.4148329e-01
-8.3911461e-01
-7.6253223e-01
-6.2456733e-01
-4.6010414e-01
-3.0826937e-01
-1.8978668e-01
-1.0227568e-01
-2.9243916e-02
5.0294036e-02
1.4797346e-01
2.5057767e-01
3.2609074e-01
3.5624380e-01
3.5648391e-01
3.6261078e-01
4.0645652e-01
4.9319619e-01
5.7830418e-01
5.7764435e-01
4.4513118e-01
2.2930567e-01
2.1957219e-02
-1.1228590e-01
-1.5517307e-01
-1.2790712e-01
-6.6368287e-02
5.0701242e-03
7.9427062e-02
1.4985352e-01
1.9505261e-01
1.9390591e-01
1.4649382e-01
7.5981952e-02
1.1424103e-02
-3.1493993e-02
-5.7605588e-02
-8.5499258e-02
-1.3201777e-01
-2.0224777e-01
-2.8660357e-01
-3.6839931e-01
-4.3867368e-01
-4.9893833e-01
-5.4995399e-01
-5.8189271e-01
-5.7902265e-01
-5.3173719e-01
-4.4493498e-01
-3.3649692e-01
-2.2336995e-01
-1.0852265e-01
2.0300903e-02
1.7781591e-01
3.6470167e-01
5.6710093e-01
7.6766012e-01
9.4562430e-01
1.0681768e+00
1.0976992e+00
1.0156260e+00
8.4078207e-01
6.1838460e-01
3.8752045e-01
1.6863728e-01
-2.2784543e-02
-1.6941246e-01
-2.6147911e-01
-2.9920597e-01
-2.9141993e-01
-2.6158707e-01
-2.4467390e-01
-2.6280477e-01
-3.0486710e-01
-3.3576383e-01
-3.2053359e-01
-2.4755368e-01
-1.4433508e-01
-7.0062944e-02
-7.7121095e-02
-1.6728758e-01
-2.9470675e-01
-4.0984095e-01
-4.8255749e-01
-5.0229923e-01
-4.7470558e-01
-4.1276377e-01
-3.3003232e-01
-2.3609211e-01
-1.3433461e-01
-2.3338465e-02
1.0323288e-01
2.5132350e-01
4.0658765e-01
5.2797879e-01
5.7913210e-01
5.6244642e-01
5.0986519e-01
4.4466496e-01
3.6845605e-01
2.7856847e-01
1.8189480e-01
8.4460519e-02
-2.1781345e-02
-1.4015223e-01
-2.5042626e-01
-3.2630474e-01
-3.5620293e-01
-3.3941886e-01
-2.7502819e-01
-1.6158317e-01
-2.5135667e-03
1.9037232e-01
3.8622969e-01
5.2357866e-01
5.3575286e-01
4.1943423e-01
2.5384254e-01
1.3014039e-01
8.6238185e-02
9.1001235e-02
9.2632581e-02
6.4513890e-02
-2.1191128e-02
-1.8536041e-01
-4.0569965e-01
-6.2845282e-01
-7.9958406e-01
-8.8915664e-01
-8.8964741e-01
-8.0166634e-01
-6.3416099e-01
-4.0514479e-01
-1.4055493e-01
1.1961322e-01
3.2762759e-01
4.5572065e-01
5.0737472e-01
4.9551437e-01
4.2450474e-01
3.0074964e-01
1.5420383e-01
2.7140190e-02
-6.0467415e-02
-1.0926013e-01
-1.1243396e-01
-5.1451688e-02
8.7356298e-02
2.9782041e-01
5.3514423e-01
7.0796478e-01
7.2274813e-01
5.6068109e-01
2.9758884e-01
3.7489441e-02
-1.5377296e-01
-2.5898166e-01
-2.8813288e-01
-2.6129112e-01
-2.1253585e-01
-1.8593869e-01
-2.1185536e-01
-2.8862317e-01
-3.8351517e-01
-4.5151935e-01
-4.6017567e-01
-4.0597043e-01
-3.1211519e-01
-2.1278604e-01
-1.3206210e-01
-7.0554636e-02
-1.2335803e-02
5.2337713e-02
1.1188906e-01
1.4442409e-01
1.3750061e-01
9.7687173e-02
4.9187246e-02
2.2716817e-02
4.3351819e-02
1.2373185e-01
2.5519004e-01
3.9723836e-01
4.9178775e-01
5.1062324e-01
4.7747421e-01
4.3827369e-01
4.3221096e-01
4.7983714e-01
5.6255030e-01
6.0626340e-01
5.2697282e-01
3.1191593e-01
2.1697632e-02
-2.7613809e-01
-5.3983365e-01
-7.4610243e-01
-8.8384971e-01
-9.5426330e-01
-9.6845743e-01
-9.3928796e-01
-8.7613100e-01
-7.8834051e-01
-6.8928822e-01
-5.9091986e-01
-4.9637246e-01
-4.0130408e-01
-2.9843452e-01
-1.8159033e-01
-4.7029795e-02
1.0638729e-01
2.7364236e-01
4.4584398e-01
6.2009046e-01
8.0439160e-01
1.0123763e+00
1.2427189e+00
1.4409724e+00
1.4899693e+00
1.2888251e+00
8.6100526e-01
3.5415763e-01
-7.6725211e-02
-3.5882314e-01
-4.9863772e-01
-5.4885349e-01
-5.7515588e-01
-6.2159033e-01
-6.8098981e-01
-7.0699816e-01
-6.6339570e-01
-5.4324368e-01
-3.6272425e-01
-1.6002872e-01
1.3656705e-02
1.1769421e-01
1.5208392e-01
1.6108048e-01
1.9520295e-01
2.7961702e-01
4.1180450e-01
5.6598069e-01
6.9173203e-01
7.2109690e-01
6.1920647e-01
4.2977613e-01
2.3462928e-01
7.7852685e-02
-6.7853742e-02
-2.3865870e-01
-4.1945462e-01
-5.8388960e-01
-7.0614349e-01
-7.5511443e-01
-7.2303254e-01
-6.3169940e-01
-5.1141313e-01
-3.7442679e-01
-2.1340033e-01
-2.1287693e-02
1.9722866e-01
4.1600724e-01
5.7743566e-01
6.1667674e-01
5.1627458e-01
3.2743643e-01
1.2636340e-01
-3.8819834e-02
-1.6098691e-01
-2.4962837e-01
-3.0726224e-01
-3.4128345e-01
-3.7051940e-01
-4.0736175e-01
-4.4621587e-01
-4.6706849e-01
-4.5342817e-01
-4.0779289e-01
-3.4359302e-01
-2.6350507e-01
-1.5829492e-01
-3.1948190e-02
8.4999802e-02
1.6283674e-01
2.0912538e-01
2.6805833e-01
3.8478019e-01
5.7982445e-01
8.4216083e-01
1.1020536e+00
1.2174745e+00
1.0587864e+00
6.4209158e-01
1.3000705e-01
-3.1163749e-01
-6.0462439e-01
-7.4175421e-01
-7.5159955e-01
-6.7301104e-01
-5.4166317e-01
-3.8056778e-01
-2.0188142e-01
-2.1560571e-02
1.4649583e-01
2.9617871e-01
4.0945935e-01
4.4674159e-01
3.7414563e-01
2.0694361e-01
1.9050339e-02
-1.0649218e-01
-1.2886444e-01
-6.0036008e-02
5.3648071e-02
1.6359026e-01
2.3970563e-01
2.7700107e-01
2.7805782e-01
2.2604501e-01
9.7016416e-02
-1.0515124e-01
-3.3499768e-01
-5.2686615e-01
-6.3105721e-01
-6.3394186e-01
-5.5382374e-01
-4.2484699e-01
-2.8647538e-01
-1.7234183e-01
-1.0619011e-01
-1.0116522e-01
-1.4296554e-01
-1.8616356e-01
-1.7670150e-01
-8.5589895e-02
6.6242609e-02
2.2352563e-01
3.4654808e-01
4.3772196e-01
5.2604639e-01
6.3896318e-01
7.6329261e-01
8.1741765e-01
6.9419002e-01
3.6212379e-01
-8.9760809e-02
-5.2235855e-01
-8.3405391e-01
-9.8418032e-01
-9.8107691e-01
-8.6852160e-01
-7.0912733e-01
-5.5189153e-01
-4.1363550e-01
-2.8844145e-01
-1.5522330e-01
1.5578229e-02
2.5474329e-01
5.8399325e-01
1.0050413e+00
1.4895602e+00
1.9394623e+00
2.1662791e+00
2.0011328e+00
1.4696644e+00
7.9988964e-01
2.3013810e-01
-1.3538363e-01
-3.1689158e-01
-3.9708371e-01
-4.6960708e-01
-6.0089376e-01
-7.8267379e-01
-9.3997603e-01
-1.0120487e+00
-1.0013666e+00
-9.6262748e-01
-9.2340883e-01
-8.5320961e-01
-7.5492473e-01
-6.7797701e-01
-6.4337785e-01
-6.2695832e-01
-5.8879699e-01
-5.0656023e-01
-3.8034309e-01
-2.1378629e-01
-1.6367990e-02
1.8883892e-01
3.7323888e-01
5.1371357e-01
6.0387841e-01
6.6049815e-01
7.1040959e-01
7.6230552e-01
7.9437158e-01
7.6946650e-01
6.6514805e-01
4.8935173e-01
2.6915330e-01
4.4202643e-02
-1.3732145e-01
-2.4179792e-01
-2.6626396e-01
-2.3337377e-01
-1.8185580e-01
-1.4680222e-01
-1.3406468e-01
-1.1919938e-01
-7.4438490e-02
9.7232588e-04
7.4922658e-02
1.1022335e-01
1.0226773e-01
8.0467560e-02
7.5273111e-02
9.2483627e-02
1.0316570e-01
5.6370085e-02
-7.8615824e-02
-2.7248736e-01
-4.5544324e-01
-5.7639992e-01
-6.2140225e-01
-5.9741385e-01
-5.1820333e-01
-3.9591420e-01
-2.4312920e-01
-8.0621900e-02
5.6322151e-02
1.3043988e-01
1.3374781e-01
9.9289059e-02
7.6789992e-02
9.7355231e-02
1.6279761e-01
2.6068142e-01
3.8371207e-01
5.3302253e-01
7.0350065e-01
8.7210154e-01
9.8371564e-01
9.5484115e-01
7.3182683e-01
3.4901908e-01
-8.5019173e-02
-4.5683447e-01
-7.0008266e-01
-8.0286895e-01
-7.9106415e-01
-7.1169564e-01
-6.2615931e-01
-5.7823051e-01
-5.5996738e-01
-5.3025228e-01
-4.5278603e-01
-3.1691438e-01
-1.3493195e-01
7.4996406e-02
2.9365431e-01
5.0498713e-01
7.0779754e-01
9.1173760e-01
1.1269254e+00
1.3511555e+00
1.5268370e+00
1.5306553e+00
1.2719871e+00
7.9380043e-01
2.4203164e-01
-2.5126757e-01
-6.3092689e-01
-8.9934633e-01
-1.0857607e+00
-1.2263901e+00
-1.3420806e+00
-1.4212719e+00
-1.4386590e+00
-1.3864975e+00
-1.2705953e+00
-1.1003059e+00
-8.9291669e-01
-6.7329730e-01
-4.6338374e-01
-2.6567801e-01
-5.9385042e-02
1.8314956e-01
4.7956727e-01
8.2407437e-01
1.1638975e+00
1.3934191e+00
1.4145368e+00
1.2326249e+00
9.6720395e-01
7.5204603e-01
6.6330548e-01
7.2611488e-01
9.1048699e-01
1.0942531e+00
1.1037843e+00
8.6773890e-01
4.8357179e-01
1.0215708e-01
-1.8685506e-01
-3.7758221e-01
-5.3633667e-01
-7.3961487e-01
-9.8783712e-01
-1.2074626e+00
-1.3239070e+00
-1.3086879e+00
-1.1769368e+00
-9.6630956e-01
-7.1573571e-01
-4.5412031e-01
-2.0296993e-01
2.6713231e-02
2.2341383e-01
3.5232982e-01
3.7246324e-01
2.7951739e-01
1.1658584e-01
-5.5177763e-02
-1.8890411e-01
-2.6802851e-01
-3.0274838e-01
-3.1614600e-01
-3.3138333e-01
-3.5653770e-01
-3.7681341e-01
-3.6858815e-01
-3.2208118e-01
-2.4614472e-01
-1.4893431e-01
-2.1762360e-02
1.4886456e-01
3.6719729e-01
6.2996061e-01
9.3017340e-01
1.2580620e+00
1.5919337e+00
1.8648768e+00
1.9434521e+00
1.7037412e+00
1.1570927e+00
4.6886061e-01
-1.6045033e-01
-6.1611368e-01
-8.7862066e-01
-9.7838158e-01
-9.6973221e-01
-9.0781013e-01
-8.1998432e-01
-7.1364874e-01
-6.0905272e-01
-5.3345297e-01
-4.9039688e-01
-4.5198901e-01
-3.8120938e-01
-2.5693653e-01
-8.3920184e-02
1.0769926e-01
2.7138380e-01
3.6129101e-01
3.6153707e-01
2.9627217e-01
2.0188748e-01
1.0550889e-01
2.1021168e-02
-4.7703525e-02
-1.0017028e-01
-1.4078873e-01
-1.7758742e-01
-2.1366510e-01
-2.4405951e-01
-2.5933868e-01
-2.5114767e-01
-2.1650716e-01
-1.5865058e-01
-8.5638693e-02
-9.8278806e-03
5.3683703e-02
9.3044483e-02
1.0882077e-01
1.1847813e-01
1.4371651e-01
1.8947167e-01
2.3910111e-01
2.7111590e-01
2.7688948e-01
2.6084873e-01
2.3514998e-01
2.1537152e-01
2.0924822e-01
2.0475769e-01
1.7276196e-01
9.3075760e-02
-2.2270565e-02
-1.3908233e-01
-2.2588849e-01
-2.6955163e-01
-2.7639151e-01
-2.6417656e-01
-2.5475919e-01
-2.6034054e-01
-2.7394686e-01
-2.7950238e-01
-2.6454601e-01
-2.2452254e-01
-1.6431207e-01
-1.0144232e-01
-6.1504469e-02
-5.3158265e-02
-5.0349046e-02
-1.4082794e-02
7.7337666e-02
2.2017947e-01
3.8589652e-01
5.1848029e-01
5.4648564e-01
4.4222975e-01
2.6778081e-01
1.2595780e-01
8.6310533e-02
1.6585221e-01
3.4195593e-01
5.5592100e-01
7.1283261e-01
7.3666739e-01
6.3695588e-01
4.7816329e-01
3.0356555e-01
1.1948499e-01
-6.9257090e-02
-2.5219051e-01
-4.3431182e-01
-6.1137159e-01
-7.4526488e-01
-7.9514237e-01
-7.4519741e-01
-6.0959228e-01
-4.3164611e-01
-2.7107314e-01
-1.8268060e-01
-1.7841395e-01
-2.1601894e-01
-2.4570675e-01
-2.4097205e-01
-1.9849091e-01
-1.3419318e-01
-7.5405583e-02
-5.6307915e-02
-9.7519577e-02
-1.7970831e-01
-2.5515503e-01
-2.8138201e-01
-2.3954354e-01
-1.4251340e-01
-3.1952007e-02
4.9596877e-02
9.7679972e-02
1.4844137e-01
2.3630050e-01
3.6717348e-01
5.1749752e-01
6.4193739e-01
6.9675740e-01
6.6603760e-01
5.7653734e-01
4.7921686e-01
4.0120464e-01
3.3223753e-01
2.6351958e-01
2.0362603e-01
1.5388246e-01
1.0749647e-01
6.2169036e-02
1.9791770e-03
-1.1090565e-01
-2.9443808e-01
-5.0954618e-01
-6.8664972e-01
-7.7833471e-01
-7.7370337e-01
-6.8614026e-01
-5.3733314e-01
-3.4262020e-01
-1.1473716e-01
1.1897677e-01
3.0016946e-01
3.5885357e-01
2.7241093e-01
9.7417346e-02
-6.9120859e-02
-1.5552239e-01
-1.3561149e-01
-1.5362588e-02
1.7282382e-01
3.7133390e-01
5.1721486e-01
5.7673451e-01
5.4636789e-01
4.3257254e-01
2.5760981e-01
6.8717284e-02
-7.6648824e-02
-1.4181903e-01
-1.3646053e-01
-1.0516919e-01
-8.3076991e-02
-7.2814403e-02
-6.1398628e-02
-3.4178905e-02
1.7023532e-02
8.8048755e-02
1.6841245e-01
2.3989853e-01
2.6325952e-01
1.8126973e-01
-2.9028036e-02
-3.1169693e-01
-5.7392205e-01
-7.5771820e-01
-8.5229667e-01
-8.6580346e-01
-8.1133765e-01
-7.0446402e-01
-5.5164974e-01
-3.4506711e-01
-7.3036501e-02
2.6546555e-01
6.5859963e-01
1.0809827e+00
1.4572758e+00
1.6366514e+00
1.4794429e+00
1.0054906e+00
4.0654284e-01
-1.1164737e-01
-4.5266321e-01
-6.2189598e-01
-6.7991922e-01
-7.0520165e-01
-7.5000005e-01
-8.0229886e-01
-8.1378072e-01
-7.6182159e-01
-6.5447857e-01
-5.0469722e-01
-3.1694693e-01
-8.7126756e-02
1.8854124e-01
5.0199936e-01
8.0241916e-01
9.8393915e-01
9.5716029e-01
7.4590878e-01
4.7143019e-01
2.4391285e-01
1.0762683e-01
3.3543045e-02
-3.5072618e-02
-1.1669824e-01
-2.1699215e-01
-3.4103399e-01
-4.6086517e-01
-5.3160239e-01
-5.2489171e-01
-4.4429014e-01
-3.2913408e-01
-2.3337099e-01
-1.9203818e-01
-2.0145781e-01
-2.3024002e-01
-2.5107609e-01
-2.5237014e-01
-2.3389073e-01
-1.9423213e-01
-1.2535591e-01
-2.8629489e-02
7.7889425e-02
1.6491338e-01
2.0725198e-01
1.9829459e-01
1.5324935e-01
1.1213694e-01
1.2372171e-01
2.2044308e-01
4.1175401e-01
6.8773957e-01
1.0200530e+00
1.3594952e+00
1.6373602e+00
1.7627438e+00
1.6389894e+00
1.2310621e+00
6.2337533e-01
-1.2827662e-02
-5.2007775e-01
-8.2906543e-01
-9.6165639e-01
-9.8606294e-01
-9.7641303e-01
-9.9307861e-01
-1.0491946e+00
-1.1098156e+00
-1.1394207e+00
-1.1216566e+00
-1.0539295e+00
-9.4300017e-01
-7.9548030e-01
-6.1077595e-01
-3.8152198e-01
-1.1067106e-01
1.5893755e-01
3.5723714e-01
4.5588803e-01
5.0337702e-01
5.7030705e-01
6.9337887e-01
8.7562567e-01
1.0750245e+00
1.1764617e+00
1.0489344e+00
6.7896787e-01
2.0205256e-01
-2.1750245e-01
-4.8896442e-01
-6.0260653e-01
-6.0285930e-01
-5.5468054e-01
-5.0905177e-01
-4.7628723e-01
-4.3904523e-01
-3.8939754e-01
-3.2780882e-01
-2.4752981e-01
-1.3726432e-01
9.7062193e-03
1.9092375e-01
3.9406518e-01
5.8701821e-01
7.1246547e-01
7.1787469e-01
6.0530336e-01
4.3179078e-01
2.5796317e-01
1.2029387e-01
2.9328663e-02
-3.1568554e-02
-9.2717274e-02
-1.7349401e-01
-2.6816878e-01
-3.5920533e-01
-4.3616658e-01
-4.8964172e-01
-5.0459124e-01
-4.7112089e-01
-3.9795816e-01
-3.1248933e-01
-2.4213691e-01
-1.9437469e-01
-1.5658634e-01
-1.1250291e-01
-5.2158320e-02
2.2941559e-02
9.3508803e-02
1.2943864e-01
1.1500659e-01
6.6469020e-02
1.2181326e-02
-3.8147646e-02
-9.9542235e-02
-1.9373899e-01
-3.1994775e-01
-4.4499209e-01
-5.1653055e-01
-4.8664475e-01
-3.3689943e-01
-7.8529026e-02
2.6238384e-01
6.4292534e-01
9.9707039e-01
1.2596677e+00
1.4069453e+00
1.4698967e+00
1.4887601e+00
1.4500583e+00
1.3071965e+00
1.0624529e+00
7.5376795e-01
3.8417341e-01
-3.6213185e-02
-4.3822707e-01
-7.4267626e-01
-9.1229637e-01
-9.5855430e-01
-9.3511449e-01
-9.1123299e-01
-9.2946199e-01
-9.8102053e-01
-1.0226238e+00
-1.0227680e+00
-9.7666627e-01
-8.9745682e-01
-8.0601386e-01
-7.1432614e-01
-6.2488361e-01
-5.3612137e-01
-4.3872643e-01
-3.1602005e-01
-1.5583502e-01
4.8728676e-02
3.1123508e-01
6.4605622e-01
1.0537461e+00
1.5091853e+00
1.9198159e+00
2.1069098e+00
1.9207808e+00
1.3950851e+00
7.2990796e-01
1.3040945e-01
-2.9468317e-01
-5.2979698e-01
-6.1992246e-01
-6.4381219e-01
-6.8158672e-01
-7.6239342e-01
-8.5714437e-01
-9.2355617e-01
-9.2773335e-01
-8.4725571e-01
-6.7345051e-01
-4.1011639e-01
-8.0064503e-02
2.7289970e-01
5.9581228e-01
8.4330564e-01
9.9603247e-01
1.0667184e+00
1.0665089e+00
9.6956101e-01
7.4701852e-01
4.3561764e-01
1.2925820e-01
-1.0355670e-01
-2.5116565e-01
-3.2948088e-01
-3.6230194e-01
-3.7457027e-01
-3.8872404e-01
-4.1796618e-01
-4.6197614e-01
-5.1107387e-01
-5.5077906e-01
-5.7073671e-01
-5.7151232e-01
-5.5641909e-01
-5.2180341e-01
-4.6033444e-01
-3.7172622e-01
-2.6627759e-01
-1.5394209e-01
-3.5499180e-02
8.4671992e-02
1.8299720e-01
2.3053632e-01
2.1891339e-01
1.6252251e-01
8.3801370e-02
7.9669634e-03
-3.4637583e-02
-1.4437153e-02
8.8388480e-02
2.7986616e-01
5.3830832e-01
7.8267408e-01
8.8655216e-01
7.8278074e-01
5.3534712e-01
2.6796095e-01
5.6290086e-02
-9.3348183e-02
-2.1072882e-01
-3.2004690e-01
-4.1426465e-01
-4.7483326e-01
-5.0354536e-01
-5.2470955e-01
-5.5492637e-01
-5.7885299e-01
-5.6278749e-01
-4.8309483e-01
-3.4399907e-01
-1.6776799e-01
2.7497930e-02
2.1582018e-01
3.3453220e-01
3.0714727e-01
1.1462563e-01
-1.6826331e-01
-4.2290803e-01
-5.6263346e-01
-5.5337015e-01
-3.9634455e-01
-1.1765072e-01
2.4384484e-01
6.5362016e-01
1.0621992e+00
1.3669325e+00
1.4470956e+00
1.2746806e+00
9.7201270e-01
7.1929971e-01
6.1651987e-01
6.4687899e-01
7.1706498e-01
7.0660216e-01
5.2226236e-01
1.6174383e-01
-2.7157878e-01
-6.4497904e-01
-8.7806396e-01
-9.5459645e-01
-8.9903696e-01
-7.6136508e-01
-6.0787935e-01
-4.8883512e-01
-4.0881376e-01
-3.4528803e-01
-2.7960667e-01
-2.1034002e-01
-1.5060243e-01
-1.1043458e-01
-8.9241406e-02
-8.1834999e-02
-7.9010420e-02
-7.1745287e-02
-6.2930795e-02
-6.5428611e-02
-8.6795647e-02
-1.2086886e-01
-1.5504514e-01
-1.7991783e-01
-1.8909098e-01
-1.7787749e-01
-1.4559436e-01
-9.7840345e-02
-4.6654040e-02
-3.5059381e-03
3.1311832e-02
6.7800069e-02
1.1211543e-01
1.5570269e-01
1.8386958e-01
1.9656289e-01
2.1211634e-01
2.4778395e-01
3.0805927e-01
3.8894424e-01
4.7439402e-01
5.3294189e-01
5.3697164e-01
4.8524293e-01
3.9749120e-01
2.9229399e-01
1.7911910e-01
6.0136536e-02
-6.5017132e-02
-1.8956359e-01
-2.9865286e-01
-3.7781800e-01
-4.2094533e-01
-4.3051913e-01
-4.1226555e-01
-3.7375948e-01
-3.2814512e-01
-2.9229262e-01
-2.7504746e-01
-2.6964640e-01
-2.6174902e-01
-2.4352933e-01
-2.1557828e-01
-1.8220817e-01
-1.4974449e-01
-1.2181655e-01
-9.5018826e-02
-6.2046499e-02
-1.9070266e-02
3.1913889e-02
8.8760726e-02
1.5344162e-01
2.2295984e-01
2.8045881e-01
3.0797739e-01
3.0442454e-01
2.7793750e-01
2.2379927e-01
1.3125449e-01
1.2181787e-02
-9.8299873e-02
-1.7244100e-01
-2.0814354e-01
-2.1412894e-01
-1.8933211e-01
-1.2506057e-01
-1.3535994e-02
1.4937866e-01
3.4083912e-01
4.8485317e-01
4.9197902e-01
3.5161930e-01
1.5057135e-01
-1.1451436e-02
-8.4215665e-02
-7.0874725e-02
-1.5814597e-02
2.4110077e-02
1.3835239e-02
-4.0488288e-02
-1.1046401e-01
-1.8340145e-01
-2.6355575e-01
-3.4982784e-01
-4.2811938e-01
-4.8131333e-01
-4.9968561e-01
-4.8033514e-01
-4.2178286e-01
-3.2426646e-01
-1.9438564e-01
-4.0702442e-02
1.3493656e-01
3.3803776e-01
5.7573972e-01
8.4285821e-01
1.0967061e+00
1.2469167e+00
1.2020827e+00
9.5885520e-01
6.2533969e-01
3.3070331e-01
1.3758843e-01
2.4656994e-02
-7.0096678e-02
-1.8410816e-01
-3.2073728e-01
-4.6753153e-01
-6.0636603e-01
-7.2212651e-01
-7.9679616e-01
-8.1425835e-01
-7.6976590e-01
-6.6476132e-01
-5.0885485e-01
-3.2109626e-01
-1.2883374e-01
2.9159785e-02
1.1217733e-01
1.0550662e-01
3.8858454e-02
-3.4814068e-02
-7.6116725e-02
-8.0806387e-02
-7.1274759e-02
-6.9478419e-02
-8.7926169e-02
-1.2658030e-01
-1.6619435e-01
-1.7777177e-01
-1.3932810e-01
-4.4145858e-02
9.4545195e-02
2.4123563e-01
3.5037671e-01
3.9869086e-01
4.0103318e-01
3.8503136e-01
3.6811583e-01
3.5747696e-01
3.5639923e-01
3.6723508e-01
3.8768381e-01
4.0670523e-01
4.0791705e-01
3.7909245e-01
3.1777683e-01
2.3235326e-01
1.3992064e-01
5.4062825e-02
-2.8688254e-02
-1.2159046e-01
-2.2453937e-01
-3.1759268e-01
-3.7905532e-01
-4.0309945e-01
-4.0422470e-01
-4.0827298e-01
-4.3501745e-01
-4.8394702e-01
-5.3524742e-01
-5.6685868e-01
-5.6531891e-01
-5.2478600e-01
-4.4653502e-01
-3.3750677e-01
-2.0730428e-01
-6.5201263e-02
8.0661295e-02
2.2193348e-01
3.5524857e-01
4.8455043e-01
6.0598455e-01
6.8956437e-01
6.8891926e-01
5.8632914e-01
4.2320348e-01
2.6855960e-01
1.6512721e-01
1.1235766e-01
9.3808901e-02
1.0853817e-01
1.6397621e-01
2.5306272e-01
3.3889958e-01
3.5966230e-01
2.6878913e-01
7.6749749e-02
-1.5347105e-01
-3.5511015e-01
-4.9401575e-01
-5.6989188e-01
-5.9828983e-01
-5.8920302e-01
-5.4566116e-01
-4.7415734e-01
-3.8922555e-01
-3.0661449e-01
-2.2870031e-01
-1.4682877e-01
-6.2267286e-02
3.6252213e-03
2.6915753e-02
8.8455293e-03
-1.9319574e-02
-2.1833188e-02
1.7860211e-02
9.7049181e-02
2.0742993e-01
3.4462325e-01
5.0508192e-01
6.7909423e-01
8.3747560e-01
9.2849894e-01
9.1334220e-01
8.0278203e-01
6.4086496e-01
4.6159005e-01
2.7840848e-01
1.0603859e-01
-2.2833092e-02
-7.4011736e-02
-4.1471757e-02
4.5576136e-02
1.2972142e-01
1.4312368e-01
4.7939692e-02
-1.2639273e-01
-3.0376385e-01
-4.2345364e-01
-4.7831463e-01
-5.1701246e-01
-5.7596040e-01
-6.3480358e-01
-6.8238792e-01
-7.3030628e-01
-7.7292283e-01
-7.9351331e-01
-7.7880372e-01
-7.2568211e-01
-6.4128624e-01
-5.3491201e-01
-4.1638053e-01
-2.9302337e-01
-1.6589855e-01
-3.3893213e-02
1.0477248e-01
2.5228009e-01
4.0352196e-01
5.3459010e-01
6.1411921e-01
6.3294980e-01
6.0804755e-01
5.5676982e-01
4.8090808e-01
3.7760837e-01
2.5355857e-01
1.2335563e-01
5.6998606e-04
-9.9169150e-02
-1.5278900e-01
-1.4222506e-01
-6.4960242e-02
6.4255521e-02
1.9839846e-01
2.5885867e-01
1.8822392e-01
6.4300192e-03
-2.0270344e-01
-3.5970839e-01
-4.3188563e-01
-4.3101752e-01
-3.8973670e-01
-3.3557300e-01
-2.8375562e-01
-2.3417041e-01
-1.7550442e-01
-1.0319448e-01
-2.5014288e-02
4.6794236e-02
1.0116788e-01
1.3333834e-01
1.5287633e-01
1.8141466e-01
2.3980759e-01
3.3474078e-01
4.4443512e-01
5.2087086e-01
5.1971892e-01
4.3245898e-01
2.9333199e-01
1.5889084e-01
7.8018713e-02
7.1579742e-02
1.3422163e-01
2.4371990e-01
3.5764524e-01
4.1472422e-01
3.6573307e-01
2.1668908e-01
2.9375478e-02
-1.2867273e-01
-2.2256960e-01
-2.5340629e-01
-2.4523783e-01
-2.2744449e-01
-2.2348777e-01
-2.4119182e-01
-2.7557866e-01
-3.2063919e-01
-3.6591352e-01
-3.9397943e-01
-3.9260922e-01
-3.6452219e-01
-3.2266216e-01
-2.8325893e-01
-2.6943204e-01
-3.0621275e-01
-3.9419962e-01
-5.0116869e-01
-5.8481449e-01
-6.1555970e-01
-5.8307988e-01
-4.9194283e-01
-3.5332476e-01
-1.8057594e-01
7.9510072e-03
2.0058792e-01
4.0694451e-01
6.4761099e-01
9.3802360e-01
1.2784755e+00
1.6246361e+00
1.8568125e+00
1.8315507e+00
1.5057751e+00
9.8273300e-01
4.2315595e-01
-5.3425937e-02
-3.9276717e-01
-5.8771724e-01
-6.6054326e-01
-6.5188202e-01
-5.9593005e-01
-5.0606154e-01
-3.9066641e-01
-2.5923453e-01
-1.2357439e-01
-1.1334343e-02
3.2831025e-02
-2.7075766e-02
-1.8130887e-01
-3.7110003e-01
-5.3261602e-01
-6.3599692e-01
-6.8279631e-01
-6.8269213e-01
-6.4395681e-01
-5.9018811e-01
-5.6586094e-01
-5.6737206e-01
-5.3040822e-01
-4.3628696e-01
-3.2237525e-01
-2.1509117e-01
-1.1434925e-01
-4.5891545e-04
1.4979328e-01
3.4880081e-01
5.9996773e-01
8.9687544e-01
1.2062225e+00
1.4506441e+00
1.5352649e+00
1.4164702e+00
1.1441212e+00
8.2667611e-01
5.5688295e-01
3.8027904e-01
2.9374716e-01
2.4236995e-01
1.4188470e-01
-6.6629926e-02
-3.6219133e-01
-6.5908304e-01
-8.8404509e-01
-1.0135481e+00
-1.0592912e+00
-1.0482533e+00
-1.0072106e+00
-9.5071507e-01
-8.7197074e-01
-7.5755198e-01
-6.0525467e-01
-4.0978978e-01
-1.6021676e-01
1.3917248e-01
4.5640027e-01
7.3916459e-01
9.3848583e-01
1.0200900e+00
9.6565198e-01
7.8530945e-01
5.2853450e-01
2.6917888e-01
7.0552594e-02
-3.1037761e-02
-2.4288936e-02
7.5203599e-02
2.1788005e-01
3.2685738e-01
3.3876034e-01
2.3818074e-01
6.1234579e-02
-1.1894675e-01
-2.3755398e-01
-2.8374607e-01
-3.0132585e-01
-3.4430639e-01
-4.2292884e-01
-5.0487613e-01
-5.6322672e-01
-5.9305276e-01
-5.9614905e-01
-5.7628781e-01
-5.4120346e-01
-4.9996491e-01
-4.5905590e-01
-4.1921521e-01
-3.7345570e-01
-3.0864263e-01
-2.1188024e-01
-8.0460647e-02
7.2699735e-02
2.3133521e-01
3.9182309e-01
5.4871439e-01
6.6428876e-01
6.7641654e-01
5.5362642e-01
3.3458465e-01
1.0573621e-01
-4.7600906e-02
-7.7444502e-02
1.1999261e-02
1.7300223e-01
3.4951100e-01
5.1488269e-01
6.5361639e-01
7.1401373e-01
6.2700162e-01
3.8695837e-01
8.1550064e-02
-1.7553824e-01
-3.1401100e-01
-3.2477966e-01
-2.6207148e-01
-2.2490137e-01
-2.8714279e-01
-4.2844364e-01
-5.7092567e-01
-6.6520348e-01
-7.0048854e-01
-6.7917793e-01
-6.0784442e-01
-4.9347039e-01
-3.4458269e-01
-1.7281291e-01
3.1530048e-03
1.5899317e-01
2.7901852e-01
3.6269006e-01
4.0939668e-01
4.0716518e-01
3.4920505e-01
2.5833270e-01
1.8550553e-01
1.7732426e-01
2.5377959e-01
4.0976539e-01
6.0830894e-01
7.6392898e-01
7.6616989e-01
5.7499217e-01
2.7086315e-01
-2.4925305e-02
-2.3785981e-01
-3.6598525e-01
-4.4776401e-01
-4.9927127e-01
-5.1457687e-01
-5.0086207e-01
-4.7732564e-01
-4.5458970e-01
-4.1531486e-01
-3.2230555e-01
-1.4542728e-01
1.2448486e-01
4.6241703e-01
7.9222068e-01
9.9784197e-01
9.8332168e-01
7.4313406e-01
3.6702579e-01
-2.4186288e-02
-3.3581307e-01
-5.2113460e-01
-5.8379054e-01
-5.6240016e-01
-5.0223619e-01
-4.3368346e-01
-3.6664100e-01
-3.0970362e-01
-2.9208154e-01
-3.4081443e-01
-4.4268184e-01
-5.4805732e-01
-6.0329379e-01
-5.6956889e-01
-4.2583812e-01
-1.6538333e-01
2.0399975e-01
6.6128103e-01
1.1772642e+00
1.6791217e+00
2.0013594e+00
1.9540157e+00
1.4947311e+00
7.9149901e-01
8.6404486e-02
-4.6274927e-01
-8.1536009e-01
-1.0090086e+00
-1.1122170e+00
-1.1770389e+00
-1.2102212e+00
-1.1968664e+00
-1.1418635e+00
-1.0600539e+00
-9.4916712e-01
-7.9540367e-01
-5.9058427e-01
-3.3413702e-01
-3.2308030e-02
3.0465332e-01
6.7096287e-01
1.0646939e+00
1.4765506e+00
1.8502991e+00
2.0512202e+00
1.9451854e+00
1.5397678e+00
9.9301130e-01
4.7601992e-01
7.6673246e-02
-1.9921830e-01
-3.9632278e-01
-5.6783318e-01
-7.3621542e-01
-8.7734735e-01
-9.5296355e-01
-9.5638649e-01
-9.0618576e-01
-8.2115108e-01
-7.1501192e-01
-5.9980152e-01
-4.8832799e-01
-3.9264713e-01
-3.2238561e-01
-2.8266165e-01
-2.7133715e-01
-2.7505817e-01
-2.7138779e-01
-2.4077391e-01
-1.7533871e-01
-8.2801667e-02
1.5035347e-02
9.5116803e-02
1.4762180e-01
1.8035529e-01
2.0867313e-01
2.4416789e-01
2.9849589e-01
3.8287830e-01
4.8820471e-01
5.7008357e-01
5.6963516e-01
4.6745937e-01
3.0888047e-01
1.6365615e-01
7.9730513e-02
7.0885531e-02
1.1460808e-01
1.5870485e-01
1.5584829e-01
1.0738399e-01
6.0685402e-02
5.8349108e-02
1.0696965e-01
1.8162607e-01
2.4020859e-01
2.4726707e-01
1.9387213e-01
1.0252004e-01
1.8220105e-02
-1.6126649e-02
1.8771116e-02
1.1177364e-01
2.2715201e-01
3.1783232e-01
3.4079068e-01
2.8329002e-01
1.7640771e-01
6.3873848e-02
-4.1200545e-02
-1.6140757e-01
-3.0772158e-01
-4.5492540e-01
-5.8178859e-01
-6.8628903e-01
-7.6933727e-01
-8.3109560e-01
-8.6443647e-01
-8.5290245e-01
-7.8192973e-01
-6.5237754e-01
-4.8362091e-01
-2.9635703e-01
-9.8014746e-02
1.0851044e-01
3.1304312e-01
4.9980244e-01
6.4766996e-01
7.2846009e-01
7.1962318e-01
6.2260384e-01
4.6764920e-01
2.9601255e-01
1.3598925e-01
-2.3965925e-03
-1.1127577e-01
-1.7620821e-01
-1.8899878e-01
-1.5680924e-01
-1.0262759e-01
-5.7260937e-02
-4.0019132e-02
-4.2359456e-02
-3.4106089e-02
9.2383567e-03
9.2430807e-02
2.0446905e-01
3.2149601e-01
4.0913795e-01
4.3405656e-01
3.8831419e-01
2.9446924e-01
1.7874814e-01
5.4230466e-02
-7.2217174e-02
-1.8744712e-01
-2.6947903e-01
-2.9746174e-01
-2.6169391e-01
-1.7193271e-01
-5.6244060e-02
5.9354724e-02
1.6336440e-01
2.4204350e-01
2.6681183e-01
2.1735375e-01
1.1143256e-01
-5.6627374e-03
-9.9146526e-02
-1.5771675e-01
-1.8183930e-01
-1.8084776e-01
-1.7733590e-01
-1.9505415e-01
-2.3511450e-01
-2.7787621e-01
-3.0778874e-01
-3.2284141e-01
-3.2690224e-01
-3.1879305e-01
-2.8743635e-01
-2.2162852e-01
-1.2533308e-01
-2.1458770e-02
6.4189603e-02
1.2426428e-01
1.7274035e-01
2.2323889e-01
2.6777203e-01
2.8424289e-01
2.6335642e-01
2.2296543e-01
1.9347257e-01
1.9851739e-01
2.4840763e-01
3.2657418e-01
3.8217591e-01
3.6410823e-01
2.6950026e-01
1.3774827e-01
5.1858280e-03
-1.0493481e-01
-1.7095879e-01
-1.8438704e-01
-1.6742432e-01
-1.6333514e-01
-2.0076246e-01
-2.7534611e-01
-3.6570580e-01
-4.4822596e-01
-5.0220748e-01
-5.1474191e-01
-4.8459922e-01
-4.2372387e-01
-3.4858257e-01
-2.6789046e-01
-1.8116339e-01
-8.8698483e-02
1.9427830e-03
7.8278688e-02
1.2845686e-01
1.4851657e-01
1.4342590e-01
1.1877158e-01
7.5861642e-02
1.7325562e-02
-4.1710487e-02
-7.3929747e-02
-5.6492276e-02
2.0284393e-02
1.5833910e-01
3.5175667e-01
5.7878629e-01
8.0882486e-01
1.0231335e+00
1.2079515e+00
1.3118031e+00
1.2454980e+00
9.6600201e-01
5.6817624e-01
2.0935768e-01
-5.5431193e-02
-2.5402719e-01
-4.1433538e-01
-5.5593645e-01
-6.8216940e-01
-7.7552467e-01
-8.1000042e-01
-7.7029129e-01
-6.6530661e-01
-5.2478133e-01
-3.8827568e-01
-2.9456171e-01
-2.6156769e-01
-2.7252582e-01
-2.9168083e-01
-2.9267177e-01
-2.6987308e-01
-2.3221528e-01
-1.8661424e-01
-1.2816529e-01
-4.8378456e-02
5.9108462e-02
1.9559033e-01
3.4707996e-01
4.8200138e-01
5.6751040e-01
5.8117765e-01
5.0830583e-01
3.5342240e-01
1.5735275e-01
-1.7081428e-02
-1.2267916e-01
-1.4753695e-01
-1.0666635e-01
-2.9535570e-02
4.6358028e-02
8.7472554e-02
8.6983419e-02
6.5725365e-02
4.6392007e-02
4.1009717e-02
4.7847201e-02
5.1078141e-02
3.1810990e-02
-1.9399828e-02
-9.4470809e-02
-1.7263324e-01
-2.3562454e-01
-2.7566983e-01
-2.9339460e-01
-2.9132597e-01
-2.7167583e-01
-2.3948951e-01
-2.0336261e-01
-1.7293476e-01
-1.5410100e-01
-1.4716206e-01
-1.4965770e-01
-1.5430724e-01
-1.4525614e-01
-1.0402150e-01
-2.2945924e-02
8.7884746e-02
2.0795057e-01
3.1958339e-01
4.1751711e-01
5.0102685e-01
5.5545470e-01
5.5377459e-01
4.8305343e-01
3.6096253e-01
2.2106215e-01
9.2558391e-02
-6.3327238e-03
-6.4224236e-02
-7.8187750e-02
-5.9383660e-02
-2.7250594e-02
-5.0868673e-03
-1.6452826e-02
-7.1873092e-02
-1.5981859e-01
-2.5412463e-01
-3.3124667e-01
-3.8261641e-01
-4.0983833e-01
-4.1226978e-01
-3.8240701e-01
-3.0971503e-01
-1.8898205e-01
-3.8455365e-02
8.9457721e-02
1.4176834e-01
1.1556824e-01
5.6324995e-02
9.6510232e-03
-5.5345310e-03
4.8283866e-03
2.1983109e-02
3.2313834e-02
3.2867463e-02
2.8909745e-02
3.1659433e-02
5.1189003e-02
8.9627356e-02
1.3937166e-01
1.8256192e-01
1.9467306e-01
1.5531474e-01
6.3880494e-02
-4.8954614e-02
-1.3703717e-01
-1.6954565e-01
-1.4103626e-01
-6.1486717e-02
5.4265963e-02
1.8755937e-01
3.1944441e-01
4.3860270e-01
5.3756714e-01
6.0609751e-01
6.4033102e-01
6.5299145e-01
6.4796852e-01
5.7949665e-01
3.7315761e-01
5.1884889e-02
-2.5311140e-01
-4.6285655e-01
-5.7380737e-01
-6.0783901e-01
-6.1943475e-01
-6.6104560e-01
-7.3081026e-01
-7.7849052e-01
-7.5575602e-01
-6.4455279e-01
-4.5920804e-01
-2.4256560e-01
-5.1525864e-02
7.1808778e-02
1.2576803e-01
1.3607178e-01
1.1824232e-01
7.0598149e-02
2.0545705e-03
-4.8875447e-02
-3.6273055e-02
5.5600478e-02
1.9932490e-01
3.3453151e-01
3.9764210e-01
3.6359944e-01
2.6470578e-01
1.5671582e-01
6.9051711e-02
8.1425322e-05
-5.2592822e-02
-7.1484436e-02
-2.9298073e-02
8.8542667e-02
2.7058719e-01
4.6930529e-01
6.0817054e-01
6.2686298e-01
5.3354289e-01
3.9545027e-01
2.7942090e-01
2.2367489e-01
2.3721092e-01
2.9836751e-01
3.5877345e-01
3.5761018e-01
2.6168950e-01
9.1299608e-02
-1.0672163e-01
-2.9297284e-01
-4.5035726e-01
-5.8686948e-01
-7.1615731e-01
-8.3234155e-01
-9.1254813e-01
-9.4015938e-01
-9.1864552e-01
-8.6054946e-01
-7.7245007e-01
-6.6112690e-01
-5.4512925e-01
-4.4479784e-01
-3.5951884e-01
-2.6794256e-01
-1.5079497e-01
1.5228377e-03
1.9160870e-01
3.9570154e-01
5.4944698e-01
5.9039427e-01
5.2414307e-01
4.2351339e-01
3.6082626e-01
3.6722971e-01
4.3742188e-01
5.3882763e-01
6.2489911e-01
6.5642439e-01
6.2311463e-01
5.3990859e-01
4.1905558e-01
2.6331608e-01
8.6366572e-02
-7.6646824e-02
-1.8829507e-01
-2.3175075e-01
-2.1048228e-01
-1.4735375e-01
-8.7954786e-02
-7.7558961e-02
-1.2264473e-01
-1.9651195e-01
-2.7557843e-01
-3.4202993e-01
-3.7988282e-01
-3.8350773e-01
-3.5863413e-01
-3.1668498e-01
-2.6843649e-01
-2.2644190e-01
-2.0679244e-01
-2.2029613e-01
-2.6154442e-01
-3.0962201e-01
-3.4161395e-01
-3.4402901e-01
-3.1582057e-01
-2.6291845e-01
-1.9030289e-01
-1.0344354e-01
-1.0091328e-02
8.3494803e-02
1.7456276e-01
2.6475487e-01
3.6316526e-01
4.8729153e-01
6.5487593e-01
8.7690442e-01
1.1536162e+00
1.4422697e+00
1.6168506e+00
1.5270809e+00
1.1513657e+00
6.3782204e-01
1.6743402e-01
-1.6751602e-01
-3.8506527e-01
-5.5517351e-01
-7.2336541e-01
-9.0710281e-01
-1.0955758e+00
-1.2458224e+00
-1.3194608e+00
-1.3010009e+00
-1.1929379e+00
-1.0076142e+00
-7.5937212e-01
-4.7233371e-01
-1.8438506e-01
6.7134674e-02
2.6355513e-01
4.1199102e-01
5.3269166e-01
6.3687760e-01
7.1037847e-01
7.1664144e-01
6.3763371e-01
5.1223621e-01
4.0681807e-01
3.6249969e-01
3.7503781e-01
4.0098870e-01
3.8844419e-01
3.1664920e-01
2.1321653e-01
1.2156968e-01
5.1599495e-02
-2.0894854e-02
-1.1873667e-01
-2.4028551e-01
-3.6166567e-01
-4.5076349e-01
-4.8480300e-01
-4.6797919e-01
-4.3455291e-01
-4.2463517e-01
-4.4907118e-01
-4.8401972e-01
-4.9855378e-01
-4.7649537e-01
-4.2001032e-01
-3.4036756e-01
-2.4348280e-01
-1.2629914e-01
2.0742976e-02
2.0670672e-01
4.2884183e-01
6.7106904e-01
9.0281979e-01
1.0600847e+00
1.0528497e+00
8.4166958e-01
4.9865888e-01
1.5950029e-01
-7.3614397e-02
-1.6956993e-01
-1.5374456e-01
-8.8342296e-02
-4.3195101e-02
-5.6208518e-02
-1.1012496e-01
-1.6248733e-01
-1.9238208e-01
-1.9947975e-01
-1.8491429e-01
-1.5091945e-01
-1.0885277e-01
-7.7894607e-02
-6.9906279e-02
-7.9192597e-02
-8.9052223e-02
-8.4098621e-02
-6.0647655e-02
-3.5714302e-02
-4.3814511e-02
-1.1240245e-01
-2.3188431e-01
-3.5761623e-01
-4.4596977e-01
-4.7790705e-01
-4.5892852e-01
-4.0887199e-01
-3.4499725e-01
-2.7381380e-01
-1.9593511e-01
-1.1751376e-01
-5.4000817e-02
-1.4685996e-02
1.3442137e-02
6.2381191e-02
1.6308608e-01
3.3019765e-01
5.5562097e-01
7.9064832e-01
9.3594135e-01
8.9636448e-01
6.7907962e-01
4.0210939e-01
1.9165858e-01
1.0898764e-01
1.4424263e-01
2.2748839e-01
2.6581335e-01
2.0515587e-01
6.8826291e-02
-7.6227239e-02
-1.8475803e-01
-2.4984802e-01
-2.8540709e-01
-3.0446424e-01
-3.0825471e-01
-2.9832849e-01
-2.7925843e-01
-2.4715757e-01
-1.9092647e-01
-1.0528143e-01
4.0020428e-03
1.2397867e-01
2.3707288e-01
3.2617172e-01
3.8564462e-01
4.2674480e-01
4.5240321e-01
4.2142688e-01
2.7248683e-01
2.3803791e-02
-2.2685151e-01
-4.2510389e-01
-5.7428639e-01
-6.8491338e-01
-7.6513377e-01
-8.1282239e-01
-8.1764546e-01
-7.7057730e-01
-6.6743286e-01
-5.1001618e-01
-3.0759669e-01
-8.3814319e-02
1.1952644e-01
2.6226642e-01
3.3871919e-01
3.8301421e-01
4.3481540e-01
5.0654958e-01
5.7878994e-01
6.1777368e-01
5.9944356e-01
5.2118813e-01
4.0205262e-01
2.7166470e-01
1.4670989e-01
2.0599148e-02
-1.1521192e-01
-2.4596079e-01
-3.3886290e-01
-3.6809312e-01
-3.2960035e-01
-2.3878516e-01
-1.1838308e-01
1.2326268e-02
1.3656025e-01
2.2632987e-01
2.4401651e-01
1.7441855e-01
4.5415472e-02
-8.8609719e-02
-1.8399233e-01
-2.2957671e-01
-2.3719065e-01
-2.1986819e-01
-1.8016562e-01
-1.1989421e-01
-4.8325448e-02
2.5351589e-02
9.8076395e-02
1.7022782e-01
2.3664975e-01
2.7750526e-01
2.6121464e-01
1.6801103e-01
1.6452167e-02
-1.4078578e-01
-2.5271076e-01
-2.9665221e-01
-2.7272397e-01
-1.8929667e-01
-5.6115637e-02
1.1644929e-01
3.1061983e-01
4.8377285e-01
5.7774185e-01
5.7171587e-01
4.9927959e-01
4.0289196e-01
2.8962521e-01
1.3797890e-01
-5.2577951e-02
-2.3542712e-01
-3.5228199e-01
-3.7887943e-01
-3.3617453e-01
-2.7972805e-01
-2.6665302e-01
-3.1271282e-01
-3.8019406e-01
-4.1634499e-01
-4.0032621e-01
-3.4391034e-01
-2.7069747e-01
-2.0199218e-01
-1.4757315e-01
-1.0816089e-01
-7.9176166e-02
-5.1987572e-02
-2.0085953e-02
1.7180539e-02
6.0446375e-02
1.1924153e-01
2.0709011e-01
3.2512331e-01
4.5104520e-01
5.4076123e-01
5.4764319e-01
4.5216464e-01
2.8174521e-01
9.6122461e-02
-5.6357664e-02
-1.6377108e-01
-2.3882503e-01
-2.9190793e-01
-3.1576605e-01
-2.9708088e-01
-2.3533153e-01
-1.4990247e-01
-6.8846622e-02
-4.3545313e-03
5.1991541e-02
1.0170591e-01
1.1866239e-01
7.0570612e-02
-3.7319168e-02
-1.4941937e-01
-1.9881731e-01
-1.4974008e-01
-8.2643955e-03
1.8746041e-01
3.8659080e-01
5.4251180e-01
6.3119124e-01
6.6077024e-01
6.4180993e-01
5.5404959e-01
3.7069319e-01
1.1778469e-01
-1.4471906e-01
-3.9273443e-01
-6.1872987e-01
-7.9820702e-01
-9.0844515e-01
-9.3446780e-01
-8.6796450e-01
-7.0878350e-01
-4.6133411e-01
-1.4039898e-01
2.1565678e-01
5.3185035e-01
7.1613439e-01
7.2503526e-01
6.0791817e-01
4.6866718e-01
3.8121948e-01
3.4093030e-01
2.8648961e-01
1.8750402e-01
8.7892632e-02
4.2555425e-02
6.1980592e-02
1.0966582e-01
1.2775099e-01
8.2036876e-02
-8.8385068e-03
-9.6508913e-02
-1.5201676e-01
-1.7878337e-01
-1.9408906e-01
-2.1309258e-01
-2.4244059e-01
-2.7780589e-01
-3.0471682e-01
-3.1081943e-01
-3.0116592e-01
-2.9286500e-01
-2.9410803e-01
-2.9641363e-01
-2.8506761e-01
-2.5079422e-01
-1.9727582e-01
-1.4362475e-01
-1.1456389e-01
-1.2312705e-01
-1.5841593e-01
-1.8937186e-01
-1.8655087e-01
-1.3982978e-01
-5.9884765e-02
3.2349982e-02
1.2005853e-01
1.9506640e-01
2.5942756e-01
3.2710093e-01
4.1579353e-01
5.3633525e-01
6.8309977e-01
8.1826099e-01
8.6848673e-01
7.6676443e-01
5.1953150e-01
2.1570765e-01
-4.3403114e-02
-2.0483614e-01
-2.6914652e-01
-2.6378673e-01
-2.1785271e-01
-1.5778227e-01
-1.0432393e-01
-7.2078002e-02
-7.4897454e-02
-1.1934963e-01
-1.9422123e-01
-2.7262973e-01
-3.2790391e-01
-3.4549714e-01
-3.2353144e-01
-2.6577505e-01
-1.7554500e-01
-6.0195712e-02
6.2315562e-02
1.5803521e-01
1.8788051e-01
1.3992546e-01
4.3503550e-02
-5.1785743e-02
-1.0809155e-01
-1.1171363e-01
-6.9367914e-02
-5.6742002e-03
4.2608189e-02
4.2275580e-02
-1.0199746e-02
-8.1168383e-02
-1.2836600e-01
-1.2634042e-01
-6.9749412e-02
2.5858541e-02
1.2754842e-01
2.0298062e-01
2.4073471e-01
2.4636886e-01
2.2034614e-01
1.5719702e-01
6.4919036e-02
-2.7364052e-02
-8.7506610e-02
-1.0512602e-01
-9.5575599e-02
-8.3376499e-02
-8.4605844e-02
-1.0093551e-01
-1.1841904e-01
-1.1388554e-01
-7.0076789e-02
1.5652623e-02
1.3290542e-01
2.6398062e-01
3.8152746e-01
4.4882652e-01
4.4584422e-01
3.9541823e-01
3.3995961e-01
2.8859500e-01
2.1029077e-01
9.5693706e-02
-3.1082329e-02
-1.7507881e-01
-3.5481858e-01
-5.5046196e-01
-7.1696598e-01
-8.1683568e-01
-8.3816818e-01
-7.8897526e-01
-6.8201855e-01
-5.3745602e-01
-3.8231458e-01
-2.3405696e-01
-9.1535399e-02
5.8338517e-02
2.2480367e-01
3.9723382e-01
5.3640249e-01
5.8611391e-01
5.1995502e-01
3.7840879e-01
2.3811955e-01
1.5860739e-01
1.6081383e-01
2.2920182e-01
3.2700844e-01
4.1747120e-01
4.7884024e-01
4.9451662e-01
4.3863806e-01
2.9917693e-01
1.0730738e-01
-7.7276384e-02
-2.1085098e-01
-2.8994318e-01
-3.3488390e-01
-3.5769834e-01
-3.5129443e-01
-3.0547484e-01
-2.2380385e-01
-1.3147373e-01
-6.9136477e-02
-6.9594157e-02
-1.3625945e-01
-2.4077062e-01
-3.4207589e-01
-4.0883983e-01
-4.2651940e-01
-3.9510525e-01
-3.2850236e-01
-2.5293286e-01
-1.9112969e-01
-1.4122224e-01
-7.9915246e-02
1.7051931e-02
1.5593359e-01
3.0981205e-01
4.2728562e-01
4.7268946e-01
4.6052281e-01
4.4010918e-01
4.4519211e-01
4.6976104e-01
4.8494124e-01
4.6704886e-01
4.0683064e-01
3.0408066e-01
1.7699488e-01
6.6108129e-02
8.4345438e-03
1.3122009e-02
5.9269989e-02
1.0393821e-01
1.0448781e-01
4.8458944e-02
-4.2136274e-02
-1.3730653e-01
-2.2282295e-01
-2.9704505e-01
-3.5832329e-01
-4.0256082e-01
-4.2651469e-01
-4.3065698e-01
-4.1805458e-01
-3.9269641e-01
-3.5800876e-01
-3.1130038e-01
-2.4708205e-01
-1.7149734e-01
-1.0861949e-01
-8.5175654e-02
-1.0445397e-01
-1.4203091e-01
-1.6808566e-01
-1.6535277e-01
-1.3176707e-01
-7.3168804e-02
5.8835526e-03
1.0175147e-01
2.0427164e-01
2.8586757e-01
3.0594912e-01
2.4425530e-01
1.2781339e-01
1.2149168e-02
-6.3078994e-02
-9.1669371e-02
-8.6837480e-02
-5.5168023e-02
1.6046532e-02
1.4308228e-01
3.2337920e-01
5.1984532e-01
6.6357589e-01
6.9171413e-01
6.0721718e-01
4.8938612e-01
4.2734367e-01
4.6606306e-01
6.0131350e-01
7.7881685e-01
8.9127618e-01
8.1637000e-01
5.1883136e-01
9.8536593e-02
-3.0251941e-01
-6.0513831e-01
-8.1692599e-01
-9.8049308e-01
-1.1099164e+00
-1.1994356e+00
-1.2414896e+00
-1.2242144e+00
-1.1420482e+00
-9.9669286e-01
-7.9386364e-01
-5.4277835e-01
-2.5382815e-01
5.3868925e-02
3.4754012e-01
5.8284568e-01
7.1511126e-01
7.2867913e-01
6.5420102e-01
5.5120395e-01
4.6527123e-01
3.9210939e-01
2.9620495e-01
1.7464971e-01
7.0067625e-02
1.9498506e-02
2.7162264e-02
6.7126632e-02
9.4448047e-02
7.2175094e-02
3.2034284e-03
-6.9049149e-02
-1.0138184e-01
-7.7009597e-02
-2.9162616e-03
9.1397191e-02
1.5594413e-01
1.3955374e-01
3.3600724e-02
-1.1245235e-01
-2.3805148e-01
-3.1145372e-01
-3.2891363e-01
-3.0048111e-01
-2.4315875e-01
-1.8578646e-01
-1.5526989e-01
-1.5340171e-01
-1.5942469e-01
-1.4741472e-01
-1.0403523e-01
-3.2858398e-02
5.5742964e-02
1.5309215e-01
2.5803324e-01
3.6996252e-01
4.7392229e-01
5.4445819e-01
5.6176089e-01
5.1368537e-01
3.9464804e-01
2.2171336e-01
4.2490104e-02
-8.5359271e-02
-1.2775675e-01
-9.0024417e-02
-8.1285482e-03
6.4852502e-02
7.8678703e-02
1.0771404e-02
-1.1940688e-01
-2.6253334e-01
-3.7426864e-01
-4.3641702e-01
-4.5389192e-01
-4.4227379e-01
-4.1594123e-01
-3.8523903e-01
-3.5640016e-01
-3.3254693e-01
-3.1467386e-01
-2.9655725e-01
-2.6740242e-01
-2.2407049e-01
-1.7399934e-01
-1.2352387e-01
-6.6899578e-02
1.2558283e-02
1.3156995e-01
2.9725860e-01
5.0186359e-01
7.0770568e-01
8.3920141e-01
8.1995258e-01
6.4640889e-01
4.0910199e-01
2.2026167e-01
1.4711559e-01
1.9390660e-01
2.9436448e-01
3.3445811e-01
2.3177854e-01
1.2348277e-02
-2.1861427e-01
-3.7455174e-01
-4.2368628e-01
-3.7414269e-01
-2.6421881e-01
-1.4935054e-01
-7.9008685e-02
-6.7203536e-02
-8.6758101e-02
-1.0067033e-01
-8.9397881e-02
-5.3625977e-02
-8.1485490e-03
2.5411724e-02
2.7967452e-02
2.2775954e-03
-1.8240155e-02
5.2434921e-03
9.2287101e-02
2.3827544e-01
4.1355328e-01
5.6023695e-01
6.0661545e-01
5.2503587e-01
3.6619285e-01
2.0431984e-01
6.9745637e-02
-5.8751314e-02
-1.9024931e-01
-2.9061175e-01
-3.4463389e-01
-3.7011879e-01
-3.8317439e-01
-3.8851755e-01
-3.7801446e-01
-3.4165324e-01
-2.8419392e-01
-2.2644444e-01
-1.9348947e-01
-1.9522376e-01
-2.1864292e-01
-2.4747540e-01
-2.7353539e-01
-2.9006302e-01
-2.8647827e-01
-2.5121994e-01
-1.8166999e-01
-8.6466462e-02
1.8976159e-02
1.1458277e-01
1.7926723e-01
2.0347294e-01
1.9403178e-01
1.6426213e-01
1.2914146e-01
1.0454237e-01
1.0115196e-01
1.1559605e-01
1.3137738e-01
1.3099873e-01
1.0672677e-01
6.1332039e-02
3.1850208e-03
-5.5417043e-02
-9.8922885e-02
-1.1592196e-01
-1.1151594e-01
-1.0558532e-01
-1.1247418e-01
-1.2624843e-01
-1.2721794e-01
-9.9394825e-02
-4.0657831e-02
4.1336377e-02
1.3555935e-01
2.2812728e-01
3.0148972e-01
3.3951925e-01
3.4427975e-01
3.4454541e-01
3.6670967e-01
3.9269134e-01
3.6904291e-01
2.7114749e-01
1.3868877e-01
3.3631692e-02
-6.4835625e-03
2.7155350e-02
1.1333850e-01
1.9194290e-01
1.8151519e-01
4.4603408e-02
-1.7499911e-01
-3.9743493e-01
-5.5797874e-01
-6.2485244e-01
-5.9844102e-01
-4.9855880e-01
-3.5547542e-01
-2.0447679e-01
-8.4088956e-02
-3.0484305e-02
-5.4474413e-02
-1.2607667e-01
-1.9196521e-01
-2.1131014e-01
-1.7567592e-01
-1.0465727e-01
-2.7416978e-02
3.8014758e-02
8.9781813e-02
1.3641090e-01
1.8581047e-01
2.3614976e-01
2.8169828e-01
3.1939240e-01
3.4223064e-01
3.3266106e-01
2.7495290e-01
1.7720342e-01
7.2299759e-02
-7.6246114e-03
-5.3390961e-02
-7.6772611e-02
-9.3229995e-02
-1.0956923e-01
-1.2363259e-01
-1.2997762e-01
-1.2849092e-01
-1.2778571e-01
-1.3714029e-01
-1.5266889e-01
-1.5384135e-01
-1.1909823e-01
-4.1665605e-02
6.4884272e-02
1.6784920e-01
2.2744444e-01
2.1697409e-01
1.4436047e-01
5.1758698e-02
-1.5619232e-02
-3.5020250e-02
-8.3568222e-03
4.9899708e-02
1.2859352e-01
2.2551975e-01
3.4348226e-01
4.7687162e-01
5.9127869e-01
6.2865712e-01
5.5951661e-01
4.2734292e-01
3.1102234e-01
2.4859217e-01
2.0973276e-01
1.5668422e-01
8.5773430e-02
-2.1137851e-02
-1.8156199e-01
-3.5967919e-01
-4.9529038e-01
-5.5158748e-01
-5.2371366e-01
-4.2650290e-01
-2.8565909e-01
-1.3914616e-01
-3.2248631e-02
-9.8762557e-03
-9.6317048e-02
-2.5761548e-01
-4.1783709e-01
-5.1983284e-01
-5.5374895e-01
-5.4159120e-01
-5.1074953e-01
-4.8069936e-01
-4.6376250e-01
-4.6486457e-01
-4.7245754e-01
-4.5785313e-01
-3.9153339e-01
-2.6102747e-01
-7.5592381e-02
1.4694299e-01
3.9506563e-01
6.6261552e-01
9.3892005e-01
1.1821882e+00
1.2932566e+00
1.1646185e+00
7.9863614e-01
3.3554657e-01
-6.0996707e-02
-3.0051268e-01
-3.7175412e-01
-3.1485270e-01
-1.9705453e-01
-8.3442899e-02
3.8904904e-03
7.3164160e-02
1.1289261e-01
9.5646022e-02
1.9671960e-02
-7.1612945e-02
-1.2004010e-01
-9.2692372e-02
1.1415816e-02
1.7031289e-01
3.5137444e-01
5.2144824e-01
6.4955831e-01
6.9111897e-01
5.8559860e-01
3.1614442e-01
-5.0304756e-02
-4.1708808e-01
-7.2283521e-01
-9.4572953e-01
-1.0819573e+00
-1.1385735e+00
-1.1329946e+00
-1.0827091e+00
-9.9381194e-01
-8.6945973e-01
-7.2808319e-01
-5.9300901e-01
-4.6610903e-01
-3.2854510e-01
-1.6078407e-01
4.8662350e-02
3.0394367e-01
6.0265573e-01
9.4135489e-01
1.3212326e+00
1.7357003e+00
2.1182927e+00
2.3093076e+00
2.1513664e+00
1.6419305e+00
9.5653510e-01
3.0642819e-01
-2.0010675e-01
-5.5759017e-01
-7.9944678e-01
-9.5736414e-01
-1.0528649e+00
-1.1010407e+00
-1.1201913e+00
-1.1297017e+00
-1.1266739e+00
-1.0888331e+00
-1.0015956e+00
-8.7219758e-01
-7.2126427e-01
-5.6507068e-01
-4.1292109e-01
-2.7523806e-01
-1.6152371e-01
-6.7567419e-02
2.8070413e-02
1.4909350e-01
3.0977533e-01
5.1278136e-01
7.3639996e-01
9.1774669e-01
9.7762673e-01
8.8695349e-01
6.9057946e-01
4.6151416e-01
2.5889253e-01
1.2172144e-01
7.5270399e-02
1.3348438e-01
2.9225167e-01
5.1863626e-01
7.2864258e-01
7.9315902e-01
6.3197616e-01
3.0883096e-01
-2.2323297e-02
-2.5449353e-01
-3.7876870e-01
-4.5377730e-01
-5.2202492e-01
-5.6986290e-01
-5.9767805e-01
-6.3343187e-01
-6.8545965e-01
-7.3524161e-01
-7.4993166e-01
-7.0418475e-01
-5.9366793e-01
-4.3250566e-01
-2.5586239e-01
-1.0714083e-01
-5.6094441e-03
6.1326671e-02
1.1869306e-01
1.8590006e-01
2.7405408e-01
3.8935058e-01
5.2876316e-01
6.7534305e-01
7.9495513e-01
8.3599104e-01
7.4978324e-01
5.4177145e-01
2.9146907e-01
9.6156957e-02
1.5234310e-02
5.3412713e-02
1.4611384e-01
1.7671063e-01
7.0240827e-02
-1.3082900e-01
-3.2932867e-01
-4.7822801e-01
-5.8428339e-01
-6.6290306e-01
-7.1546351e-01
-7.2951900e-01
-6.9525910e-01
-6.1316269e-01
-4.8903789e-01
-3.2852117e-01
-1.3223558e-01
1.0365930e-01
3.6963171e-01
6.1630758e-01
7.6858782e-01
7.9492290e-01
7.4648908e-01
7.1005420e-01
7.4396946e-01
8.4375894e-01
9.2921907e-01
8.8343520e-01
6.4976856e-01
2.8767744e-01
-9.4844120e-02
-4.2740446e-01
-6.7955268e-01
-8.3850958e-01
-9.0774619e-01
-9.0408727e-01
-8.4416712e-01
-7.3986213e-01
-6.1581294e-01
-5.2081870e-01
-4.9435696e-01
-5.2475977e-01
-5.6667280e-01
-5.8516371e-01
-5.6465835e-01
-4.9931583e-01
-3.8717678e-01
-2.2645697e-01
-1.6893048e-02
2.3791480e-01
5.2915729e-01
8.4373273e-01
1.1743346e+00
1.5227428e+00
1.8650793e+00
2.0952451e+00
2.0474210e+00
1.6413220e+00
9.8885753e-01
3.0809717e-01
-2.3874103e-01
-6.0042604e-01
-7.9869459e-01
-8.8162967e-01
-8.9731126e-01
-8.7444353e-01
-8.2875842e-01
-7.8810663e-01
-7.7471655e-01
-7.7873549e-01
-7.7367695e-01
-7.4069473e-01
-6.7276556e-01
-5.7345526e-01
-4.5543251e-01
-3.3333296e-01
-2.1655089e-01
-1.0524480e-01
-4.5917947e-04
8.4975939e-02
1.4004235e-01
1.7199557e-01
1.9786837e-01
2.2731984e-01
2.6559757e-01
3.2101474e-01
3.9479248e-01
4.6883613e-01
5.0952218e-01
4.9407198e-01
4.3036368e-01
3.4429061e-01
2.6700690e-01
2.3143330e-01
2.5465740e-01
3.1649032e-01
3.7205914e-01
3.9682222e-01
3.9292652e-01
3.4278243e-01
2.0148732e-01
-5.1036565e-02
-3.5742024e-01
-6.1641172e-01
-7.7816051e-01
-8.5077718e-01
-8.5463588e-01
-8.0891992e-01
-7.2447971e-01
-6.0655748e-01
-4.6953510e-01
-3.3993654e-01
-2.4330507e-01
-1.7980656e-01
-1.1869480e-01
-2.7552950e-02
1.0671988e-01
2.7532656e-01
4.4299072e-01
5.5967636e-01
5.9865314e-01
5.7816524e-01
5.3523729e-01
4.8797860e-01
4.3406555e-01
3.7082146e-01
3.0198389e-01
2.2726643e-01
1.3613158e-01
2.7732891e-02
-7.6691062e-02
-1.5571133e-01
-2.0229706e-01
-2.1852781e-01
-2.1726022e-01
-2.2269179e-01
-2.5247869e-01
-3.0037363e-01
-3.4613776e-01
-3.7717742e-01
-3.8953877e-01
-3.7900937e-01
-3.3977852e-01
-2.6752113e-01
-1.6210477e-01
-2.9739810e-02
1.1100439e-01
2.3310930e-01
3.2237307e-01
3.8923502e-01
4.5312995e-01
5.2425258e-01
6.0475683e-01
6.8786339e-01
7.4225061e-01
7.1349744e-01
5.6631366e-01
3.2799853e-01
7.3528901e-02
-1.3000389e-01
-2.5237598e-01
-2.9679796e-01
-2.9368602e-01
-2.8891413e-01
-3.1721312e-01
-3.7595427e-01
-4.3836265e-01
-4.8537896e-01
-5.0308168e-01
-4.7726112e-01
-4.0822177e-01
-3.1798740e-01
-2.3611525e-01
-1.7631325e-01
-1.3641693e-01
-1.1566268e-01
-1.1430763e-01
-1.2163473e-01
-1.1554585e-01
-7.4650317e-02
1.2873025e-02
1.4652504e-01
3.0276974e-01
4.2775117e-01
4.6628787e-01
4.1218770e-01
3.0883434e-01
1.9797859e-01
9.5912560e-02
9.1488831e-03
-5.3014815e-02
-8.1973642e-02
-7.7520590e-02
-4.3143688e-02
1.9302206e-02
1.0616438e-01
2.1503031e-01
3.4452878e-01
4.7116307e-01
5.2718171e-01
4.3951070e-01
2.1221518e-01
-6.7446799e-02
-3.0985419e-01
-4.7544812e-01
-5.7214825e-01
-6.2624179e-01
-6.5007195e-01
-6.4126287e-01
-5.9619186e-01
-5.1772396e-01
-4.1757618e-01
-3.0498247e-01
-1.7616706e-01
-2.5634674e-02
1.3308539e-01
2.6755466e-01
3.5622499e-01
4.1443083e-01
4.8003540e-01
5.8590597e-01
7.4360696e-01
9.2119588e-01
1.0233279e+00
9.3450957e-01
6.3674195e-01
2.4832326e-01
-8.3028247e-02
-2.7381719e-01
-3.1984489e-01
-2.7312510e-01
-1.9519326e-01
-1.4786594e-01
-1.9297482e-01
-3.4222224e-01
-5.3803419e-01
-6.9709042e-01
-7.6166874e-01
-7.1407174e-01
-5.5914419e-01
-3.1992077e-01
-4.4325568e-02
2.0423031e-01
3.8073960e-01
4.8731098e-01
5.5902062e-01
6.1972857e-01
6.4925435e-01
5.9657886e-01
4.4421592e-01
2.4970752e-01
9.7796993e-02
3.5749776e-02
6.1057337e-02
1.3131187e-01
1.7737537e-01
1.3868984e-01
1.1544799e-02
-1.5591806e-01
-3.1213977e-01
-4.2125997e-01
-4.6741792e-01
-4.6329998e-01
-4.4175479e-01
-4.2772841e-01
-4.1453182e-01
-3.7882701e-01
-3.1108155e-01
-2.1322800e-01
-8.5020419e-02
6.9816976e-02
2.3342812e-01
3.8086662e-01
4.9076203e-01
5.4081925e-01
5.0692968e-01
3.8266584e-01
1.9704450e-01
2.4588272e-03
-1.5560920e-01
-2.5666354e-01
-3.0590736e-01
-3.2966125e-01
-3.5883548e-01
-3.9869360e-01
-4.1994947e-01
-3.9571234e-01
-3.3558489e-01
-2.6377750e-01
-1.8715902e-01
-1.0146884e-01
-1.0687912e-02
7.2261556e-02
1.3476986e-01
1.6742031e-01
1.6633698e-01
1.3859984e-01
1.0458906e-01
9.1720416e-02
1.2245011e-01
2.0442441e-01
3.2279343e-01
4.2926754e-01
4.4955375e-01
3.3617309e-01
1.1951389e-01
-1.1970148e-01
-3.1434711e-01
-4.3192880e-01
-4.7058508e-01
-4.4876764e-01
-3.8337781e-01
-2.7515653e-01
-1.1581674e-01
7.3037758e-02
2.1344007e-01
2.3783569e-01
1.7587537e-01
1.2078154e-01
1.3300249e-01
2.1642060e-01
3.4272953e-01
4.5724105e-01
4.8401695e-01
3.6541524e-01
1.2052367e-01
-1.5981273e-01
-3.8744486e-01
-5.2014249e-01
-5.5362460e-01
-5.0762015e-01
-4.1689432e-01
-3.1853327e-01
-2.2928356e-01
-1.4456308e-01
-6.1123334e-02
2.0150722e-02
9.7830552e-02
1.6447291e-01
2.0896289e-01
2.2844739e-01
2.4067392e-01
2.7608923e-01
3.4701467e-01
4.2776897e-01
4.7882702e-01
4.8746113e-01
4.7164858e-01
4.6306529e-01
4.9773714e-01
5.8839977e-01
6.7930098e-01
6.6232391e-01
4.8299955e-01
2.0119833e-01
-8.2519839e-02
-3.1236328e-01
-4.8663073e-01
-6.4256516e-01
-8.2313403e-01
-1.0280684e+00
-1.2109909e+00
-1.3209608e+00
-1.3381897e+00
-1.2711608e+00
-1.1366419e+00
-9.4896750e-01
-7.1683627e-01
-4.5622077e-01
-1.9714052e-01
2.9480351e-02
2.0803741e-01
3.4623887e-01
4.7288795e-01
6.2893721e-01
8.4643538e-01
1.1324146e+00
1.4691601e+00
1.7874929e+00
1.9395397e+00
1.7721420e+00
1.2716631e+00
6.0732199e-01
-7.8496848e-04
-4.2284009e-01
-6.3186085e-01
-6.6339623e-01
-5.9635674e-01
-5.2320864e-01
-4.8604386e-01
-4.6508541e-01
-4.3370747e-01
-3.7711852e-01
-2.8867248e-01
-1.8652257e-01
-1.1752488e-01
-1.2012743e-01
-1.7876541e-01
-2.3612654e-01
-2.4702865e-01
-1.9922116e-01
-1.0502779e-01
2.8233042e-03
7.9412578e-02
8.9088188e-02
3.2102063e-02
-6.2240272e-02
-1.6551657e-01
-2.4957675e-01
-2.8055138e-01
-2.3694073e-01
-1.2366124e-01
3.7978368e-02
2.2426404e-01
3.9984222e-01
5.0676514e-01
4.9394987e-01
3.6808130e-01
1.9498466e-01
4.7575604e-02
-3.3007638e-02
-4.5669822e-02
-1.6441030e-02
2.6550243e-02
6.8356997e-02
1.1169492e-01
1.5994585e-01
1.9416806e-01
1.8287905e-01
1.1322057e-01
3.6176747e-03
-1.1305797e-01
-2.0665154e-01
-2.6107395e-01
-2.8376683e-01
-2.9898182e-01
-3.2482851e-01
-3.5453795e-01
-3.6655662e-01
-3.4701536e-01
-2.9181269e-01
-2.0278741e-01
-9.1275684e-02
2.4655771e-02
1.3071486e-01
2.2476861e-01
3.0994703e-01
3.8350192e-01
4.4393102e-01
4.9803191e-01
5.4192684e-01
5.3541014e-01
4.1924558e-01
1.7744924e-01
-1.3131722e-01
-4.1826528e-01
-6.2296276e-01
-7.3163503e-01
-7.7222281e-01
-7.9352833e-01
-8.2837033e-01
-8.6893974e-01
-8.8355762e-01
-8.5273191e-01
-7.7734738e-01
-6.6327858e-01
-5.0933914e-01
-3.0927809e-01
-6.4465709e-02
2.1364563e-01
5.1875557e-01
8.6015912e-01
1.2551510e+00
1.7194125e+00
2.2636892e+00
2.8889778e+00
3.5831967e+00
4.3123017e+00
4.9777800e+00
5.3966759e+00
5.4052799e+00
5.0135874e+00
4.4095804e+00
3.7964969e+00
3.2720199e+00
2.8237238e+00
