-8.0057564e-02
-5.8091741e-02
-2.2689730e-02
2.5300756e-02
7.2823471e-02
9.2412323e-02
7.5838750e-02
4.0312752e-02
-6.4787280e-04
-2.8503289e-02
-4.7193081e-02
-7.6797499e-02
-1.0876394e-01
-1.2623893e-01
-1.2497358e-01
-1.1521321e-01
-1.0502441e-01
-9.9483253e-02
-1.0591368e-01
-1.1420756e-01
-1.1600695e-01
-1.1077448e-01
-9.6633640e-02
-7.7020819e-02
-5.6464381e-02
-4.1553934e-02
-3.1478371e-02
-1.9666249e-02
-8.1085780e-03
5.3456824e-03
3.1428628e-02
7.7897618e-02
1.4552703e-01
2.2937862e-01
3.2152187e-01
4.0042852e-01
4.3348988e-01
3.9700919e-01
2.9500490e-01
1.7012231e-01
6.3251621e-02
-1.7196019e-02
-7.0483017e-02
-9.6945684e-02
-1.1840617e-01
-1.6530302e-01
-2.3202566e-01
-2.9675318e-01
-3.5313313e-01
-3.9684492e-01
-4.2781788e-01
-4.4326555e-01
-4.3795468e-01
-4.1107580e-01
-3.6001305e-01
-2.8859979e-01
-2.0378327e-01
-1.0627849e-01
9.5094509e-03
1.3787875e-01
2.6081780e-01
3.7255556e-01
4.5778654e-01
4.9821007e-01
5.0168877e-01
4.7446140e-01
4.2062406e-01
3.4226967e-01
2.3409929e-01
1.0918325e-01
-1.2043358e-02
-1.1233643e-01
-1.7867117e-01
-2.1523359e-01
-2.3710666e-01
-2.5820405e-01
-2.7964630e-01
-2.8259464e-01
-2.4560699e-01
-1.6562382e-01
-6.3080963e-02
3.0418637e-02
8.9860785e-02
1.0594244e-01
8.5069110e-02
3.8666412e-02
-2.0535734e-02
-8.4140714e-02
-1.3864151e-01
-1.6283942e-01
-1.5197160e-01
-1.1662222e-01
-7.1292006e-02
-2.2752796e-02
2.2461808e-02
6.0069979e-02
1.0791159e-01
1.7241562e-01
2.4841726e-01
3.3033906e-01
3.9246791e-01
4.1507067e-01
3.8669895e-01
2.9977170e-01
1.6792434e-01
2.9293125e-02
-6.9823627e-02
-1.1863591e-01
-1.2535197e-01
-8.4649145e-02
-7.1245174e-03
7.6833355e-02
1.3684011e-01
1.5661041e-01
1.3382766e-01
8.4597840e-02
4.5526319e-02
3.4470392e-02
5.5300173e-02
1.0531925e-01
1.5160644e-01
1.5365426e-01
9.0944015e-02
-2.6149061e-02
-1.6464000e-01
-2.9331201e-01
-3.9199269e-01
-4.5756614e-01
-4.9325942e-01
-5.0130493e-01
-4.9100711e-01
-4.6481908e-01
-4.2013580e-01
-3.5829364e-01
-2.8438856e-01
-2.0278474e-01
-1.1871199e-01
-5.0338546e-02
9.5422679e-03
8.3519609e-02
1.6004458e-01
2.2222935e-01
2.5467548e-01
2.3765337e-01
1.7103737e-01
8.5354610e-02
1.5601033e-02
-3.4019612e-02
-5.6579634e-02
-2.9942954e-02
4.5645043e-02
1.5028755e-01
2.5376014e-01
3.2522591e-01
3.4962173e-01
3.4485684e-01
3.3768211e-01
3.1394944e-01
2.7353739e-01
2.4105960e-01
2.2084900e-01
2.2397794e-01
2.4870265e-01
2.6097802e-01
2.2803042e-01
1.5932363e-01
8.4087507e-02
-6.3841199e-04
-8.5786781e-02
-1.5454557e-01
-2.0949559e-01
-2.3775074e-01
-2.3975549e-01
-2.3345846e-01
-2.2218350e-01
-1.9661228e-01
-1.5028390e-01
-1.0160307e-01
-7.4004951e-02
-6.9764832e-02
-7.3519562e-02
-6.7622941e-02
-5.2820395e-02
-4.7139408e-02
-6.7560199e-02
-1.0350131e-01
-1.2977601e-01
-1.4375416e-01
-1.4226226e-01
-1.2644659e-01
-1.0879564e-01
-8.0664780e-02
-3.7228045e-02
1.2061558e-02
5.1626332e-02
7.5758840e-02
9.3478447e-02
1.0423697e-01
1.1965959e-01
1.2747895e-01
1.0128174e-01
7.1474392e-02
6.3811270e-02
6.7196033e-02
5.4568245e-02
1.6172331e-02
-3.4139447e-02
-9.8114882e-02
-1.6096940e-01
-2.0101917e-01
-2.1512266e-01
-2.0366702e-01
-1.7284376e-01
-1.2796250e-01
-7.8202340e-02
-2.8630476e-02
1.5427981e-02
4.3749243e-02
6.8644289e-02
7.6687703e-02
4.4464188e-02
1.7621081e-03
-2.9182715e-02
-5.0114211e-02
-6.1363940e-02
-5.5329231e-02
-2.2806647e-02
2.5709144e-02
7.1447555e-02
8.3169110e-02
5.4376994e-02
2.0098410e-02
-5.2689996e-03
-2.5685768e-02
-5.4857309e-02
-9.0848013e-02
-1.1226789e-01
-1.1304592e-01
-7.7775265e-02
-2.6496278e-02
7.3883543e-03
4.4214086e-02
9.2472694e-02
1.3314443e-01
1.4759402e-01
1.4469094e-01
1.4009196e-01
1.3189468e-01
1.3473646e-01
1.3324078e-01
1.1528317e-01
1.1370908e-01
1.3053558e-01
1.4507258e-01
1.3987852e-01
1.2620383e-01
1.2713610e-01
1.3916508e-01
1.6225288e-01
1.6923641e-01
1.4549163e-01
1.2833722e-01
1.3122492e-01
1.4018167e-01
1.3676134e-01
1.2643140e-01
1.2094579e-01
1.0697170e-01
8.1311609e-02
1.9398907e-02
-8.9275840e-02
-1.9843869e-01
-2.8596065e-01
-3.5853242e-01
-4.1844609e-01
-4.5872879e-01
-4.7756027e-01
-4.8928018e-01
-4.9682157e-01
-5.0312157e-01
-5.0998862e-01
-5.0491902e-01
-4.8170570e-01
-4.3314245e-01
-3.5164545e-01
-2.3569279e-01
-9.5516844e-02
5.2257975e-02
1.9593505e-01
3.0920613e-01
3.8365042e-01
4.4374942e-01
5.0233809e-01
5.5122306e-01
5.7899688e-01
5.9177766e-01
5.9043113e-01
5.8147006e-01
5.7597329e-01
5.4605863e-01
4.8730895e-01
4.2168206e-01
3.3638140e-01
2.0947567e-01
4.7225127e-02
-1.1099881e-01
-2.5067485e-01
-3.8010290e-01
-4.7583854e-01
-5.2217676e-01
-5.2159400e-01
-4.7751533e-01
-3.9718247e-01
-2.8770182e-01
-1.6462285e-01
-4.7912251e-02
3.6948073e-02
7.7366204e-02
7.7222157e-02
2.7961684e-02
-5.7309088e-02
-1.3901159e-01
-1.9429425e-01
-2.1667500e-01
-2.0351115e-01
-1.5327249e-01
-7.9650046e-02
-4.5779213e-03
5.3125306e-02
7.9220391e-02
7.7709435e-02
5.8689832e-02
3.4212491e-02
2.0237124e-02
3.1892825e-02
7.1561974e-02
1.1555502e-01
1.4857359e-01
1.7138914e-01
1.8183235e-01
1.7706723e-01
1.5162365e-01
1.1336507e-01
7.3330906e-02
3.7049123e-02
5.1950875e-03
-3.3649389e-02
-7.3290141e-02
-1.0310992e-01
-1.1980924e-01
-1.2139638e-01
-1.1264421e-01
-7.9569375e-02
-1.2487800e-02
7.2148074e-02
1.4380722e-01
1.7094852e-01
1.6381920e-01
1.4757031e-01
1.2548319e-01
9.2767945e-02
4.1793951e-02
-8.1498945e-03
-2.9443640e-02
-1.4245510e-02
2.7509126e-02
6.2225194e-02
7.3225016e-02
5.5300885e-02
2.0763358e-03
-6.7936200e-02
-1.3815639e-01
-1.9026718e-01
-2.0281819e-01
-1.7199177e-01
-1.1323991e-01
-5.0954423e-02
1.2982319e-02
7.2613808e-02
1.1227538e-01
1.2687668e-01
1.0620622e-01
6.4590900e-02
2.6934834e-02
1.5640582e-03
-8.2705430e-03
-9.9752468e-03
-2.9298681e-03
-7.3770931e-03
-4.6339771e-02
-9.9334898e-02
-1.5162242e-01
-1.8980535e-01
-1.9638664e-01
-1.6826821e-01
-1.1993814e-01
-7.7473027e-02
-4.3738834e-02
-2.9162172e-02
-4.0520804e-02
-5.9070432e-02
-8.7164176e-02
-1.1312101e-01
-1.0701406e-01
-6.0038498e-02
1.1867731e-02
8.3909810e-02
1.5065401e-01
1.9388294e-01
2.0577462e-01
2.0739304e-01
1.8688379e-01
1.4123179e-01
9.9835520e-02
8.2980342e-02
8.8421534e-02
9.6560224e-02
1.0097436e-01
8.4117899e-02
3.7097531e-02
-1.0210912e-02
-4.6410264e-02
-6.6026834e-02
-5.9298748e-02
-3.6110308e-02
-2.7235541e-02
-5.9956990e-02
-1.1307554e-01
-1.5030240e-01
-1.5859985e-01
-1.5793506e-01
-1.7677642e-01
-1.9711459e-01
-1.9124698e-01
-1.5267954e-01
-8.9404766e-02
-1.7345751e-02
5.7541607e-02
1.1485740e-01
1.4512910e-01
1.5466968e-01
1.3083955e-01
9.2988950e-02
8.5042054e-02
1.2554888e-01
1.8604989e-01
2.2677974e-01
2.5144633e-01
2.4471671e-01
1.8838069e-01
1.0510220e-01
6.3647150e-03
-9.5304324e-02
-1.7699025e-01
-2.2188701e-01
-2.3231564e-01
-2.2301971e-01
-1.9661650e-01
-1.6663821e-01
-1.4049685e-01
-1.1599405e-01
-1.0555606e-01
-9.8226618e-02
-7.1124022e-02
-1.7011780e-02
3.7363961e-02
6.3202916e-02
7.2079344e-02
5.9250922e-02
3.0726584e-02
1.1170410e-03
-4.5628272e-02
-9.4494180e-02
-1.1757546e-01
-1.0772992e-01
-8.7818312e-02
-8.7194382e-02
-9.0029330e-02
-7.8311434e-02
-4.3527465e-02
3.7677642e-03
3.1988119e-02
4.8284986e-02
8.0992479e-02
1.4704595e-01
2.2232426e-01
2.7588698e-01
3.1260789e-01
3.0824763e-01
2.4300690e-01
1.4273460e-01
4.0811808e-02
-3.0047820e-02
-5.2955919e-02
-2.6749482e-02
2.8027495e-02
8.5148267e-02
1.3555248e-01
1.6188810e-01
1.6645341e-01
1.6005907e-01
1.2178416e-01
4.1423312e-02
-5.8266455e-02
-1.4274181e-01
-1.9462169e-01
-2.1394341e-01
-2.0322828e-01
-1.6924389e-01
-1.1527605e-01
-6.5168235e-02
-5.0364278e-02
-5.7211752e-02
-6.0260893e-02
-5.4379065e-02
-6.0899411e-02
-9.8010273e-02
-1.4320671e-01
-1.7069424e-01
-1.7031461e-01
-1.6122874e-01
-1.7153797e-01
-1.8625173e-01
-1.8675907e-01
-1.7503181e-01
-1.7313425e-01
-2.0590273e-01
-2.5099225e-01
-2.7445250e-01
-2.6598339e-01
-2.2644549e-01
-1.5826656e-01
-5.7791327e-02
7.6864140e-02
2.3674028e-01
3.9175810e-01
5.2803540e-01
6.5071193e-01
7.4033389e-01
7.8804289e-01
7.9540942e-01
7.6398849e-01
7.0210720e-01
6.1373167e-01
5.1403547e-01
4.0280839e-01
2.7247057e-01
1.3494823e-01
2.5492448e-03
-1.0446556e-01
-1.8029613e-01
-2.3898110e-01
-2.8862400e-01
-3.3187430e-01
-3.6204051e-01
-3.8235406e-01
-3.9922100e-01
-4.0666291e-01
-4.0322206e-01
-3.8729353e-01
-3.5987759e-01
-3.2516308e-01
-2.8589062e-01
-2.4789067e-01
-2.1784239e-01
-1.9985486e-01
-1.8728960e-01
-1.7452274e-01
-1.6502588e-01
-1.6050920e-01
-1.6046679e-01
-1.6136327e-01
-1.5870097e-01
-1.5139703e-01
-1.4194779e-01
-1.3384859e-01
-1.2514172e-01
-1.1257423e-01
-9.6361216e-02
-7.8644316e-02
-5.5993880e-02
-1.4831291e-02
5.1058589e-02
1.3669421e-01
2.3389366e-01
3.3136482e-01
4.2136873e-01
4.8914506e-01
5.1968920e-01
5.0989768e-01
4.6588826e-01
4.0307670e-01
3.1847275e-01
2.0885173e-01
8.6144994e-02
-4.0830713e-02
-1.5347820e-01
-2.3773719e-01
-2.9384168e-01
-3.2365124e-01
-3.2960067e-01
-3.1312450e-01
-2.7811298e-01
-2.2927190e-01
-1.6937645e-01
-1.0009813e-01
-2.1300661e-02
5.7088296e-02
1.3004684e-01
1.9757938e-01
2.4756540e-01
2.7620065e-01
2.7281685e-01
2.2081758e-01
1.2767926e-01
2.0228560e-02
-7.0014199e-02
-1.2890523e-01
-1.5631839e-01
-1.5051806e-01
-1.1914516e-01
-7.6441626e-02
-2.9308331e-02
1.6165344e-02
5.1973371e-02
7.9602442e-02
1.0239272e-01
1.0347013e-01
7.5898661e-02
3.9868258e-02
5.8418921e-03
-3.0873687e-02
-7.9949081e-02
-1.3703697e-01
-1.8214309e-01
-1.9800278e-01
-1.7284184e-01
-1.1005485e-01
-1.8458116e-02
9.3158175e-02
2.0882307e-01
3.0704795e-01
3.5052846e-01
3.1035790e-01
1.9476472e-01
4.8194240e-02
-7.8709033e-02
-1.7390389e-01
-2.3915166e-01
-2.7564878e-01
-2.9563352e-01
-2.9708143e-01
-2.7619501e-01
-2.3997684e-01
-2.0008336e-01
-1.6007680e-01
-1.0397227e-01
-2.5010424e-02
7.6999270e-02
1.9960906e-01
3.2605844e-01
4.3661027e-01
5.0588848e-01
5.1816222e-01
4.6859457e-01
3.6486391e-01
2.3282830e-01
8.5413455e-02
-5.6487762e-02
-1.6550195e-01
-2.3937877e-01
-2.7945448e-01
-2.8974689e-01
-2.8305308e-01
-2.6936526e-01
-2.4570709e-01
-1.9690497e-01
-1.3089100e-01
-6.8463481e-02
-2.1798052e-02
1.2339969e-03
1.9221670e-02
4.5240790e-02
6.3237838e-02
4.4068999e-02
-1.3961117e-02
-7.4267579e-02
-1.2461381e-01
-1.5941140e-01
-1.6497771e-01
-1.4506961e-01
-1.0709177e-01
-6.3217620e-02
-2.5375069e-02
-6.4150283e-03
-3.0510022e-03
8.9328453e-03
2.9763267e-02
6.2298812e-02
9.8765564e-02
1.1564665e-01
1.3611456e-01
1.7692920e-01
2.1465814e-01
2.2425506e-01
2.1292071e-01
2.0264473e-01
1.8807895e-01
1.8055776e-01
1.8189792e-01
1.6477912e-01
1.4307474e-01
1.3278328e-01
1.2305613e-01
9.5996563e-02
5.3539084e-02
1.8737057e-02
-6.6210209e-03
-1.7008909e-02
-1.6939985e-02
-2.7466357e-02
-4.4615762e-02
-6.8827800e-02
-1.0677882e-01
-1.5808801e-01
-2.1303083e-01
-2.4733229e-01
-2.5482752e-01
-2.4289234e-01
-2.2111398e-01
-1.9328646e-01
-1.5003443e-01
-9.6826281e-02
-4.6782659e-02
-1.6800756e-02
-1.2542886e-02
-1.3679932e-02
-1.3924892e-02
-1.6172337e-02
-3.1820376e-02
-6.8242525e-02
-1.0222318e-01
-1.2111265e-01
-1.2744683e-01
-1.2528502e-01
-1.1556422e-01
-9.6420754e-02
-7.7616716e-02
-6.1310910e-02
-5.6799678e-02
-7.0537371e-02
-7.5858577e-02
-5.8646822e-02
-2.6101918e-02
2.2576446e-03
1.9842528e-02
4.1362383e-02
6.9376635e-02
1.0420937e-01
1.2377462e-01
1.1641131e-01
1.1139996e-01
1.2105620e-01
1.4203781e-01
1.5774377e-01
1.6136414e-01
1.6094449e-01
1.5784224e-01
1.6876713e-01
1.7420298e-01
1.5325249e-01
1.3466218e-01
1.2104632e-01
8.3370533e-02
1.2458000e-02
-5.6749743e-02
-8.4038038e-02
-6.2922051e-02
-1.1039148e-02
2.9704456e-02
4.4927848e-02
5.9286148e-02
6.9562720e-02
5.3339388e-02
3.8206809e-03
-4.9512180e-02
-7.7900492e-02
-8.0333588e-02
-5.5319942e-02
-2.8142554e-02
-2.0806554e-02
-2.4655776e-02
-4.1921190e-02
-7.3785877e-02
-1.0019898e-01
-8.8470226e-02
-4.5770085e-02
-4.6250908e-03
3.3619392e-02
5.4030549e-02
4.9677141e-02
4.0813379e-02
2.6503243e-02
1.6440184e-03
-2.9587552e-02
-4.3833966e-02
-3.5142673e-02
-2.0524690e-02
6.5027536e-03
2.5496441e-02
2.6615826e-02
3.5987428e-02
4.7282184e-02
4.7692461e-02
3.7119899e-02
3.5292617e-02
4.6147363e-02
4.9794327e-02
5.3737853e-02
4.5531086e-02
1.6203781e-02
-2.6774234e-03
4.3481942e-03
2.4414703e-02
4.4741172e-02
8.1051402e-02
1.3865480e-01
1.9664623e-01
2.3682265e-01
2.3121740e-01
1.7855115e-01
9.8723671e-02
-4.4182266e-03
-1.1332336e-01
-1.9981698e-01
-2.4145902e-01
-2.4688680e-01
-2.3685395e-01
-2.2287195e-01
-2.2785630e-01
-2.4398287e-01
-2.5026203e-01
-2.4096704e-01
-2.0354761e-01
-1.3248484e-01
-3.0794513e-02
7.4958616e-02
1.5687172e-01
2.0561351e-01
2.0399340e-01
1.6519171e-01
1.0948956e-01
3.7845998e-02
-3.6576108e-02
-9.8444843e-02
-1.2713054e-01
-1.3210072e-01
-1.3678483e-01
-1.4492177e-01
-1.7431310e-01
-2.1220017e-01
-2.2491507e-01
-2.1024997e-01
-1.7309963e-01
-1.0986347e-01
-8.4843859e-03
1.0939651e-01
2.0605269e-01
2.7326250e-01
3.1647998e-01
3.4600920e-01
3.4476387e-01
3.0377299e-01
2.3872498e-01
1.6056166e-01
9.7091602e-02
5.7240031e-02
3.0603524e-02
1.4800033e-02
-9.9604632e-04
-2.2472121e-02
-4.9546191e-02
-7.0605895e-02
-6.8252696e-02
-3.1673126e-02
3.1867332e-02
8.0447842e-02
1.0355641e-01
1.1211076e-01
9.6329043e-02
5.9003214e-02
1.6270101e-03
-5.6790065e-02
-8.8862292e-02
-8.7910966e-02
-5.3289304e-02
-1.8948530e-02
-6.7555419e-03
-6.8077362e-03
-2.6356226e-02
-6.2329869e-02
-1.0451649e-01
-1.3959335e-01
-1.4853655e-01
-1.2387748e-01
-6.6762941e-02
-1.0842789e-02
1.4996005e-02
1.0090479e-02
-2.0101057e-02
-5.8915947e-02
-1.0624113e-01
-1.4749720e-01
-1.5242806e-01
-1.1320657e-01
-3.7464582e-02
3.6334153e-02
8.1509408e-02
9.3946899e-02
7.5605004e-02
4.6484453e-02
5.3782407e-03
-3.8560642e-02
-5.5347895e-02
-3.0869631e-02
3.4335768e-02
1.1004141e-01
1.7056507e-01
2.0093024e-01
1.9907326e-01
1.8370523e-01
1.3657392e-01
5.2263212e-02
-2.6762901e-02
-6.9085494e-02
-7.4332088e-02
-6.2169020e-02
-3.3934799e-02
-2.9232002e-03
1.2593037e-02
2.2788407e-02
9.4972359e-03
-3.0355428e-02
-6.3796229e-02
-7.2917029e-02
-5.7255376e-02
-4.0825724e-02
-2.7964993e-02
-1.8282531e-02
-2.3457188e-02
-3.6593392e-02
-7.7005907e-02
-1.4301185e-01
-1.8969657e-01
-1.9343179e-01
-1.5624909e-01
-9.6453470e-02
-2.5719311e-02
3.6225225e-02
7.8360422e-02
1.0921460e-01
1.0394145e-01
6.5951011e-02
3.7333010e-02
3.9537147e-02
6.4177410e-02
8.2896099e-02
9.4992649e-02
8.9228318e-02
5.6981474e-02
2.4530894e-02
-9.9455069e-03
-4.2102191e-02
-4.9052938e-02
-2.3557277e-02
1.2960869e-02
2.3674019e-02
1.8406952e-02
1.6720901e-02
2.1641255e-02
2.9564254e-02
1.3710374e-02
-1.3162796e-02
-1.1426116e-02
2.9907441e-02
8.3517533e-02
1.1809815e-01
1.5119903e-01
1.8016377e-01
1.9270253e-01
1.9860511e-01
1.7388337e-01
1.1703922e-01
6.7799945e-02
5.2543402e-02
5.5071440e-02
4.5797298e-02
3.2487810e-02
9.2324660e-03
-3.2718786e-02
-8.1713805e-02
-1.4632139e-01
-2.1754708e-01
-2.6901434e-01
-2.8945716e-01
-2.8565470e-01
-2.6903965e-01
-2.4089103e-01
-2.1311815e-01
-1.9074822e-01
-1.6720096e-01
-1.4349038e-01
-1.0868102e-01
-5.0017577e-02
3.3023972e-02
1.2427840e-01
2.0411213e-01
2.6656871e-01
2.9228516e-01
2.8020572e-01
2.4438846e-01
1.7749815e-01
9.6311943e-02
2.7651652e-02
-1.7703585e-02
-4.8655797e-02
-8.0980054e-02
-9.7978321e-02
-8.8965523e-02
-6.1282583e-02
-3.1751753e-02
-2.7330894e-02
-4.0532190e-02
-4.4189724e-02
-2.3467852e-02
-1.5755330e-03
-4.8178985e-03
-1.2611387e-02
-2.7504172e-02
-6.2083845e-02
-1.0375440e-01
-1.5148328e-01
-1.9554193e-01
-2.1843415e-01
-2.1416463e-01
-1.8996388e-01
-1.5673421e-01
-1.1615477e-01
-7.3745629e-02
-2.3227568e-02
2.8776518e-02
4.9940408e-02
4.6846726e-02
5.1950122e-02
8.6049272e-02
1.3064993e-01
1.5926125e-01
1.7930141e-01
1.7552476e-01
1.4856943e-01
1.1667668e-01
6.6761968e-02
1.3607737e-02
-8.5905693e-03
1.8272596e-02
7.4553609e-02
1.3206289e-01
1.9257182e-01
2.3921368e-01
2.6389531e-01
2.7314184e-01
2.5535141e-01
2.1250632e-01
1.6646542e-01
1.4796249e-01
1.4386592e-01
1.2177342e-01
8.8910223e-02
4.1614233e-02
-1.4480761e-02
-6.8185890e-02
-1.2924803e-01
-1.8535842e-01
-2.2103128e-01
-2.2930770e-01
-2.2282520e-01
-2.1967382e-01
-2.1300696e-01
-2.0334524e-01
-1.8580470e-01
-1.5995172e-01
-1.3881374e-01
-1.1384387e-01
-7.8087978e-02
-3.2616567e-02
3.1935411e-03
1.2635196e-02
1.6464869e-02
2.4575118e-02
3.9181494e-02
5.2198590e-02
4.6447745e-02
3.5581615e-02
3.7326719e-02
6.0219747e-02
8.0801298e-02
7.1112407e-02
4.5842614e-02
1.7405313e-02
-1.1804384e-03
-9.9759896e-03
-2.3052372e-02
-2.9537942e-02
-1.7724590e-02
1.5120538e-02
4.0092872e-02
3.1581984e-02
6.3602149e-03
-2.5301703e-02
-5.0561950e-02
-6.3246825e-02
-6.8136051e-02
-6.0514802e-02
-4.5458534e-02
-3.2009534e-02
-3.2496172e-02
-4.5910957e-02
-5.6825887e-02
-6.1777582e-02
-5.6343188e-02
-4.6393819e-02
-4.2713259e-02
-3.2826045e-02
-5.1399947e-03
3.5403326e-02
6.1168125e-02
5.7956514e-02
4.3030997e-02
2.3575687e-02
1.1513272e-02
8.8701020e-03
3.5438116e-03
-9.3052553e-03
-3.5074095e-02
-6.1539043e-02
-8.1992858e-02
-9.9134819e-02
-1.0877888e-01
-1.1160302e-01
-1.0044665e-01
-7.6000852e-02
-4.6297257e-02
-6.9468355e-03
4.2200294e-02
8.5863739e-02
1.0441267e-01
1.0675604e-01
1.0194336e-01
8.4422936e-02
7.5291766e-02
8.3425186e-02
1.0120577e-01
1.3437076e-01
1.8109525e-01
2.2502129e-01
2.3378057e-01
2.0044945e-01
1.4910853e-01
9.3021435e-02
5.0195559e-02
2.5636476e-02
1.0110459e-02
2.9041485e-03
-6.0490588e-03
-3.8656426e-02
-1.0324838e-01
-1.7772597e-01
-2.4097413e-01
-2.8804897e-01
-3.1907886e-01
-3.3560931e-01
-3.3537971e-01
-3.1627100e-01
-2.8180267e-01
-2.4362824e-01
-2.1723598e-01
-2.0471187e-01
-1.9482860e-01
-1.7482977e-01
-1.3638966e-01
-7.3211302e-02
2.4376592e-02
1.5167201e-01
2.8970207e-01
4.1230719e-01
4.8677970e-01
4.9619249e-01
4.4244871e-01
3.4887376e-01
2.4606228e-01
1.5075713e-01
8.2508761e-02
4.6085539e-02
2.5223497e-02
1.1497253e-02
6.1260172e-03
1.4814302e-02
2.1153427e-02
6.6714001e-03
-1.3539759e-02
-3.5391085e-02
-6.6012256e-02
-1.0000174e-01
-1.2449251e-01
-1.2122320e-01
-8.5967974e-02
-4.4281943e-02
-3.3700066e-02
-4.6183939e-02
-3.7976619e-02
5.3069320e-03
7.4051686e-02
1.4963261e-01
2.0038462e-01
2.0392435e-01
1.6755122e-01
1.1805331e-01
6.8038889e-02
1.9740232e-02
-9.3463229e-03
-1.1350164e-02
1.2028147e-03
1.3002191e-02
1.2850918e-02
-8.0814805e-03
-4.3812193e-02
-6.6594923e-02
-7.6664258e-02
-8.6339126e-02
-8.6330912e-02
-7.9289587e-02
-7.1639043e-02
-6.5192694e-02
-6.6896768e-02
-9.2412542e-02
-1.4039537e-01
-1.8211458e-01
-2.0484102e-01
-2.0516951e-01
-1.7699297e-01
-1.2556843e-01
-6.2395018e-02
-3.1593849e-03
3.8727303e-02
4.8532981e-02
3.2264598e-02
1.9172555e-02
1.0941326e-02
1.1823142e-02
4.6242174e-02
1.1557015e-01
2.0242327e-01
2.8410897e-01
3.3392517e-01
3.2706114e-01
2.6998983e-01
2.0369472e-01
1.3601493e-01
6.2624698e-02
6.3629016e-03
-2.7284434e-02
-4.9369940e-02
-7.5447682e-02
-1.1045629e-01
-1.4352732e-01
-1.6394767e-01
-1.6401388e-01
-1.5505819e-01
-1.4924173e-01
-1.4257985e-01
-1.3118063e-01
-1.1208456e-01
-8.9215616e-02
-7.3080104e-02
-8.2527966e-02
-1.1882358e-01
-1.5061700e-01
-1.6948671e-01
-1.7897255e-01
-1.6929340e-01
-1.4062651e-01
-9.5139753e-02
-3.8965982e-02
1.8073402e-02
6.6638030e-02
1.0702476e-01
1.5301962e-01
1.9767639e-01
2.3876740e-01
2.7488505e-01
2.8966152e-01
2.8605181e-01
2.5324406e-01
1.8713632e-01
1.1010219e-01
3.9505429e-02
-4.1614812e-03
-1.6204991e-02
-2.0528241e-03
2.5574557e-02
4.6191314e-02
6.3740123e-02
7.7714843e-02
7.4112113e-02
3.6921033e-02
-3.1644066e-02
-9.3361027e-02
-1.2758116e-01
-1.3119408e-01
-1.1361087e-01
-9.6433658e-02
-7.2688631e-02
-3.6390979e-02
-1.5195458e-03
9.8366396e-03
-8.1152924e-03
-2.8117621e-02
-3.8817185e-02
-4.7413280e-02
-6.8625757e-02
-1.1209025e-01
-1.5702144e-01
-1.8881839e-01
-2.0851152e-01
-2.2215341e-01
-2.3254889e-01
-2.3384277e-01
-2.2557956e-01
-2.0201606e-01
-1.6558646e-01
-1.2586431e-01
-7.5145258e-02
-1.0279082e-02
5.8973482e-02
1.1203545e-01
1.4691955e-01
1.8047359e-01
2.1415718e-01
2.5766802e-01
2.9199203e-01
2.9120105e-01
2.7744064e-01
2.5847324e-01
2.1684678e-01
1.3488155e-01
2.7784289e-02
-7.0063105e-02
-1.4770928e-01
-1.8787683e-01
-2.0432215e-01
-2.2685963e-01
-2.3247968e-01
-2.0385392e-01
-1.5253072e-01
-9.6779443e-02
-4.1580034e-02
1.0035781e-02
4.7250067e-02
9.2689626e-02
1.3670486e-01
1.4951598e-01
1.5579138e-01
1.6975071e-01
1.7794630e-01
1.5780962e-01
1.1328324e-01
7.9453013e-02
6.9591229e-02
8.7136195e-02
1.0492980e-01
1.0217330e-01
1.0818056e-01
1.3576234e-01
1.7240574e-01
1.8901201e-01
1.7938675e-01
1.5940832e-01
1.2868754e-01
9.3326141e-02
3.3549833e-02
-5.8146363e-02
-1.4299753e-01
-2.0081537e-01
-2.3778050e-01
-2.6052112e-01
-2.6377119e-01
-2.4812667e-01
-2.2890059e-01
-2.1852135e-01
-2.1895572e-01
-2.2155780e-01
-2.1957010e-01
-2.1110616e-01
-1.9129063e-01
-1.5842370e-01
-1.0628138e-01
-3.9368378e-02
2.7038415e-02
8.6716580e-02
1.1354893e-01
1.0307854e-01
9.6644054e-02
1.0990950e-01
1.2879879e-01
1.4836035e-01
1.8623439e-01
2.3684283e-01
2.7113836e-01
2.8378958e-01
2.5327920e-01
1.7702951e-01
1.0230094e-01
4.9705093e-02
3.0522766e-03
-5.4509830e-02
-1.1540692e-01
-1.6463215e-01
-1.9778470e-01
-2.0669782e-01
-2.0528805e-01
-2.1322015e-01
-2.1634903e-01
-1.9845231e-01
-1.5247294e-01
-7.5223448e-02
2.9378869e-02
1.3335331e-01
2.0613493e-01
2.4861476e-01
2.5353940e-01
2.2536064e-01
1.8438931e-01
1.3366170e-01
7.7619107e-02
2.6932841e-02
6.8543922e-04
-8.9444591e-03
-2.2358069e-02
-3.8495843e-02
-5.5934280e-02
-6.6083813e-02
-8.1769389e-02
-1.1407313e-01
-1.3942195e-01
-1.4228936e-01
-1.1597119e-01
-7.6859445e-02
-5.0728833e-02
-4.5974103e-02
-6.2574080e-02
-8.1498550e-02
-9.3260041e-02
-9.1270584e-02
-6.5403740e-02
-1.6227807e-02
6.3542600e-02
1.5322117e-01
2.1991396e-01
2.5338774e-01
2.3339260e-01
1.5240872e-01
3.9668408e-02
-6.1812383e-02
-1.3025073e-01
-1.6697609e-01
-1.7310344e-01
-1.6917766e-01
-1.7373175e-01
-1.8091479e-01
-1.8842018e-01
-1.9317093e-01
-1.9689937e-01
-1.9510326e-01
-1.7179132e-01
-1.2388756e-01
-4.8369717e-02
3.7129089e-02
1.0507130e-01
1.4291187e-01
1.5214183e-01
1.4982579e-01
1.2995444e-01
9.9982496e-02
8.7976622e-02
1.0144402e-01
1.3140625e-01
1.3982293e-01
1.1850826e-01
8.6838385e-02
5.1845673e-02
2.4013168e-02
-2.2756914e-02
-9.0589027e-02
-1.2744348e-01
-1.0547384e-01
-4.1237651e-02
2.2398272e-02
7.3136058e-02
1.1183058e-01
1.3043273e-01
1.3637926e-01
1.2115995e-01
8.9225484e-02
7.1226863e-02
8.7530269e-02
1.3503769e-01
1.8086187e-01
2.1672607e-01
2.4790461e-01
2.6452645e-01
2.6395401e-01
2.2648592e-01
1.5351607e-01
8.1503070e-02
3.5019970e-02
5.8092381e-03
-4.0997365e-02
-1.0033044e-01
-1.4683468e-01
-1.7226860e-01
-1.8236482e-01
-2.1616716e-01
-2.7918285e-01
-3.3135988e-01
-3.4629394e-01
-3.1797023e-01
-2.5644490e-01
-1.7565316e-01
-1.0801126e-01
-7.1046360e-02
-5.0664889e-02
-4.9462684e-02
-4.7218926e-02
-1.1926905e-02
6.0551761e-02
1.5170172e-01
2.3130526e-01
2.8712951e-01
2.9885838e-01
2.7064930e-01
2.3335491e-01
1.7797078e-01
1.0866998e-01
5.0565080e-02
1.1893600e-02
-1.5610364e-02
-4.3468945e-02
-5.6255034e-02
-5.9962726e-02
-7.0874001e-02
-8.6565315e-02
-1.2289055e-01
-1.6639082e-01
-1.8007630e-01
-1.5475765e-01
-1.1661894e-01
-9.6702861e-02
-9.1354192e-02
-1.1178181e-01
-1.6553442e-01
-2.1848711e-01
-2.5022516e-01
-2.5546584e-01
-2.2703223e-01
-1.5887244e-01
-6.4071671e-02
3.0938126e-02
1.1417358e-01
1.7002001e-01
2.0921928e-01
2.4894529e-01
2.5715874e-01
2.2569100e-01
1.8869793e-01
1.6893150e-01
1.5010468e-01
1.1693067e-01
1.0653831e-01
1.3135732e-01
1.7371892e-01
2.1926986e-01
2.3045269e-01
1.9489336e-01
1.4005942e-01
1.0089321e-01
7.6018592e-02
4.3601105e-02
1.7542659e-02
-1.1195824e-04
-1.3729575e-02
-2.5685153e-02
-6.2461317e-02
-1.2133830e-01
-1.7185897e-01
-1.9233156e-01
-1.9180827e-01
-1.8855274e-01
-1.7337224e-01
-1.5133310e-01
-1.3061863e-01
-1.1973112e-01
-1.4045925e-01
-1.7398097e-01
-1.8628474e-01
-1.6372698e-01
-1.3340063e-01
-1.2981026e-01
-1.3460279e-01
-1.3194252e-01
-1.1650950e-01
-8.8422722e-02
-6.5370107e-02
-5.2539335e-02
-4.8362191e-02
-4.0187268e-02
-3.0718116e-02
-3.5186159e-02
-4.1350692e-02
-3.6789565e-02
-2.8028677e-03
5.3644333e-02
8.8641237e-02
9.5295136e-02
1.0006367e-01
1.3273921e-01
1.8186476e-01
2.2137524e-01
2.5457356e-01
2.6570304e-01
2.5836152e-01
2.4376619e-01
2.0674493e-01
1.5132344e-01
9.2998199e-02
5.2517186e-02
1.9073450e-02
-2.5737533e-02
-6.4141102e-02
-9.0427356e-02
-9.3710356e-02
-7.6430851e-02
-6.0229062e-02
-4.5338378e-02
-3.3917472e-02
-1.7837681e-02
-2.9555530e-03
-1.4717251e-03
1.2931378e-03
1.3930868e-02
5.0236279e-02
1.0525403e-01
1.5466416e-01
1.8828798e-01
2.0417556e-01
2.0599364e-01
1.7668141e-01
1.1698850e-01
4.7145759e-02
-2.9750771e-02
-8.9080522e-02
-1.2290196e-01
-1.4993336e-01
-1.6878305e-01
-1.7192760e-01
-1.5372873e-01
-1.3360024e-01
-1.3343663e-01
-1.4145931e-01
-1.4651087e-01
-1.3527438e-01
-1.0934214e-01
-8.7931369e-02
-7.0020198e-02
-4.6016235e-02
-4.6555411e-03
3.4436390e-02
4.6542683e-02
4.2980348e-02
3.2873982e-02
3.1079980e-02
4.2400324e-02
5.5087998e-02
6.6131132e-02
7.6160782e-02
8.1512929e-02
6.8155340e-02
4.2757878e-02
2.5428266e-02
1.9507922e-02
2.5523471e-02
3.5251650e-02
3.8443914e-02
3.5381138e-02
2.7872688e-02
1.8462987e-02
2.6031256e-03
-1.6745119e-02
-3.4563349e-02
-5.2319630e-02
-5.9789535e-02
-5.2325736e-02
-2.8740498e-02
7.8710764e-03
4.4690110e-02
7.5139039e-02
9.0356982e-02
9.4047168e-02
9.0676270e-02
7.4686226e-02
5.6511350e-02
4.0558116e-02
2.1589170e-02
-2.0803855e-03
-2.9997170e-02
-6.1492755e-02
-9.6186497e-02
-1.2123338e-01
-1.3466362e-01
-1.4835655e-01
-1.5503611e-01
-1.4898098e-01
-1.3393753e-01
-1.1743703e-01
-1.0921234e-01
-1.1732722e-01
-1.4534056e-01
-1.6906078e-01
-1.7506221e-01
-1.7154395e-01
-1.5292159e-01
-1.1997756e-01
-7.8990397e-02
-3.2871978e-02
1.4874275e-02
5.3605048e-02
7.5909196e-02
1.0377436e-01
1.3865062e-01
1.6517639e-01
1.9870216e-01
2.4353800e-01
2.8646229e-01
3.1171197e-01
3.0827277e-01
2.6744870e-01
1.9156356e-01
1.2427032e-01
8.2584883e-02
4.9660382e-02
3.3524141e-02
3.7470175e-02
5.3062905e-02
7.0974170e-02
8.1955132e-02
6.6691958e-02
1.3591641e-02
-4.3448551e-02
-8.8002167e-02
-1.3187041e-01
-1.7032686e-01
-2.0217068e-01
-2.2538424e-01
-2.3802387e-01
-2.4519561e-01
-2.4827062e-01
-2.4443351e-01
-2.2975612e-01
-2.1007076e-01
-1.9254595e-01
-1.7771207e-01
-1.6386754e-01
-1.4459470e-01
-1.1827261e-01
-8.7878795e-02
-7.0534582e-02
-7.5919647e-02
-7.7892771e-02
-6.3830443e-02
-3.4701822e-02
1.5201375e-02
8.3537304e-02
1.6324380e-01
2.3132756e-01
2.6729548e-01
2.6729110e-01
2.4297797e-01
2.1934829e-01
1.8988716e-01
1.5546858e-01
1.4820426e-01
1.7179448e-01
2.0989507e-01
2.3991921e-01
2.4048293e-01
1.9825001e-01
1.2602528e-01
6.7555278e-02
1.6454793e-02
-4.8142469e-02
-9.6451168e-02
-1.1701444e-01
-1.2062155e-01
-1.1628148e-01
-1.1652153e-01
-1.3563028e-01
-1.6971434e-01
-1.8738957e-01
-1.8609344e-01
-1.7371394e-01
-1.4775067e-01
-1.1831975e-01
-8.0978414e-02
-3.8497911e-02
-9.4293710e-03
-7.0084904e-03
-2.3964301e-02
-2.7647827e-02
-1.0811644e-02
1.8101871e-02
4.4066538e-02
5.0779823e-02
6.1487212e-02
8.5960610e-02
1.0572002e-01
1.0055041e-01
7.1322594e-02
4.7088139e-02
3.1269031e-02
3.2933155e-02
5.0426803e-02
5.5565460e-02
6.6719466e-02
1.0066475e-01
1.4493002e-01
1.7442811e-01
1.7718065e-01
1.7041386e-01
1.4711656e-01
1.1206010e-01
6.7708874e-02
-2.7918411e-03
-6.9296201e-02
-1.0856613e-01
-1.2980592e-01
-1.5193545e-01
-1.8223057e-01
-2.0308875e-01
-2.1406006e-01
-2.1015174e-01
-2.0045655e-01
-2.0891525e-01
-2.1150399e-01
-1.9108086e-01
-1.5780176e-01
-1.2453771e-01
-9.4164900e-02
-5.1279126e-02
6.3229795e-03
8.2160271e-02
1.5767858e-01
2.0309334e-01
2.3211443e-01
2.5096250e-01
2.4346358e-01
1.9232271e-01
1.1010064e-01
4.3276766e-02
1.0519969e-02
3.0362231e-03
-8.0190855e-03
-3.5427708e-02
-4.7304154e-02
-3.3487726e-02
-1.4744342e-02
-2.1667994e-02
-5.5521588e-02
-9.2989711e-02
-1.3053849e-01
-1.4093809e-01
-1.1728741e-01
-8.2217271e-02
-2.6468468e-02
4.6672314e-02
1.0659668e-01
1.1983997e-01
9.3520821e-02
5.8260324e-02
2.2744237e-02
5.2576818e-03
-4.9723614e-03
-3.0656628e-02
-5.0429490e-02
-5.2515862e-02
-3.9764274e-02
-2.5345088e-02
-1.6496628e-02
-9.3100417e-03
-7.7060424e-03
1.1574628e-02
4.3859502e-02
6.3490895e-02
8.7755099e-02
1.2176314e-01
1.4028978e-01
1.2119282e-01
8.7101980e-02
6.2376354e-02
4.1200101e-02
3.6563489e-02
3.1488342e-02
3.4349819e-03
-1.8543006e-02
-1.5357523e-02
-8.3651085e-04
-5.6717113e-03
-3.4268558e-02
-6.1293675e-02
-7.7195275e-02
-7.3923664e-02
-5.4581807e-02
-3.2131706e-02
-6.3874876e-03
1.4598913e-02
1.5105028e-02
-1.2355101e-02
-4.5142380e-02
-6.1056200e-02
-6.2660437e-02
-4.3873562e-02
-2.7559712e-02
-3.4298905e-02
-3.3187662e-02
-7.9408001e-03
2.5938341e-02
4.5944122e-02
5.6287339e-02
6.8530951e-02
7.7639814e-02
8.7823342e-02
8.4225502e-02
5.7765199e-02
3.3535838e-02
2.7646770e-02
3.4534511e-02
4.0124890e-02
4.6332037e-02
6.1291737e-02
8.1934520e-02
1.0347890e-01
1.0817282e-01
9.3541268e-02
8.1440312e-02
7.2184838e-02
4.9212917e-02
7.2002863e-03
-3.4937651e-02
-6.8373970e-02
-9.4307374e-02
-9.8553765e-02
-8.1041103e-02
-4.5191573e-02
-4.0015173e-04
2.9494019e-02
2.9879679e-02
2.1254293e-03
-2.7684560e-02
-4.7966093e-02
-6.9718430e-02
-8.9649011e-02
-1.0467421e-01
-1.1007515e-01
-1.0289687e-01
-8.5381793e-02
-5.7798444e-02
-2.3511545e-02
2.3560917e-02
6.5249593e-02
7.6514129e-02
6.6098606e-02
3.9403817e-02
7.0084588e-03
-2.3325248e-02
-5.2093875e-02
-6.7354028e-02
-5.8219271e-02
-1.6322820e-02
3.4968151e-02
6.9866744e-02
8.5834229e-02
7.6362379e-02
5.3583500e-02
1.9569546e-02
-2.8241868e-02
-7.1659858e-02
-9.6281876e-02
-8.7362804e-02
-6.1093354e-02
-4.6308764e-02
-5.0439574e-02
-7.4888530e-02
-9.4761246e-02
-9.9307329e-02
-9.5150809e-02
-7.0027951e-02
-1.8671980e-02
5.5197650e-02
1.1813818e-01
1.4498808e-01
1.4600546e-01
1.1395305e-01
5.0135067e-02
-2.5758578e-02
-9.2600806e-02
-1.3264518e-01
-1.4027167e-01
-1.1534511e-01
-7.3279682e-02
-3.2073483e-02
-5.3774360e-03
7.0024162e-03
1.9486312e-02
2.1951621e-02
1.6926163e-02
2.0523953e-02
3.2117492e-02
5.7431931e-02
8.1468387e-02
8.9295694e-02
7.7128207e-02
3.9412315e-02
-7.9150124e-03
-6.1738886e-02
-1.1723981e-01
-1.5540944e-01
-1.6829866e-01
-1.4862663e-01
-1.1091926e-01
-7.6422673e-02
-5.9642067e-02
-6.3487789e-02
-7.3094660e-02
-9.5873311e-02
-1.2266002e-01
-1.1752544e-01
-6.3128974e-02
3.2324515e-02
1.2196620e-01
1.7584454e-01
1.9699665e-01
1.8485647e-01
1.4844657e-01
9.5537338e-02
5.1246298e-02
4.3682926e-02
7.6058204e-02
1.3917157e-01
1.9183039e-01
2.1081372e-01
2.0375238e-01
1.8003561e-01
1.5625151e-01
1.2129095e-01
7.8100721e-02
5.7487265e-02
7.4280383e-02
1.1451146e-01
1.2740865e-01
9.5972769e-02
4.2833096e-02
-1.4627898e-02
-5.9034442e-02
-9.3355609e-02
-1.1667246e-01
-1.1735011e-01
-9.2365250e-02
-4.5846068e-02
-3.4217878e-03
2.4130746e-02
2.9334655e-02
4.6024272e-03
-3.4192828e-02
-9.4601081e-02
-1.6670976e-01
-2.1374478e-01
-2.2270920e-01
-1.9910829e-01
-1.6408913e-01
-1.2543924e-01
-9.6418721e-02
-9.2135913e-02
-1.0082697e-01
-1.2603519e-01
-1.5293352e-01
-1.4784942e-01
-1.0377922e-01
-4.2310769e-02
5.5389116e-03
4.8157345e-02
8.2552344e-02
9.2400407e-02
8.7118935e-02
5.6409925e-02
1.4861082e-02
1.4453743e-03
2.9738169e-02
8.2220553e-02
1.2648636e-01
1.6606321e-01
1.9076778e-01
1.8808295e-01
1.7977399e-01
1.5776711e-01
1.2337325e-01
1.0091888e-01
1.0155422e-01
1.1221401e-01
1.0183832e-01
7.9382687e-02
5.5067643e-02
2.5356056e-02
-7.4421195e-03
-6.8710275e-02
-1.5397002e-01
-2.2367828e-01
-2.5871144e-01
-2.5579797e-01
-2.1953157e-01
-1.5830974e-01
-1.0719466e-01
-8.7251269e-02
-7.7302614e-02
-8.4175176e-02
-1.0550198e-01
-1.0517310e-01
-6.5421556e-02
-7.9322432e-03
3.7746335e-02
8.5574118e-02
1.2662319e-01
1.3691256e-01
1.2719485e-01
9.5295605e-02
5.5174950e-02
3.6263640e-02
4.8216129e-02
7.1638997e-02
7.9624076e-02
9.2329237e-02
1.1352258e-01
1.2675464e-01
1.3193080e-01
1.0218657e-01
4.4474122e-02
7.1929643e-03
1.2347128e-02
4.2118904e-02
7.1717651e-02
9.9824408e-02
9.9175483e-02
6.0459545e-02
1.1369275e-02
-5.3711371e-02
-1.2219938e-01
-1.5617337e-01
-1.4475242e-01
-1.2594202e-01
-1.4235415e-01
-1.6884709e-01
-1.6768518e-01
-1.3398735e-01
-9.5079784e-02
-8.8986216e-02
-1.0255973e-01
-9.7936742e-02
-5.8390126e-02
-2.2650304e-03
4.1166775e-02
7.9911072e-02
1.0531908e-01
1.0443635e-01
9.0508440e-02
5.0469518e-02
-5.1704716e-03
-3.9769757e-02
-4.1525874e-02
-1.8385500e-02
1.9127390e-02
7.2021647e-02
1.1725704e-01
1.4061352e-01
1.5121784e-01
1.2923214e-01
7.9713420e-02
3.9499544e-02
2.9974303e-02
3.3021285e-02
2.0776257e-02
1.2463650e-02
1.2435153e-02
9.3013380e-03
2.2365818e-05
-3.2478000e-02
-7.2799394e-02
-9.4815057e-02
-9.3812289e-02
-8.4444769e-02
-8.2894710e-02
-7.3098390e-02
-5.8775910e-02
-5.5520543e-02
-6.4665610e-02
-9.5882019e-02
-1.3405909e-01
-1.5396295e-01
-1.4471243e-01
-1.1672638e-01
-9.3417157e-02
-7.4184282e-02
-5.5507754e-02
-3.0669275e-02
-3.3369858e-04
1.5535835e-02
2.6525087e-02
5.4421968e-02
1.1088935e-01
1.7549847e-01
2.1307326e-01
2.2933491e-01
2.2507488e-01
2.0109876e-01
1.6718431e-01
1.1749610e-01
6.4563434e-02
3.0020130e-02
2.5031741e-02
2.5672197e-02
7.3507020e-03
-1.2951165e-02
-3.0389931e-02
-3.4145504e-02
-2.1751922e-02
-2.3434516e-02
-4.0780711e-02
-5.2351309e-02
-3.9213438e-02
-1.8933022e-02
-1.8091432e-02
-2.8036027e-02
-4.7809285e-02
-6.3455685e-02
-7.1665091e-02
-9.1698419e-02
-1.0562269e-01
-9.1656900e-02
-4.4702992e-02
9.2857904e-03
4.1731014e-02
6.6347996e-02
8.4747366e-02
9.7526801e-02
1.0266368e-01
8.2633948e-02
5.3929402e-02
3.7351849e-02
4.0988972e-02
4.6215737e-02
2.6745866e-02
-1.2423926e-02
-7.0455062e-02
-1.2899996e-01
-1.7023547e-01
-1.9953893e-01
-2.0497325e-01
-1.7629321e-01
-1.1731301e-01
-5.9085766e-02
-3.2233328e-02
-3.2916253e-02
-5.3057384e-02
-6.6928696e-02
-6.4989763e-02
-6.4200739e-02
-6.2283224e-02
-5.8462385e-02
-4.8626311e-02
-4.3500177e-02
-6.1611911e-02
-8.3178271e-02
-8.5959778e-02
-5.7945287e-02
-1.0788789e-02
3.1220540e-02
6.3005216e-02
8.7018534e-02
1.1992445e-01
1.5039351e-01
1.6390436e-01
1.7324264e-01
1.7700358e-01
1.9538011e-01
2.2857706e-01
2.3985215e-01
2.2621501e-01
2.1084273e-01
2.2372425e-01
2.4984972e-01
2.5221903e-01
2.2640178e-01
1.7521585e-01
1.1744144e-01
5.3740658e-02
-2.8026704e-02
-1.1327159e-01
-1.8747916e-01
-2.3609640e-01
-2.6197462e-01
-2.7938646e-01
-2.7996683e-01
-2.6143803e-01
-2.2989414e-01
-1.8220991e-01
-1.1518977e-01
-3.4137241e-02
4.8602610e-02
1.2402229e-01
1.7168051e-01
1.8436064e-01
1.7567226e-01
1.4861508e-01
1.1816241e-01
9.3300579e-02
6.8041874e-02
4.2491386e-02
1.6331892e-02
-1.2274223e-02
-5.4521879e-02
-1.1140827e-01
-1.6475072e-01
-2.0373331e-01
-2.2728993e-01
-2.3474834e-01
-2.2302364e-01
-1.9374950e-01
-1.5545363e-01
-1.1514989e-01
-8.0775424e-02
-5.4857827e-02
-3.1694105e-02
-7.4730855e-03
1.8016646e-02
4.5149168e-02
8.0045398e-02
1.2741635e-01
1.8191200e-01
2.2805260e-01
2.5005981e-01
2.5217549e-01
2.4340584e-01
2.2115559e-01
1.8488433e-01
1.3802779e-01
8.7238370e-02
3.4662470e-02
-2.0957015e-02
-7.6334104e-02
-1.2972183e-01
-1.7407367e-01
-2.0144773e-01
-2.1370878e-01
-2.1674275e-01
-2.1308824e-01
-1.9755071e-01
-1.6925998e-01
-1.3674515e-01
-1.0897003e-01
-9.0861025e-02
-7.9638019e-02
-7.4819744e-02
-7.6745508e-02
-7.6131722e-02
-6.4334387e-02
-3.5362155e-02
9.3834585e-03
5.7803488e-02
9.4874753e-02
1.1126976e-01
1.1266898e-01
9.9190859e-02
7.2765678e-02
5.1553019e-02
4.1419419e-02
4.1314129e-02
4.9174952e-02
6.0299999e-02
6.7051355e-02
6.1186622e-02
5.3270888e-02
4.6372194e-02
4.0481142e-02
5.3038715e-02
8.6064220e-02
1.3164214e-01
1.8176180e-01
2.1847874e-01
2.1500051e-01
1.6553603e-01
1.0559683e-01
4.8301194e-02
-1.3902847e-02
-6.2460668e-02
-9.0794623e-02
-1.1169084e-01
-1.3271504e-01
-1.5210750e-01
-1.6376912e-01
-1.6335052e-01
-1.4514361e-01
-1.1259964e-01
-7.2542095e-02
-2.3803448e-02
3.1020147e-02
9.0488382e-02
1.4940666e-01
1.9462547e-01
2.0904201e-01
1.8602906e-01
1.5289058e-01
1.2087670e-01
8.2643889e-02
5.1022532e-02
2.9857284e-02
1.8140292e-02
1.1339535e-02
-1.3517025e-03
-2.5307915e-02
-5.8896961e-02
-8.4876562e-02
-1.0047578e-01
-1.1314791e-01
-1.1903663e-01
-1.2012383e-01
-1.1958670e-01
-1.2347553e-01
-1.3628939e-01
-1.5892628e-01
-1.8884892e-01
-2.1201008e-01
-2.2400425e-01
-2.2484303e-01
-2.1371682e-01
-1.9458641e-01
-1.6769903e-01
-1.4080769e-01
-1.2621321e-01
-1.3457566e-01
-1.5940526e-01
-1.7325584e-01
-1.6406280e-01
-1.3033888e-01
-6.7168601e-02
2.1886440e-02
1.2622164e-01
2.2720234e-01
3.0841471e-01
3.6112377e-01
3.8933815e-01
4.0118389e-01
3.8034199e-01
3.2471150e-01
2.6652272e-01
2.2973431e-01
2.1053289e-01
1.8987931e-01
1.5537316e-01
1.0781944e-01
6.0449049e-02
2.6545958e-02
3.8626265e-03
-8.5971884e-03
-1.3661001e-02
-1.8237169e-02
-1.2486373e-02
4.4058944e-03
1.3219874e-02
-7.5873628e-03
-5.5880115e-02
-1.0396016e-01
-1.4076881e-01
-1.6795713e-01
-1.9167302e-01
-2.1453778e-01
-2.2195461e-01
-2.0837709e-01
-1.8194583e-01
-1.5900480e-01
-1.4889104e-01
-1.3909992e-01
-1.2139000e-01
-9.4928316e-02
-5.9878055e-02
-2.0093759e-02
2.8251658e-02
8.8067358e-02
1.4999245e-01
1.8807470e-01
1.9286192e-01
1.8198083e-01
1.5699745e-01
1.2974836e-01
1.1543528e-01
1.0992541e-01
1.2024664e-01
1.4160559e-01
1.5382980e-01
1.3034304e-01
6.4329610e-02
-7.5260803e-03
-6.6418319e-02
-1.1574373e-01
-1.5977229e-01
-2.0385830e-01
-2.3527735e-01
-2.4571655e-01
-2.4101685e-01
-2.3527900e-01
-2.3547716e-01
-2.3204592e-01
-2.2431012e-01
-2.0801769e-01
-1.8319586e-01
-1.5779593e-01
-1.2179580e-01
-7.3164632e-02
-1.9324305e-02
2.9248104e-02
6.9390709e-02
1.1536995e-01
1.6767485e-01
2.2591216e-01
2.7128555e-01
2.8509315e-01
2.9598576e-01
3.1142138e-01
3.0629009e-01
2.5841906e-01
1.7931616e-01
1.0954649e-01
6.6380529e-02
5.7256207e-02
6.2956791e-02
5.6632061e-02
4.9522905e-02
4.6346626e-02
2.8535320e-02
-3.1573208e-02
-1.2323563e-01
-2.0107388e-01
-2.4816966e-01
-2.6214968e-01
-2.4846733e-01
-2.1629366e-01
-1.6376893e-01
-9.7017803e-02
-3.1712502e-02
6.6916028e-03
9.4186357e-03
-9.6550930e-03
-3.8748946e-02
-5.2709239e-02
-4.6634184e-02
-3.1979247e-02
2.1491591e-03
5.3077252e-02
9.7723541e-02
1.1310368e-01
1.1133979e-01
1.1417430e-01
1.1808906e-01
1.3904499e-01
1.6876976e-01
1.8578425e-01
2.0546949e-01
2.2950394e-01
2.4041855e-01
2.1987577e-01
1.8381393e-01
1.5044732e-01
1.0760715e-01
6.9260119e-02
3.4136777e-02
-1.0068323e-02
-4.1920332e-02
-5.3582079e-02
-5.7894313e-02
-7.3951687e-02
-1.0088448e-01
-1.3222632e-01
-1.7731261e-01
-2.2541838e-01
-2.6859764e-01
-3.0579553e-01
-3.2783275e-01
-3.3200124e-01
-3.2095849e-01
-3.0039189e-01
-2.6789309e-01
-2.2698252e-01
-1.8533039e-01
-1.3414981e-01
-6.5778541e-02
1.9011962e-02
1.0150267e-01
1.6062170e-01
1.9373238e-01
1.9390249e-01
1.6602563e-01
1.2113341e-01
5.8035060e-02
-1.2251845e-02
-6.9042685e-02
-8.8181426e-02
-5.8475268e-02
1.3875351e-02
1.1535989e-01
2.1375745e-01
2.7131270e-01
2.6600059e-01
2.1333497e-01
1.4720031e-01
8.3534853e-02
3.9907098e-02
3.0259995e-02
5.2822856e-02
9.5622093e-02
1.3865430e-01
1.7056576e-01
1.8291972e-01
1.7786104e-01
1.6903411e-01
1.5403878e-01
1.3212772e-01
1.1316691e-01
9.7431891e-02
7.0422377e-02
2.6778485e-02
-2.4692295e-02
-9.3458729e-02
-1.8310064e-01
-2.7991604e-01
-3.7976638e-01
-4.6993193e-01
-5.3159772e-01
-5.5949610e-01
-5.5277393e-01
-5.1219605e-01
-4.4054230e-01
-3.4407968e-01
-2.2807286e-01
-9.5743272e-02
3.9700057e-02
1.5972514e-01
2.5884060e-01
3.4634648e-01
4.1858159e-01
4.6736717e-01
4.9715559e-01
5.0208803e-01
4.8645856e-01
4.6840841e-01
4.4489254e-01
3.9797971e-01
3.0768412e-01
1.7211539e-01
1.1086802e-02
-1.4864166e-01
-2.8284583e-01
-3.9296225e-01
-4.8402487e-01
-5.4503457e-01
-5.6867410e-01
-5.5463858e-01
-5.1247078e-01
-4.4289813e-01
-3.3574504e-01
-1.8996201e-01
-1.0739083e-02
1.7110202e-01
3.2312904e-01
4.3640037e-01
4.9697301e-01
5.1192130e-01
5.0044935e-01
4.6566405e-01
4.1164379e-01
3.4929844e-01
2.9247339e-01
2.3481391e-01
1.7558377e-01
1.1913933e-01
6.1487124e-02
6.2731000e-03
-6.7656263e-02
-1.6227822e-01
-2.4150579e-01
-2.8427047e-01
-2.8536376e-01
-2.5407363e-01
-2.0699882e-01
-1.7396867e-01
-1.7037882e-01
-1.8226726e-01
-2.1014716e-01
-2.3813452e-01
-2.3701598e-01
-2.0098226e-01
-1.4176255e-01
-8.3813611e-02
-3.3037996e-02
1.6167882e-02
6.9328559e-02
1.2363429e-01
1.4891893e-01
1.5013684e-01
1.5878394e-01
1.8076225e-01
2.0655089e-01
2.1094914e-01
1.9403460e-01
1.6169095e-01
1.0838523e-01
4.6822403e-02
-2.7015118e-02
-1.0209780e-01
-1.4530474e-01
-1.4566523e-01
-1.2526864e-01
-1.1639595e-01
-1.0922468e-01
-1.0383592e-01
-1.1604786e-01
-1.3534297e-01
-1.6464582e-01
-1.9499159e-01
-1.9991137e-01
-1.7050527e-01
-1.1093209e-01
-3.4148457e-02
4.9331518e-02
1.1123046e-01
1.3941492e-01
1.5396479e-01
1.4080296e-01
1.0248712e-01
8.1880788e-02
1.0308527e-01
1.4665712e-01
1.7355561e-01
1.8319304e-01
1.7605258e-01
1.5155014e-01
1.2267869e-01
7.2450702e-02
7.5643347e-03
-4.0169906e-02
-5.8384894e-02
-6.5147472e-02
-8.4852826e-02
-1.0167785e-01
-1.0930063e-01
-1.0765725e-01
-9.3304209e-02
-9.0285900e-02
-9.7262017e-02
-8.8362286e-02
-5.0923536e-02
-6.2226041e-03
2.1551885e-02
5.3417262e-02
8.1175041e-02
8.5945184e-02
7.9652976e-02
5.4325176e-02
2.4471301e-02
2.0454265e-02
4.7176660e-02
7.9666586e-02
9.3462668e-02
1.0218633e-01
9.7645708e-02
7.3065108e-02
4.4307190e-02
7.9673663e-03
-2.0341156e-02
-2.0782182e-02
6.7617513e-03
3.7865424e-02
4.6334712e-02
3.9661243e-02
7.0396047e-03
-5.2670627e-02
-1.1363813e-01
-1.7548540e-01
-2.2821307e-01
-2.5163769e-01
-2.4583520e-01
-2.3053730e-01
-2.1784232e-01
-1.9850326e-01
-1.8409536e-01
-1.7963861e-01
-1.7933868e-01
-1.9348240e-01
-2.0698696e-01
-1.9707866e-01
-1.5745702e-01
-1.1022363e-01
-8.5199196e-02
-6.5485933e-02
-2.3760411e-02
4.9368156e-02
1.3096984e-01
1.8921371e-01
2.3366128e-01
2.8472615e-01
3.4657361e-01
3.9176215e-01
4.0617901e-01
4.0706115e-01
3.8538070e-01
3.4194848e-01
2.8417289e-01
1.9918401e-01
8.5539435e-02
-4.4328091e-02
-1.5615878e-01
-2.3009137e-01
-2.6971860e-01
-2.7047169e-01
-2.3949704e-01
-1.7901176e-01
-9.4019135e-02
-5.2882726e-03
8.1467641e-02
1.6901065e-01
2.6135163e-01
3.3833809e-01
3.8314706e-01
4.0861684e-01
4.1544207e-01
4.1856196e-01
4.1803543e-01
3.7155583e-01
2.6358340e-01
1.2106997e-01
-1.8733084e-02
-1.4262832e-01
-2.5110880e-01
-3.3646330e-01
-3.9946231e-01
-4.4380429e-01
-4.6832262e-01
-4.7305431e-01
-4.5878733e-01
-4.3226431e-01
-4.0313490e-01
-3.7614269e-01
-3.4844468e-01
-3.1184175e-01
-2.5937621e-01
-1.9199251e-01
-1.1959406e-01
-4.7569223e-02
2.3205640e-02
8.2520537e-02
1.1417891e-01
1.0420054e-01
5.8992400e-02
8.4423879e-03
-2.2103868e-02
-2.3434162e-02
2.1613273e-03
5.1783924e-02
1.2301864e-01
2.0624427e-01
2.7983461e-01
3.1299841e-01
3.0752226e-01
2.9190762e-01
2.7827067e-01
2.7523240e-01
2.8409884e-01
2.9993317e-01
3.1931105e-01
3.1976778e-01
2.7309714e-01
1.7194634e-01
4.0075855e-02
-8.3693722e-02
-1.7464024e-01
-2.2620912e-01
-2.4240835e-01
-2.3106205e-01
-2.0066445e-01
-1.6023443e-01
-1.2132875e-01
-9.6796663e-02
-9.2468136e-02
-1.0528156e-01
-1.1911423e-01
-1.0969163e-01
-8.0622323e-02
-6.2851323e-02
-7.3941191e-02
-1.0718752e-01
-1.4214916e-01
-1.6223234e-01
-1.6004999e-01
-1.3593217e-01
-9.7495797e-02
-6.0732756e-02
-3.4575249e-02
-2.7428364e-03
4.9050347e-02
1.1854036e-01
1.8889527e-01
2.3591905e-01
2.5426562e-01
2.4119237e-01
2.0246591e-01
1.5844851e-01
1.1157530e-01
6.9423886e-02
3.4535804e-02
-4.7383942e-03
-4.8132123e-02
-9.2441332e-02
-1.3147832e-01
-1.5600081e-01
-1.5785545e-01
-1.3526358e-01
-1.0234371e-01
-8.0016241e-02
-7.3432231e-02
-6.7776555e-02
-5.1428652e-02
-2.4298977e-02
7.6475929e-03
2.5339062e-02
2.0593856e-02
9.1423880e-03
3.1101117e-03
8.5210116e-03
2.5185382e-02
4.4233264e-02
5.5650947e-02
5.3734307e-02
3.3163035e-02
-8.9805642e-03
-4.7866474e-02
-5.3076867e-02
-2.0780223e-02
4.1444843e-02
1.1930710e-01
1.9058831e-01
2.3460880e-01
2.4057837e-01
2.0821170e-01
1.4084528e-01
4.9189300e-02
-4.1835567e-02
-1.1255342e-01
-1.6039130e-01
-1.8657544e-01
-1.9216720e-01
-1.7886324e-01
-1.4606487e-01
-1.0218735e-01
-6.9650742e-02
-5.2561169e-02
-4.0016748e-02
-3.0465158e-02
-1.9232604e-02
-3.4081935e-03
1.1575958e-02
2.1201907e-02
2.4465850e-02
1.6083444e-02
-6.3366470e-03
-2.3272344e-02
-1.9399880e-02
-5.1178290e-04
2.7364475e-02
5.8422557e-02
8.9790258e-02
1.2291003e-01
1.6142197e-01
1.9924546e-01
2.1002174e-01
1.8993079e-01
1.5159758e-01
9.4864062e-02
2.8993428e-02
-3.7643341e-02
-1.0930388e-01
-1.8857989e-01
-2.6217774e-01
-3.1454711e-01
-3.5181519e-01
-3.7474852e-01
-3.7636385e-01
-3.5722639e-01
-3.1213605e-01
-2.4666366e-01
-1.7723115e-01
-1.1124238e-01
-4.7586661e-02
1.7272354e-02
8.8445237e-02
1.7522968e-01
2.8222497e-01
3.9497419e-01
4.7646306e-01
4.9756544e-01
4.6389568e-01
3.9731600e-01
3.2451495e-01
2.6037687e-01
1.9211964e-01
1.2479508e-01
8.0578727e-02
6.1785873e-02
5.8887457e-02
5.6575313e-02
4.3786659e-02
1.4658816e-02
-2.4532697e-02
-7.0645717e-02
-1.3857207e-01
-2.2041050e-01
-2.9274540e-01
-3.4542560e-01
-3.7984883e-01
-3.9835816e-01
-3.9456078e-01
-3.6708526e-01
-3.1529931e-01
-2.4743145e-01
-1.8221206e-01
-1.1466819e-01
-5.0553955e-02
3.5193168e-04
5.6709505e-02
1.1909072e-01
1.7078537e-01
1.9382670e-01
1.9107031e-01
1.8885639e-01
1.9483868e-01
2.1602130e-01
2.3830379e-01
2.3348659e-01
2.1580931e-01
1.9376909e-01
1.5566029e-01
9.4603919e-02
2.5079372e-02
-1.6565913e-02
-1.7977535e-02
7.2771450e-03
2.5724968e-02
2.2923745e-02
2.8915990e-02
4.9368947e-02
5.8751184e-02
2.7428096e-02
-4.5313009e-02
-1.2915611e-01
-2.1029687e-01
-2.7375334e-01
-3.1323896e-01
-3.3208397e-01
-3.2046998e-01
-2.7599220e-01
-2.0176225e-01
-1.0638799e-01
-3.1698386e-05
1.0658535e-01
2.0619216e-01
3.0784559e-01
4.0412438e-01
4.6782360e-01
4.7496121e-01
4.0855322e-01
2.7934533e-01
1.2624725e-01
-1.2173585e-02
-1.1603787e-01
-1.8030581e-01
-2.1683568e-01
-2.6702982e-01
-3.4408423e-01
-4.0481458e-01
-4.2293123e-01
-4.0093630e-01
-3.4418164e-01
-2.5906424e-01
-1.4904815e-01
-1.7048823e-02
1.2503811e-01
2.4198450e-01
3.1363077e-01
3.5551630e-01
3.6342940e-01
3.1881634e-01
2.2758730e-01
1.2615837e-01
5.0490634e-02
7.4176306e-03
-7.1423460e-03
-1.3550139e-02
-2.8745434e-02
-4.2694025e-02
-4.2487522e-02
-2.5039422e-02
2.9849734e-03
4.3100067e-02
8.5664391e-02
1.1236024e-01
1.2640558e-01
1.2597201e-01
1.1942048e-01
1.2434842e-01
1.3177551e-01
1.1992150e-01
7.4728063e-02
4.6483873e-03
-7.2152329e-02
-1.4067969e-01
-1.8769481e-01
-2.1902909e-01
-2.4520538e-01
-2.6365107e-01
-2.6593213e-01
-2.4366584e-01
-1.9298052e-01
-1.1280826e-01
-1.6132596e-02
8.2954114e-02
1.7011571e-01
2.1107314e-01
2.0707425e-01
1.8934719e-01
1.5643241e-01
9.5153432e-02
8.9020473e-03
-8.0184448e-02
-1.5593719e-01
-2.1647854e-01
-2.6888905e-01
-3.2371057e-01
-3.7063245e-01
-3.9595480e-01
-3.9285953e-01
-3.5201258e-01
-2.7016772e-01
-1.5327854e-01
-1.3189451e-02
1.4082902e-01
2.9945438e-01
4.3531616e-01
5.2286988e-01
5.5697615e-01
5.3086956e-01
4.4143087e-01
3.0643050e-01
1.6180016e-01
3.1071211e-02
-7.7002681e-02
-1.5155991e-01
-1.9019509e-01
-1.9083998e-01
-1.5682774e-01
-9.6489401e-02
-1.2154788e-02
9.3327751e-02
2.0276362e-01
2.7394667e-01
2.8474317e-01
2.4391055e-01
1.6697123e-01
8.0712545e-02
-9.0337948e-03
-1.0137526e-01
-1.7714147e-01
-2.2230362e-01
-2.3032167e-01
-2.2417973e-01
-2.2669564e-01
-2.3176756e-01
-2.3192676e-01
-2.2249157e-01
-2.1368963e-01
-2.0874261e-01
-1.9126271e-01
-1.4763585e-01
-7.7189184e-02
-9.2922884e-03
3.9227351e-02
7.5602548e-02
9.9308826e-02
1.1072991e-01
9.2042620e-02
4.3393897e-02
3.9979346e-03
2.7074904e-03
4.9837210e-02
1.2009878e-01
1.7927938e-01
2.1129881e-01
1.9985113e-01
1.5010600e-01
7.3975236e-02
-8.2204820e-03
-6.0183572e-02
-6.5151795e-02
-2.4548879e-02
3.0694284e-02
7.3288250e-02
1.0044479e-01
9.9365668e-02
6.4712147e-02
-9.3296392e-03
-1.1051990e-01
-1.9753019e-01
-2.4360487e-01
-2.3975432e-01
-2.1081104e-01
-1.8105013e-01
-1.5581962e-01
-1.4743731e-01
-1.5248288e-01
-1.7256357e-01
-1.9349457e-01
-1.8151885e-01
-1.2549050e-01
-3.3354662e-02
5.6869934e-02
1.2260708e-01
1.6788075e-01
1.9173592e-01
1.9858257e-01
1.7927892e-01
1.4056312e-01
1.0457990e-01
7.9436106e-02
7.2223427e-02
7.0898747e-02
7.9240681e-02
1.0829527e-01
1.3618424e-01
1.4863263e-01
1.3947052e-01
1.1574280e-01
9.8767855e-02
9.8372752e-02
1.0926003e-01
1.0773047e-01
9.6050421e-02
9.5754903e-02
1.1002460e-01
1.3350570e-01
1.4221387e-01
1.1963842e-01
7.3752378e-02
3.2937424e-02
2.8334230e-02
4.9397717e-02
8.0583333e-02
1.1050115e-01
1.2820778e-01
1.4063778e-01
1.2975545e-01
9.8082102e-02
7.8500197e-02
8.0279165e-02
9.3597675e-02
8.7106087e-02
5.4736516e-02
4.4071048e-03
-6.1020398e-02
-1.2658688e-01
-2.0414526e-01
-2.8638064e-01
-3.3707576e-01
-3.4140805e-01
-3.0767686e-01
-2.5927322e-01
-2.0672226e-01
-1.6324240e-01
-1.3644217e-01
-1.1468232e-01
-1.0569495e-01
-1.0362702e-01
-8.4367256e-02
-4.0378275e-02
2.4751381e-02
9.8555935e-02
1.6640389e-01
1.9973794e-01
1.8708445e-01
1.4714935e-01
8.2177045e-02
5.1966023e-03
-5.6543429e-02
-9.1383789e-02
-1.0152150e-01
-1.0670340e-01
-1.1850169e-01
-1.2589097e-01
-1.1709835e-01
-1.0182139e-01
-9.8220591e-02
-9.5061881e-02
-7.2424216e-02
-2.7953488e-02
3.0223947e-02
8.7700772e-02
1.3549995e-01
1.5748047e-01
1.4609005e-01
1.0878390e-01
3.6545438e-02
-5.4218167e-02
-1.2317863e-01
-1.5408430e-01
-1.5116709e-01
-1.2974943e-01
-9.7905021e-02
-6.2780692e-02
-2.9719713e-02
-7.1286216e-03
-1.3134044e-02
-3.2565463e-02
-3.7541878e-02
-1.7733659e-02
2.0637363e-02
6.2019012e-02
1.0469388e-01
1.3105687e-01
1.3103965e-01
1.1767577e-01
8.1983689e-02
3.7587215e-02
1.9482310e-02
3.9022208e-02
7.5382662e-02
1.0039494e-01
1.2215108e-01
1.2841782e-01
1.0129726e-01
5.4831991e-02
-1.4733669e-02
-9.0415475e-02
-1.3418890e-01
-1.3518382e-01
-1.2178540e-01
-1.2816264e-01
-1.4077643e-01
-1.3851013e-01
-1.1571994e-01
-8.6613073e-02
-7.7437794e-02
-7.0228239e-02
-3.1320887e-02
4.9422330e-02
1.4525410e-01
2.2075075e-01
2.7385763e-01
2.8301311e-01
2.5014205e-01
2.1260123e-01
1.6227600e-01
1.0469452e-01
7.3810869e-02
8.0616352e-02
9.5976887e-02
9.2267167e-02
8.7114797e-02
6.7887579e-02
2.1247272e-02
-2.8931832e-02
-8.7762170e-02
-1.5072501e-01
-1.9095368e-01
-1.9761598e-01
-1.8408134e-01
-1.7097514e-01
-1.5899910e-01
-1.5410099e-01
-1.5605836e-01
-1.6558218e-01
-2.0654537e-01
-2.6542748e-01
-3.0912974e-01
-3.2630888e-01
-3.1727549e-01
-2.8756523e-01
-2.3802659e-01
-1.8685498e-01
-1.4339742e-01
-1.0323918e-01
-7.7123425e-02
-5.0142658e-02
1.4462031e-03
8.3276040e-02
1.7471794e-01
2.4126590e-01
2.8342170e-01
3.0660018e-01
3.2405708e-01
3.5206478e-01
3.6778690e-01
3.6146388e-01
3.4318782e-01
3.2835260e-01
3.2337073e-01
3.2085264e-01
3.2799630e-01
3.2371359e-01
2.9356216e-01
2.4721178e-01
1.6134525e-01
3.1374689e-02
-1.0030266e-01
-1.9164983e-01
-2.4821232e-01
-2.9218014e-01
-3.1422732e-01
-3.1351734e-01
-2.9184957e-01
-2.6394673e-01
-2.6384389e-01
-2.7705149e-01
-2.6827826e-01
-2.2773651e-01
-1.7900727e-01
-1.4844736e-01
-1.2703227e-01
-1.1208739e-01
-9.8080264e-02
-8.2516584e-02
-8.7311326e-02
-1.0383674e-01
-1.0157184e-01
-5.9771358e-02
1.2837271e-03
5.1023975e-02
9.8618023e-02
1.3987099e-01
1.7634868e-01
2.1337354e-01
2.2998018e-01
2.3465656e-01
2.5450820e-01
3.0339238e-01
3.7014364e-01
4.3018687e-01
4.6769197e-01
4.5688316e-01
3.9988512e-01
3.1896831e-01
2.0652173e-01
7.2319100e-02
-4.5654817e-02
-1.2079341e-01
-1.6235526e-01
-1.8846603e-01
-1.9425876e-01
-1.8915296e-01
-1.8524946e-01
-1.8996301e-01
-2.1776577e-01
-2.6112240e-01
-3.0031979e-01
-3.1422005e-01
-3.0428622e-01
-2.8616156e-01
-2.5669585e-01
-2.1535549e-01
-1.5617634e-01
-9.6580235e-02
-7.7137154e-02
-8.7309586e-02
-9.1027029e-02
-6.9551550e-02
-4.1084981e-02
-3.1127176e-02
-2.9545375e-02
-4.1780742e-02
-6.8522922e-02
-1.0030021e-01
-1.4578146e-01
-1.8903054e-01
-2.0619054e-01
-1.8632924e-01
-1.3632720e-01
-6.9670177e-02
1.3719703e-02
9.8569204e-02
1.8047355e-01
2.6380142e-01
3.2205726e-01
3.4059032e-01
3.3550775e-01
3.3725625e-01
3.4973920e-01
3.5423856e-01
3.5020414e-01
3.3240295e-01
3.1103126e-01
3.0147079e-01
2.9285763e-01
2.7436165e-01
2.4040106e-01
1.9330968e-01
1.1970130e-01
1.8994271e-02
-7.7295863e-02
-1.6005586e-01
-2.2022847e-01
-2.6332033e-01
-3.1334780e-01
-3.5879917e-01
-3.8094208e-01
-3.6671882e-01
-3.2674495e-01
-2.8447647e-01
-2.3598751e-01
-1.8180105e-01
-1.1860383e-01
-5.4398933e-02
-1.7091429e-02
-3.4591930e-03
1.2516836e-02
5.8333596e-02
1.2015505e-01
1.7006932e-01
2.1276783e-01
2.3830749e-01
2.4947628e-01
2.5313171e-01
2.3443633e-01
2.0490208e-01
1.8693903e-01
1.9019918e-01
1.9110064e-01
1.6452430e-01
1.2003458e-01
6.1652751e-02
-1.5765858e-03
-6.0357534e-02
-1.1415766e-01
-1.5353074e-01
-1.7582443e-01
-1.8318432e-01
-1.8870478e-01
-2.0568276e-01
-2.2020045e-01
-2.2050842e-01
-2.1390260e-01
-2.0431981e-01
-1.8067899e-01
-1.3354241e-01
-7.0402882e-02
-4.9901623e-03
4.4132690e-02
6.7161538e-02
7.2545220e-02
6.6252343e-02
5.0169940e-02
2.4938502e-02
-1.1787313e-02
-6.4407195e-02
-1.3190465e-01
-2.0093019e-01
-2.5799157e-01
-2.9270901e-01
-2.9884699e-01
-2.8085904e-01
-2.4570610e-01
-1.9573457e-01
-1.2920262e-01
-4.2113960e-02
6.4792029e-02
1.7562903e-01
2.6417553e-01
3.1892519e-01
3.4137878e-01
3.4202764e-01
3.4908124e-01
3.6646432e-01
3.7349674e-01
3.6426149e-01
3.2835833e-01
2.5986306e-01
1.6730993e-01
6.5969411e-02
-1.9083199e-02
-7.8336410e-02
-1.1887830e-01
-1.5336908e-01
-1.8520068e-01
-2.0322405e-01
-2.0902561e-01
-2.0827572e-01
-2.0249125e-01
-1.8910968e-01
-1.5152027e-01
-7.7649103e-02
3.3899182e-02
1.6735406e-01
2.8870135e-01
3.7014756e-01
3.9545882e-01
3.6585660e-01
2.9592329e-01
2.0322223e-01
1.0154009e-01
-7.0958492e-03
-1.1606759e-01
-2.1611496e-01
-3.0355128e-01
-3.7163335e-01
-4.1559281e-01
-4.3741663e-01
-4.4510221e-01
-4.4266837e-01
-4.2522326e-01
-3.9045460e-01
-3.3858313e-01
-2.7280670e-01
-1.9777681e-01
-1.1832429e-01
-3.7636997e-02
5.2986573e-02
1.5193718e-01
2.5503677e-01
3.6708132e-01
4.8621965e-01
6.0129052e-01
6.7854828e-01
6.9384446e-01
6.4322634e-01
5.3259301e-01
3.9813958e-01
2.7201193e-01
1.6059100e-01
5.3813468e-02
-5.8120143e-02
-1.5621350e-01
-2.2985342e-01
-2.8939931e-01
-3.3605248e-01
-3.6491232e-01
-3.7005268e-01
-3.5230370e-01
-3.1528776e-01
-2.6505618e-01
-2.1553288e-01
-1.7480004e-01
-1.3923535e-01
-9.9636833e-02
-5.6459112e-02
-1.5474895e-02
2.0173476e-02
3.0884039e-02
9.6337752e-03
-2.4748723e-02
-5.9608686e-02
-8.5509630e-02
-9.8169526e-02
-9.5371712e-02
-7.2542411e-02
-3.0653050e-02
2.3154663e-02
6.1755415e-02
7.3184209e-02
7.4227400e-02
7.3034733e-02
8.6913700e-02
1.1043057e-01
1.1407176e-01
1.0679588e-01
1.0902615e-01
1.2502679e-01
1.3234994e-01
1.1331213e-01
7.9145049e-02
4.1453974e-02
2.8625738e-02
4.8493453e-02
7.7647495e-02
9.8774245e-02
9.7456098e-02
7.6068948e-02
3.1090582e-02
-3.6751664e-02
-9.6432764e-02
-1.3013683e-01
-1.4217687e-01
-1.4326185e-01
-1.3652023e-01
-1.1090557e-01
-6.0609456e-02
8.3511749e-03
6.9604173e-02
1.0021393e-01
1.0908730e-01
1.0680974e-01
1.0168400e-01
9.8954608e-02
9.2525976e-02
8.0983468e-02
6.5144991e-02
4.3024925e-02
1.4912352e-02
-1.1637666e-02
-2.9542024e-02
-3.4875187e-02
-2.6608281e-02
-1.3543281e-02
-5.2601587e-03
-5.2132744e-03
-1.0801427e-02
-1.7121185e-02
-2.2904829e-02
-2.3697713e-02
-1.7582205e-02
-1.0425109e-02
-2.8547377e-03
4.7905956e-03
1.1835572e-02
1.8724538e-02
2.2450387e-02
1.8334976e-02
-4.5001492e-03
-4.1677416e-02
-7.3983774e-02
-9.4613468e-02
-1.0429097e-01
-1.1063267e-01
-1.1888779e-01
-1.2445941e-01
-1.2758251e-01
-1.2832903e-01
-1.2783951e-01
-1.2511378e-01
-1.1543669e-01
-1.0280881e-01
-9.2295710e-02
-8.3066808e-02
-6.5200414e-02
-3.2352928e-02
1.2823979e-02
6.8695924e-02
1.1941815e-01
1.5083867e-01
1.6556113e-01
1.5652107e-01
1.3013623e-01
9.7479409e-02
5.1257223e-02
-4.8755271e-03
-6.1122689e-02
-1.0911897e-01
-1.5045082e-01
-1.8511749e-01
-2.0457009e-01
-2.1045983e-01
-2.0155012e-01
-1.7749335e-01
-1.3930973e-01
-8.1515859e-02
-4.4628627e-03
6.9412906e-02
1.0327202e-01
9.9206186e-02
8.1282655e-02
6.1480989e-02
6.4230066e-02
9.2904346e-02
1.2842661e-01
1.6218744e-01
1.8442210e-01
1.9088609e-01
1.7229707e-01
1.2861025e-01
8.4269417e-02
5.8994509e-02
7.5672468e-02
1.2979631e-01
1.9279833e-01
2.5885186e-01
3.2063790e-01
3.6015526e-01
3.5488059e-01
3.1472045e-01
2.7004878e-01
2.2837369e-01
2.0532795e-01
1.9127045e-01
1.5525615e-01
8.7792880e-02
-1.0407473e-02
-1.2132342e-01
-2.2883283e-01
-3.2375375e-01
-4.0369161e-01
-4.7544413e-01
-5.3424267e-01
-5.7703670e-01
-6.0424858e-01
-6.0943433e-01
-5.9090502e-01
-5.5251185e-01
-5.0455434e-01
-4.5217291e-01
-3.9308203e-01
-3.2719817e-01
-2.4763438e-01
-1.5477638e-01
-4.9443897e-02
7.4033872e-02
2.0470311e-01
3.1947021e-01
3.9003332e-01
4.1604572e-01
4.1669295e-01
4.0440560e-01
4.1757848e-01
4.6436042e-01
5.1489258e-01
5.5115578e-01
5.5410426e-01
5.2211719e-01
4.5593905e-01
3.6710954e-01
2.7858603e-01
1.9819582e-01
1.4698819e-01
1.2236077e-01
1.0154415e-01
7.2717991e-02
2.3569293e-02
-4.2718667e-02
-1.1839546e-01
-1.8319031e-01
-2.3403786e-01
-2.9006908e-01
-3.4072599e-01
-3.7508070e-01
-3.9142730e-01
-3.8846715e-01
-3.7384446e-01
-3.5574601e-01
-3.3923848e-01
-3.1712020e-01
-2.7949606e-01
-2.2723676e-01
-1.6702315e-01
-1.0634027e-01
-4.0593580e-02
3.4201735e-02
1.1100273e-01
1.7252089e-01
2.0205950e-01
2.1829023e-01
2.3052146e-01
2.2944034e-01
2.3790238e-01
2.5928399e-01
2.6713954e-01
2.4562186e-01
1.8943211e-01
1.0470934e-01
1.0831733e-02
-6.2769785e-02
-1.0740647e-01
-1.2783336e-01
-1.2017847e-01
-9.0133941e-02
-4.4594087e-02
3.3895509e-03
3.0960121e-02
2.3727864e-02
-1.7494794e-02
-6.2724035e-02
-8.8001225e-02
-9.4220508e-02
-8.1407612e-02
-5.1932888e-02
-5.4840874e-03
5.7404715e-02
1.2405078e-01
1.6768483e-01
1.5908151e-01
1.1167194e-01
5.5005533e-02
-4.4218877e-03
-5.7864795e-02
-1.0239358e-01
-1.3568746e-01
-1.5632922e-01
-1.7177431e-01
-1.8076218e-01
-1.7624358e-01
-1.4939083e-01
-1.0452743e-01
-5.5894699e-02
-5.7372607e-03
4.6891692e-02
1.0268762e-01
1.5324676e-01
1.8405972e-01
1.8757543e-01
1.6026632e-01
1.2312746e-01
9.1216461e-02
5.8732778e-02
3.4725816e-02
2.2440980e-02
2.1141843e-02
2.7922604e-02
3.1943918e-02
3.0386912e-02
2.3174563e-02
1.8188356e-02
1.6758545e-02
1.3782633e-02
1.4248746e-02
1.7914311e-02
2.2031929e-02
2.5928821e-02
3.0404698e-02
2.9417123e-02
1.3100738e-02
-8.9622264e-03
-2.9065595e-02
-4.8672667e-02
-6.2063231e-02
-7.1276795e-02
-8.0860310e-02
-9.4606578e-02
-1.2024406e-01
-1.5523550e-01
-1.8768944e-01
-2.0701336e-01
-2.1879608e-01
-2.2883959e-01
-2.2647061e-01
-2.1044119e-01
-1.8468284e-01
-1.4766144e-01
-1.0325229e-01
-5.5386733e-02
-2.2848267e-03
6.0012286e-02
1.1700187e-01
1.5054354e-01
1.6439236e-01
1.5732820e-01
1.2271488e-01
6.3076161e-02
-5.0306161e-03
-6.2012241e-02
-9.8439227e-02
-1.0291789e-01
-8.2998581e-02
-5.0863533e-02
-2.3571675e-03
5.5720194e-02
1.2053412e-01
1.9052081e-01
2.4692632e-01
2.6255952e-01
2.3007328e-01
1.8418194e-01
1.4204549e-01
9.6879855e-02
5.9486554e-02
3.3862492e-02
2.1865063e-02
2.2022765e-02
2.2232976e-02
8.7996340e-03
-1.8044769e-02
-3.4324350e-02
-4.3459039e-02
-5.9996881e-02
-7.1530685e-02
-7.4258128e-02
-6.6575740e-02
-4.6630927e-02
-2.6947080e-02
-3.6523814e-02
-8.7039005e-02
-1.3423899e-01
-1.5386139e-01
-1.5916132e-01
-1.5352553e-01
-1.3887948e-01
-1.0570827e-01
-5.3696323e-02
-5.0457614e-04
3.3775131e-02
4.3177753e-02
5.5702099e-02
7.8590098e-02
1.0124605e-01
1.3696928e-01
1.8894493e-01
2.4821258e-01
2.9928653e-01
3.1726112e-01
2.7872646e-01
1.8464563e-01
7.7371671e-02
-1.9594678e-02
-1.0630771e-01
-1.6665348e-01
-1.9731543e-01
-2.0570386e-01
-2.0016076e-01
-1.9047510e-01
-1.7413952e-01
-1.4032700e-01
-8.0793835e-02
-1.7219953e-02
3.3526475e-02
7.9859429e-02
1.1712928e-01
1.5403421e-01
1.9273978e-01
2.0825300e-01
1.8287749e-01
1.2959920e-01
8.5956442e-02
5.1848708e-02
1.2772006e-02
-1.8192897e-02
-3.5556931e-02
-4.0617804e-02
-4.3814660e-02
-5.9884909e-02
-9.5139701e-02
-1.4506621e-01
-1.8649261e-01
-2.1210714e-01
-2.2574153e-01
-2.2723641e-01
-2.2552426e-01
-2.1825886e-01
-1.9916148e-01
-1.7397271e-01
-1.5501055e-01
-1.4226524e-01
-1.2051514e-01
-9.0482831e-02
-5.5569410e-02
-2.3316319e-02
-4.3032427e-03
2.0783815e-02
6.2256590e-02
1.0763352e-01
1.3275348e-01
1.2521826e-01
1.1004871e-01
1.0078738e-01
1.0612512e-01
1.3285740e-01
1.6763103e-01
2.0403223e-01
2.2738056e-01
2.1845310e-01
1.6918173e-01
1.0004206e-01
6.0915832e-02
5.0722493e-02
4.3438740e-02
3.8643833e-02
3.4364669e-02
4.8156853e-02
8.5055380e-02
1.2284570e-01
1.4179058e-01
1.4673718e-01
1.6186175e-01
1.6936083e-01
1.5827708e-01
1.3884492e-01
1.0220858e-01
5.9735627e-02
1.1662149e-02
-5.2458948e-02
-1.2415614e-01
-1.9204397e-01
-2.3755482e-01
-2.5183575e-01
-2.3348221e-01
-2.0318162e-01
-1.8801886e-01
-1.7618476e-01
-1.6466686e-01
-1.6656390e-01
-1.8749652e-01
-2.1937339e-01
-2.3552499e-01
-2.2482332e-01
-1.8818800e-01
-1.2952650e-01
-5.7631584e-02
2.7879764e-02
1.2337974e-01
2.0995360e-01
2.6046913e-01
2.7503189e-01
2.7256924e-01
2.5435824e-01
2.2767086e-01
1.9063017e-01
1.3772531e-01
9.1997892e-02
6.4524331e-02
3.4887284e-02
-1.5448063e-02
-7.7747724e-02
-1.3049632e-01
-1.6294576e-01
-1.7452357e-01
-1.7405791e-01
-1.6714801e-01
-1.4590041e-01
-1.0966590e-01
-7.1081080e-02
-5.0114384e-02
-4.8618449e-02
-4.9032183e-02
-4.6818853e-02
-3.5449285e-02
-1.1438762e-02
1.6413755e-02
4.5194248e-02
6.7100276e-02
6.2711314e-02
2.2900559e-02
-2.3155448e-02
-3.6841518e-02
-7.6418460e-03
6.0331595e-02
1.3508846e-01
1.8542009e-01
2.1869689e-01
2.3858902e-01
2.4515628e-01
2.3492229e-01
2.0585083e-01
1.7677575e-01
1.5488764e-01
1.4004683e-01
1.1509974e-01
6.3455896e-02
1.2470500e-02
-2.1554614e-02
-5.8473334e-02
-1.1988210e-01
-1.9516785e-01
-2.5911342e-01
-3.0514241e-01
-3.2542155e-01
-3.2089987e-01
-2.9788582e-01
-2.5108158e-01
-1.8502009e-01
-1.0966408e-01
-4.0528152e-02
1.3373384e-02
5.2752904e-02
6.7837283e-02
6.6068977e-02
3.8688858e-02
-2.6926408e-02
-9.2431025e-02
-1.3220606e-01
-1.4951426e-01
-1.6033020e-01
-1.7388395e-01
-1.7868929e-01
-1.7252233e-01
-1.5013048e-01
-1.1883471e-01
-8.6622621e-02
-2.9196318e-02
6.1397723e-02
1.6145496e-01
2.4149267e-01
3.0052598e-01
3.5116337e-01
3.9581451e-01
4.4278595e-01
4.6786080e-01
4.5261666e-01
4.1944190e-01
3.6448029e-01
2.6877447e-01
1.3744667e-01
6.5801593e-03
-9.5754806e-02
-1.7194231e-01
-2.2216335e-01
-2.6398597e-01
-3.0900788e-01
-3.3405476e-01
-3.3129703e-01
-3.0602804e-01
-2.6387953e-01
-2.0743738e-01
-1.3938976e-01
-6.8724631e-02
6.6616366e-03
6.0999310e-02
7.7282784e-02
8.9465127e-02
1.1021237e-01
1.2527042e-01
1.2034626e-01
1.0298429e-01
8.8510327e-02
7.8778323e-02
8.7990025e-02
9.4023470e-02
7.2710466e-02
5.2709379e-02
3.8458513e-02
1.0696960e-02
-3.5927267e-02
-8.1599131e-02
-1.1186987e-01
-1.3329125e-01
-1.3234896e-01
-1.2538652e-01
-1.3446325e-01
-1.3673390e-01
-1.2921811e-01
-1.2256597e-01
-1.1961458e-01
-1.0892421e-01
-8.8947500e-02
-7.3831812e-02
-4.5527579e-02
-1.4846374e-02
1.1303408e-03
3.4398370e-02
9.2368632e-02
1.5599207e-01
2.1205489e-01
2.6809265e-01
3.2606985e-01
3.6323789e-01
3.7054938e-01
3.3666722e-01
2.7399802e-01
2.1583849e-01
1.6376362e-01
1.1597790e-01
7.5142787e-02
5.4225306e-02
5.4021723e-02
5.8713140e-02
7.2910630e-02
7.1560335e-02
3.8899158e-02
2.7684199e-03
-3.5740943e-02
-8.6399482e-02
-1.4667744e-01
-2.0218850e-01
-2.4604766e-01
-2.8274008e-01
-3.0992561e-01
-3.4160436e-01
-3.7774325e-01
-3.9791530e-01
-3.9687418e-01
-3.7260237e-01
-3.2842055e-01
-2.6661309e-01
-1.9878836e-01
-1.3872012e-01
-8.3264388e-02
-5.9137075e-02
-7.3647474e-02
-8.1121318e-02
-5.6986097e-02
-5.3957273e-03
5.9887542e-02
1.3675857e-01
2.1512575e-01
2.7636775e-01
3.2799276e-01
3.5805740e-01
3.5206471e-01
3.2153233e-01
2.8003972e-01
2.3849755e-01
2.0260551e-01
1.8940403e-01
1.9521355e-01
1.9652684e-01
1.8437244e-01
1.4176898e-01
6.3363552e-02
-3.3990273e-02
-1.2453185e-01
-1.7853202e-01
-1.8233153e-01
-1.3356815e-01
-6.4824011e-02
-1.9484594e-02
-2.6477608e-03
-1.8834737e-02
-6.3044043e-02
-1.1847486e-01
-1.7048602e-01
-1.9844576e-01
-1.9344204e-01
-1.5058880e-01
-9.4566471e-02
-5.4085337e-02
-2.1654523e-02
-4.3059355e-03
-6.3697804e-03
-1.8499513e-02
-2.9054628e-02
-2.3291146e-02
4.0174403e-03
5.9228807e-02
1.1798429e-01
1.5140994e-01
1.5865812e-01
1.3722022e-01
9.6099887e-02
4.4767121e-02
-3.9750546e-03
-3.4413116e-02
-4.5248476e-02
-3.4064458e-02
-1.7869007e-02
-1.1556836e-02
-1.7014009e-02
-4.6745798e-02
-8.4148257e-02
-1.0475802e-01
-1.0016903e-01
-6.7098925e-02
-1.4726825e-02
3.8425460e-02
6.4115275e-02
6.7453770e-02
7.5375209e-02
8.6499079e-02
8.8652576e-02
6.7455465e-02
3.1575820e-02
1.1919213e-02
2.4515120e-02
7.2855969e-02
1.2786223e-01
1.5494612e-01
1.4706176e-01
1.0441686e-01
3.9878660e-02
-3.7479152e-02
-1.1206749e-01
-1.5661942e-01
-1.6182134e-01
-1.3253922e-01
-9.6234458e-02
-7.7545684e-02
-8.0881597e-02
-1.0453957e-01
-1.3572051e-01
-1.7218315e-01
-2.0462226e-01
-2.1173317e-01
-1.8330512e-01
-1.2623501e-01
-6.2929586e-02
2.1677078e-03
6.1864935e-02
1.0271188e-01
1.2282255e-01
1.0724672e-01
5.9562137e-02
1.1709215e-02
-1.0371200e-02
9.9204117e-03
7.2164060e-02
1.6239011e-01
2.4926104e-01
3.0455706e-01
3.2679442e-01
3.0598928e-01
2.4540969e-01
1.7491276e-01
1.1804580e-01
7.3243591e-02
1.5237346e-02
-5.2081889e-02
-1.0278580e-01
-1.2718110e-01
-1.3837643e-01
-1.5524296e-01
-1.6401593e-01
-1.4973173e-01
-1.1604344e-01
-7.0590536e-02
-2.7753181e-02
1.6248041e-02
5.1354044e-02
6.2029630e-02
5.7891603e-02
2.5309955e-02
-2.7795782e-02
-6.5517412e-02
-7.3039604e-02
-5.9626384e-02
-4.7274031e-02
-3.2692009e-02
-2.3496367e-02
-3.0125350e-02
-3.9025794e-02
-6.0006774e-02
-9.2647025e-02
-1.1576397e-01
-1.1485276e-01
-8.5593803e-02
-4.1560116e-02
1.1825636e-02
5.9763462e-02
8.6777431e-02
9.8004868e-02
7.8862405e-02
3.1690919e-02
-1.0804283e-02
-2.8379155e-02
-2.8854667e-02
-2.6163164e-02
-1.0604690e-02
4.3486384e-03
2.2509045e-03
-9.2400779e-03
-3.9353149e-02
-7.7190641e-02
-9.5152308e-02
-8.4455247e-02
-5.4955132e-02
-2.1345504e-02
1.6679844e-02
4.1858005e-02
4.6738968e-02
4.5272767e-02
2.1309183e-02
-2.3337713e-02
-5.7658362e-02
-6.2373426e-02
-3.4292125e-02
1.8272130e-02
8.4003831e-02
1.2717450e-01
1.3330901e-01
1.2127397e-01
8.3564810e-02
2.4780298e-02
-2.8184203e-02
-5.4467382e-02
-6.2583838e-02
-7.1150916e-02
-5.8863018e-02
-2.9667733e-02
-3.0408105e-03
2.2053551e-02
2.3844638e-02
1.0145287e-02
1.4619455e-02
4.8903666e-02
9.6460937e-02
1.3708778e-01
1.8161064e-01
2.0729275e-01
1.9811590e-01
1.7940861e-01
1.4317327e-01
9.1878064e-02
5.4271901e-02
4.8956391e-02
5.8274817e-02
5.4397550e-02
5.1247220e-02
3.4732002e-02
-1.5199824e-02
-7.7715174e-02
-1.4756620e-01
-2.1512696e-01
-2.6080614e-01
-2.7435963e-01
-2.6712420e-01
-2.6133419e-01
-2.4607578e-01
-2.0911906e-01
-1.5383612e-01
-9.8196957e-02
-6.7074658e-02
-4.7266499e-02
-1.3046490e-02
4.7121315e-02
1.1334237e-01
1.5992222e-01
2.0130100e-01
2.3101751e-01
2.4071890e-01
2.3637598e-01
1.9276258e-01
1.1572824e-01
4.7892898e-02
1.5462444e-02
3.7403084e-03
-9.4405358e-03
-9.4709393e-03
5.7851416e-03
2.7695489e-02
4.8805192e-02
5.3229659e-02
4.5730125e-02
3.7161881e-02
3.8315679e-02
3.2777032e-02
-3.2881318e-03
-4.3176733e-02
-6.7414278e-02
-7.8780613e-02
-9.1457389e-02
-1.2144120e-01
-1.5192347e-01
-1.6572707e-01
-1.5654262e-01
-1.4490378e-01
-1.5499957e-01
-1.6976758e-01
-1.8433225e-01
-2.0011119e-01
-2.0640745e-01
-1.9932960e-01
-1.7440050e-01
-1.3163415e-01
-6.8814227e-02
-9.4977781e-04
4.7496170e-02
8.6179372e-02
1.3068184e-01
1.8833381e-01
2.4842995e-01
2.8370462e-01
2.8862330e-01
2.7507722e-01
2.6354546e-01
2.4353356e-01
1.9705666e-01
1.4565649e-01
1.0127835e-01
7.3533079e-02
5.7509289e-02
2.6402022e-02
-1.4868506e-02
-4.8510491e-02
-6.5943819e-02
-7.9752126e-02
-1.0258565e-01
-1.2057909e-01
-1.2807027e-01
-1.1830714e-01
-1.0422004e-01
-1.1158612e-01
-1.2077904e-01
-1.1064214e-01
-7.8987641e-02
-4.9529426e-02
-4.4912118e-02
-4.7628383e-02
-4.5513573e-02
-3.2643559e-02
-1.6778087e-02
-9.9621070e-03
1.0827902e-03
2.4338328e-02
6.3382128e-02
9.5998446e-02
9.4683119e-02
6.6367139e-02
1.8259808e-02
-2.8683249e-02
-6.1189485e-02
-8.0844434e-02
-8.2588590e-02
-7.2346888e-02
-5.4508648e-02
-4.0222927e-02
-3.3391162e-02
-2.1729491e-02
-4.4314735e-03
2.4355007e-02
5.1780263e-02
5.6898456e-02
5.5256474e-02
6.2423022e-02
8.5609508e-02
1.1012380e-01
1.1681792e-01
1.0966517e-01
9.2992368e-02
8.7181606e-02
9.1770511e-02
8.2320912e-02
5.6387504e-02
1.8569989e-02
-1.8720234e-02
-4.9524421e-02
-7.4671095e-02
-9.0253396e-02
-9.6361998e-02
-8.6418178e-02
-6.2587556e-02
-2.9983421e-02
8.3916121e-03
4.0069497e-02
6.2985478e-02
6.8832330e-02
5.5171328e-02
3.6926642e-02
1.8648085e-02
1.1134068e-02
1.6824360e-02
2.8594003e-02
4.4344371e-02
5.3691228e-02
4.8869647e-02
2.0727179e-02
-2.5515038e-02
-7.1722354e-02
-1.1147952e-01
-1.3562975e-01
-1.4622246e-01
-1.4886697e-01
-1.3715173e-01
-1.1240146e-01
-7.7153838e-02
-4.2524260e-02
-1.7402581e-02
5.9153799e-03
2.8279648e-02
5.2137958e-02
7.6466488e-02
9.5194456e-02
1.0072480e-01
8.2797858e-02
4.4324469e-02
-1.0780650e-02
-6.9273294e-02
-1.2044996e-01
-1.6466488e-01
-1.8969161e-01
-1.8929055e-01
-1.6141252e-01
-1.0611053e-01
-4.1474259e-02
9.8506413e-03
3.6305553e-02
4.9573370e-02
5.1266605e-02
3.5244803e-02
2.7966824e-02
4.3699648e-02
7.7226168e-02
1.2097710e-01
1.5635934e-01
1.6480722e-01
1.4183442e-01
1.1162241e-01
8.8159910e-02
6.9924714e-02
7.2336304e-02
9.6865436e-02
1.3399298e-01
1.7547101e-01
2.0540655e-01
2.0073564e-01
1.5380353e-01
1.0372038e-01
6.6056663e-02
2.4713639e-02
-1.0147234e-02
-3.5014970e-02
-5.7546127e-02
-8.4900215e-02
-1.2403493e-01
-1.7214620e-01
-2.1598224e-01
-2.3556918e-01
-2.3448547e-01
-2.3008889e-01
-2.2291889e-01
-2.1185840e-01
-1.9022352e-01
-1.5907815e-01
-1.3473016e-01
-1.2749025e-01
-1.3715929e-01
-1.4253996e-01
-1.3741964e-01
-1.2991381e-01
-1.1589160e-01
-9.7823058e-02
-6.6802112e-02
-1.8086155e-02
3.4091792e-02
7.3922040e-02
8.9442607e-02
8.4926720e-02
6.1495041e-02
3.1816377e-02
1.6636275e-02
1.2091995e-02
2.4142528e-02
5.2771415e-02
7.2145280e-02
5.7402491e-02
1.5003598e-02
-2.1329392e-02
-4.7145776e-02
-5.7415853e-02
-3.8191909e-02
-1.1475455e-03
4.8337479e-02
1.0461794e-01
1.4893526e-01
1.5859055e-01
1.4253915e-01
1.4151379e-01
1.4659822e-01
1.4705705e-01
1.6140968e-01
1.8239173e-01
2.1205997e-01
2.3885822e-01
2.3012133e-01
1.7710857e-01
1.0534355e-01
6.1051875e-02
4.5582814e-02
3.4657055e-02
2.0156474e-02
2.2193064e-04
-1.1375294e-02
-1.0565365e-02
-6.2411779e-03
-1.7710767e-02
-4.9903258e-02
-7.0640429e-02
-6.9397588e-02
-4.1427925e-02
8.3059455e-03
5.0119962e-02
8.8569333e-02
1.2866349e-01
1.5550425e-01
1.5110812e-01
1.1809167e-01
8.6400929e-02
5.3383697e-02
2.0854081e-02
-4.3585407e-03
-3.9501953e-02
-7.0219869e-02
-7.8625606e-02
-7.1590629e-02
-6.8933685e-02
-7.6787868e-02
-8.8383220e-02
-1.1485387e-01
-1.4392495e-01
-1.6160696e-01
-1.7792533e-01
-1.8908014e-01
-1.9314860e-01
-1.9323845e-01
-1.9524688e-01
-2.0211847e-01
-2.0287950e-01
-1.9954624e-01
-1.9249681e-01
-1.7400984e-01
-1.4469957e-01
-1.0552861e-01
-6.3846082e-02
-2.6735017e-02
-3.6408978e-03
6.3473077e-03
2.6079964e-02
6.1099163e-02
1.0490502e-01
1.3989725e-01
1.5529802e-01
1.7452230e-01
2.0312644e-01
2.3067624e-01
2.3883896e-01
2.2078155e-01
1.9647210e-01
1.7023546e-01
1.5678886e-01
1.4490301e-01
1.0363893e-01
5.4236167e-02
1.5613419e-02
-8.6264886e-03
-2.9244948e-02
-5.8804394e-02
-8.9190028e-02
-1.1991761e-01
-1.4027854e-01
-1.6305447e-01
-2.1063173e-01
-2.5719278e-01
-2.8344408e-01
-2.8889788e-01
-2.8164959e-01
-2.6896515e-01
-2.4575584e-01
-2.1440124e-01
-1.6773105e-01
-1.0965475e-01
-4.7722846e-02
3.3232751e-02
1.2880201e-01
2.1783194e-01
2.7500959e-01
3.0109873e-01
3.1407113e-01
3.0939590e-01
2.9450980e-01
2.5750088e-01
1.9355669e-01
1.4399765e-01
1.2205442e-01
1.1315036e-01
9.4894168e-02
6.8354201e-02
5.1264004e-02
3.8630834e-02
4.0003782e-02
4.1058177e-02
2.0092753e-02
4.2509099e-03
2.3092264e-03
6.5582125e-03
1.0074146e-02
1.2638572e-02
2.0314431e-02
2.5393409e-02
3.8066789e-02
4.0437709e-02
8.8431221e-03
-2.2729901e-02
-3.5021022e-02
-3.7437931e-02
-4.5926539e-02
-6.2682127e-02
-8.1332036e-02
-1.0947386e-01
-1.3474718e-01
-1.6074444e-01
-1.9362394e-01
-2.0662138e-01
-1.9421979e-01
-1.6847141e-01
-1.4523481e-01
-1.3163114e-01
-1.2682887e-01
-1.3128343e-01
-1.2836927e-01
-1.2431478e-01
-1.3028711e-01
-1.2579632e-01
-1.0210254e-01
-6.1656731e-02
-1.5090146e-02
3.3060279e-02
8.1480631e-02
1.1941947e-01
1.5410574e-01
1.7427081e-01
1.6843042e-01
1.6058696e-01
1.6991786e-01
1.9826677e-01
2.2611778e-01
2.3871152e-01
2.3403970e-01
2.0314281e-01
1.4626589e-01
6.6119365e-02
-2.4376162e-02
-1.0323170e-01
-1.5896387e-01
-1.8209661e-01
-1.6841018e-01
-1.1643365e-01
-4.8402590e-02
7.0176706e-03
4.5545393e-02
4.4723767e-02
2.5835141e-03
-4.4355796e-02
-7.6239866e-02
-8.2785059e-02
-5.3515349e-02
1.8101273e-02
1.0431211e-01
1.6839687e-01
2.0429552e-01
1.9149128e-01
1.2602611e-01
3.7199580e-02
-5.3496565e-02
-1.2527880e-01
-1.6110345e-01
-1.5101304e-01
-1.1545951e-01
-8.1501168e-02
-6.0779866e-02
-7.2898052e-02
-1.0818962e-01
-1.4743269e-01
-1.8235309e-01
-1.9980494e-01
-1.9511754e-01
-1.6269828e-01
-1.1320563e-01
-6.8967726e-02
-4.4255968e-02
-5.3271233e-02
-7.8813051e-02
-8.9024488e-02
-7.3434906e-02
-3.4387643e-02
2.0527542e-02
8.0413835e-02
1.1762058e-01
1.2953381e-01
1.4740948e-01
1.7379301e-01
1.9132277e-01
1.8196765e-01
1.4936798e-01
1.1756257e-01
1.0239793e-01
1.2172092e-01
1.5746043e-01
1.8270532e-01
1.9529515e-01
1.9505177e-01
1.8946166e-01
1.5339713e-01
7.1264675e-02
-2.1704694e-02
-8.7371340e-02
-1.1315771e-01
-1.2209798e-01
-1.1874307e-01
-9.6982330e-02
-6.4740995e-02
-2.3868602e-02
-5.7206135e-03
-1.9177962e-02
-2.9818515e-02
-1.4109308e-02
3.0134040e-02
7.3614853e-02
1.0339604e-01
1.1755609e-01
1.0276321e-01
6.1968779e-02
-1.1467059e-02
-1.1201337e-01
-2.0556612e-01
-2.6373831e-01
-2.7688382e-01
-2.5566910e-01
-2.1552889e-01
-1.8378770e-01
-1.7009957e-01
-1.5359232e-01
-1.3304702e-01
-1.0230295e-01
-4.2135898e-02
4.9775060e-02
1.4827307e-01
2.0968628e-01
2.2816164e-01
2.2508383e-01
2.1197844e-01
1.8773260e-01
1.3988158e-01
8.1565236e-02
3.7494205e-02
2.0975093e-02
3.0349127e-02
4.9840693e-02
8.2771229e-02
1.1942560e-01
1.4413656e-01
1.5783240e-01
1.4333553e-01
1.0935109e-01
9.0997283e-02
1.0307097e-01
1.2580088e-01
1.2246855e-01
9.6332574e-02
5.3828035e-02
-3.5441953e-03
-6.4262302e-02
-1.4317218e-01
-2.3353608e-01
-3.0049038e-01
-3.2567832e-01
-3.1454245e-01
-2.8274964e-01
-2.3398900e-01
-1.7374305e-01
-1.1109150e-01
-6.2722616e-02
-5.1780453e-02
-6.3986595e-02
-6.3072922e-02
-2.9602610e-02
2.5631752e-02
7.9830086e-02
1.3019594e-01
1.7370785e-01
2.0923164e-01
2.2991762e-01
2.1342992e-01
1.6494643e-01
1.1560580e-01
9.6483984e-02
1.0977684e-01
1.3194159e-01
1.4824260e-01
1.4953493e-01
1.4335614e-01
1.2691983e-01
6.6368233e-02
-3.9862312e-02
-1.5172244e-01
-2.3208664e-01
-2.7550553e-01
-2.9438468e-01
-2.9464026e-01
-2.8544883e-01
-2.6225040e-01
-2.2866177e-01
-2.1060531e-01
-2.0095623e-01
-1.8092853e-01
-1.4156977e-01
-9.1510354e-02
-4.7973600e-02
-1.4758740e-03
3.4210482e-02
4.1224212e-02
3.8922471e-02
4.3585402e-02
6.7770098e-02
1.2112124e-01
2.0250173e-01
2.8905924e-01
3.4688426e-01
3.5889674e-01
3.0990940e-01
2.2018218e-01
1.2968200e-01
4.0110902e-02
-4.1183741e-02
-9.5976145e-02
-1.1452738e-01
-9.9617139e-02
-6.5004475e-02
-1.3158291e-02
4.3049442e-02
7.3884474e-02
5.6334139e-02
-3.5447690e-03
-6.4535556e-02
-9.3760954e-02
-8.6535732e-02
-5.8918804e-02
-2.6272068e-02
1.3622023e-02
5.1662934e-02
7.8113500e-02
8.7625548e-02
7.5852727e-02
5.9943602e-02
5.3375064e-02
6.0343510e-02
6.8682046e-02
6.4531902e-02
5.1898874e-02
2.4672031e-02
-3.5291043e-03
-2.8991597e-02
-7.0372020e-02
-1.1334415e-01
-1.4181313e-01
-1.4671828e-01
-1.4173716e-01
-1.4823866e-01
-1.4506769e-01
-1.1388122e-01
-5.3801069e-02
1.4250858e-02
5.9730186e-02
8.1485061e-02
8.3656444e-02
7.3730583e-02
4.1799745e-02
-2.0722208e-02
-8.4828020e-02
-1.3478228e-01
-1.6554654e-01
-1.6750425e-01
-1.3723111e-01
-7.7761853e-02
-3.4409930e-04
8.0354209e-02
1.4963119e-01
1.9830712e-01
2.2202430e-01
2.2985310e-01
2.4260835e-01
2.4512938e-01
1.9853221e-01
1.0575196e-01
1.9464565e-03
-8.4280962e-02
-1.4865174e-01
-1.9467848e-01
-2.1543103e-01
-2.0829175e-01
-1.7910626e-01
-1.3709872e-01
-8.5921174e-02
-2.6363119e-02
3.3180039e-02
8.2317179e-02
1.0959186e-01
1.1683969e-01
1.0254161e-01
6.3039501e-02
2.9922006e-02
1.4949075e-02
1.4326742e-03
-9.9191380e-03
-1.0735163e-02
2.2564472e-03
1.6429303e-02
2.3894133e-02
2.1360628e-02
2.0718773e-03
-2.2253040e-02
-4.4967218e-02
-6.5258907e-02
-7.9172474e-02
-8.7849502e-02
-8.8610951e-02
-8.6176662e-02
-7.9844128e-02
-6.1778803e-02
-3.1567897e-02
1.1629008e-02
5.5458837e-02
9.1649110e-02
1.2143139e-01
1.3830308e-01
1.3753672e-01
1.0371032e-01
3.9162547e-02
-3.8240953e-02
-1.2460912e-01
-1.9986105e-01
-2.5060673e-01
-2.8016810e-01
-2.8436787e-01
-2.6052210e-01
-2.1274866e-01
-1.5230627e-01
-8.7335847e-02
-2.2249328e-02
3.5399631e-02
8.4202387e-02
1.2783447e-01
1.6377233e-01
1.7477548e-01
1.4987330e-01
9.6063308e-02
2.6877131e-02
-2.8332931e-02
-5.6320270e-02
-6.4790906e-02
-4.6765225e-02
-3.9598643e-03
5.2055708e-02
1.1415857e-01
1.7150955e-01
2.0354335e-01
1.9860687e-01
1.7648230e-01
1.3618080e-01
7.3886387e-02
2.4332128e-02
-3.7939324e-04
-7.4055102e-03
-2.2228452e-03
-9.1465926e-04
-1.8565064e-02
-4.9113571e-02
-6.1563916e-02
-5.0559934e-02
-2.7835909e-02
1.2935303e-02
6.6890844e-02
1.2930368e-01
1.9270560e-01
2.3420405e-01
2.2879017e-01
1.6936597e-01
9.5980722e-02
3.2441783e-02
-2.8762476e-02
-7.4227935e-02
-9.9249969e-02
-1.1392483e-01
-1.2778802e-01
-1.4536425e-01
-1.6057811e-01
-1.6602851e-01
-1.5905615e-01
-1.5523694e-01
-1.6856395e-01
-1.8797399e-01
-2.0075637e-01
-1.9648251e-01
-1.7199241e-01
-1.4241106e-01
-1.2904188e-01
-1.3348877e-01
-1.2936445e-01
-1.1307294e-01
-9.4278139e-02
-6.4694887e-02
-2.4790218e-02
2.8902290e-02
9.6855216e-02
1.6626481e-01
2.1432366e-01
2.3180719e-01
2.4793168e-01
2.6337043e-01
2.6926293e-01
2.7465083e-01
2.7254787e-01
2.7277530e-01
2.7544353e-01
2.5740684e-01
1.9734511e-01
9.9001355e-02
8.7531438e-03
-5.4811887e-02
-9.9482268e-02
-1.2752777e-01
-1.5024762e-01
-1.6159214e-01
-1.5532267e-01
-1.3812241e-01
-1.2915170e-01
-1.4206362e-01
-1.5941445e-01
-1.7703792e-01
-1.9321966e-01
-1.9570093e-01
-1.8362326e-01
-1.5259248e-01
-1.0544113e-01
-5.1649378e-02
-4.6624137e-03
2.9807516e-02
7.1106769e-02
1.1719281e-01
1.5449177e-01
1.8009378e-01
1.9278855e-01
2.0625871e-01
2.1504159e-01
1.9436148e-01
1.3123663e-01
4.3025035e-02
-3.5319291e-02
-9.8012486e-02
-1.4208721e-01
-1.6007186e-01
-1.5789472e-01
-1.3958139e-01
-1.1359478e-01
-8.4568050e-02
-6.2832763e-02
-5.2005419e-02
-3.8936670e-02
-2.9321575e-02
-1.7279093e-02
-6.8622104e-03
-1.7253851e-02
-2.3776475e-02
-6.0369113e-03
2.9460909e-02
6.7370516e-02
1.0313029e-01
1.4589024e-01
1.8439279e-01
2.2018783e-01
2.4822784e-01
2.4937126e-01
2.4073684e-01
2.3187993e-01
2.1683537e-01
1.8687887e-01
1.3999666e-01
8.9527099e-02
3.8535524e-02
-2.1426065e-03
-3.8844599e-02
-9.1523275e-02
-1.4700049e-01
-1.9051946e-01
-2.1917069e-01
-2.2685630e-01
-2.0875527e-01
-1.7144804e-01
-1.2804128e-01
-8.3349698e-02
-4.8811910e-02
-3.3924289e-02
-2.3426518e-02
-6.9169729e-03
8.8807800e-03
4.8851519e-03
-2.7334580e-02
-6.8755549e-02
-1.0390916e-01
-1.2839385e-01
-1.5498352e-01
-1.9300712e-01
-2.2200993e-01
-2.2788840e-01
-2.1205392e-01
-1.8729734e-01
-1.6529035e-01
-1.3563680e-01
-9.2072352e-02
-3.9137779e-02
4.6687633e-03
2.7996287e-02
5.5486479e-02
1.0178769e-01
1.5486716e-01
1.9123215e-01
2.0324521e-01
2.0159218e-01
1.9526662e-01
1.9654191e-01
1.8250659e-01
1.4039176e-01
1.0570415e-01
8.4822642e-02
5.9603783e-02
2.6353571e-02
5.1771412e-04
-1.3369423e-02
-2.6197899e-02
-2.7950399e-02
-2.9115536e-02
-4.6843825e-02
-6.3254670e-02
-7.1403879e-02
-7.7626311e-02
-8.7766726e-02
-9.5386961e-02
-7.8526598e-02
-3.1797953e-02
2.9390623e-02
6.5230832e-02
6.2715296e-02
5.8457265e-02
6.5648717e-02
6.7263227e-02
4.6344570e-02
1.7179132e-02
-2.0454988e-03
-1.5199366e-02
-1.8443459e-02
-3.5548486e-02
-7.8827551e-02
-1.1339105e-01
-1.3621259e-01
-1.7710234e-01
-2.4057316e-01
-2.9530822e-01
-3.1574436e-01
-2.9648178e-01
-2.3746197e-01
-1.6680617e-01
-1.1135502e-01
-6.1404036e-02
-1.1409945e-02
3.1675726e-02
6.2154336e-02
9.2565597e-02
1.3048572e-01
1.6895248e-01
2.1600052e-01
2.5876986e-01
2.8947228e-01
3.1674005e-01
3.2354580e-01
2.9506518e-01
2.4284407e-01
2.0135931e-01
1.8219173e-01
1.7186311e-01
1.6938407e-01
1.5864430e-01
1.3085916e-01
9.3915125e-02
4.2939528e-02
-1.5021404e-02
-6.3764311e-02
-8.4044200e-02
-6.5700117e-02
-2.3020629e-02
2.4260850e-02
5.2884346e-02
5.1114117e-02
2.4381605e-02
-1.6709464e-02
-5.9508654e-02
-8.4849326e-02
-6.5350512e-02
-1.8523642e-02
1.9357924e-02
4.6855036e-02
4.8674127e-02
1.8329931e-02
-1.7202977e-02
-3.5353364e-02
-2.9312856e-02
-2.7908056e-03
4.1922538e-02
7.9855943e-02
9.2949357e-02
9.6747977e-02
8.5692345e-02
5.3065070e-02
1.3315301e-02
-2.2357767e-02
-5.0102699e-02
-7.1219343e-02
-8.9367459e-02
-1.2499735e-01
-1.8260824e-01
-2.3395087e-01
-2.6668284e-01
-2.8549644e-01
-3.0303936e-01
-3.2052072e-01
-3.1292685e-01
-2.6392659e-01
-1.7287318e-01
-6.4926225e-02
3.3038445e-02
1.1742402e-01
1.8132299e-01
2.2247224e-01
2.2473995e-01
1.8281344e-01
1.2621000e-01
8.1451205e-02
6.1344153e-02
4.3136421e-02
6.3987087e-03
-2.9131910e-02
-4.5408851e-02
-4.4183913e-02
-3.5574821e-02
-1.4736968e-02
3.0186342e-02
9.3213591e-02
1.5378936e-01
1.8003245e-01
1.7225531e-01
1.4897316e-01
1.0790812e-01
5.4846016e-02
-1.3869445e-02
-8.8816883e-02
-1.3449953e-01
-1.3603970e-01
-9.8143818e-02
-5.3512282e-02
-2.6288053e-02
-1.5045851e-02
-1.8332590e-02
-2.4008915e-02
-4.0963221e-02
-6.5595921e-02
-6.8001542e-02
-3.8857749e-02
1.8434428e-02
7.3564677e-02
1.0532586e-01
1.1373491e-01
1.0087619e-01
8.3006699e-02
4.9209724e-02
3.0815825e-04
-2.9974854e-02
-2.6211248e-02
1.2449525e-02
6.9065340e-02
1.2719026e-01
1.6793017e-01
1.7675768e-01
1.6776237e-01
1.4061811e-01
1.0040814e-01
6.9158292e-02
5.5948013e-02
5.1956083e-02
3.8039316e-02
2.2393955e-02
2.3923574e-02
4.0906668e-02
