6.2417199e-03
8.5942430e-02
1.5049953e-01
1.8337968e-01
1.9749738e-01
2.0080131e-01
1.9589808e-01
1.7979989e-01
1.4394236e-01
1.0213395e-01
6.7399296e-02
4.4347102e-02
1.7944884e-02
-2.9860594e-02
-7.8625218e-02
-1.1068597e-01
-1.2745945e-01
-1.4123742e-01
-1.6345008e-01
-1.8297239e-01
-1.9115358e-01
-1.8452748e-01
-1.7022859e-01
-1.5815732e-01
-1.3910150e-01
-1.1073712e-01
-6.9188944e-02
-2.0324658e-02
2.0325230e-02
6.1897872e-02
1.1149101e-01
1.7523201e-01
2.4626414e-01
3.0994294e-01
3.6745253e-01
3.9679455e-01
3.7757326e-01
3.1321363e-01
2.2467926e-01
1.5127823e-01
1.1674104e-01
1.2576663e-01
1.5477631e-01
1.7685142e-01
1.8644724e-01
1.6101677e-01
1.0436761e-01
3.5029570e-02
-5.2262381e-02
-1.4206412e-01
-2.2617496e-01
-3.0501808e-01
-3.6867326e-01
-4.1566194e-01
-4.3921939e-01
-4.2847582e-01
-3.8146965e-01
-3.1691169e-01
-2.4986159e-01
-1.7889192e-01
-1.0992981e-01
-3.0928286e-02
6.0138488e-02
1.4671302e-01
2.2600748e-01
2.7798351e-01
2.9057814e-01
2.6685395e-01
2.1256068e-01
1.3841037e-01
5.2093603e-02
-1.7426984e-02
-6.6209245e-02
-1.1256605e-01
-1.4510703e-01
-1.5156855e-01
-1.2045675e-01
-6.4645401e-02
-8.4555552e-03
4.8200777e-02
9.7022211e-02
1.3036617e-01
1.3752342e-01
1.2361867e-01
1.0643295e-01
7.0977603e-02
2.2259788e-02
-2.4553957e-02
-7.0306698e-02
-1.1183535e-01
-1.4961134e-01
-1.6057680e-01
-1.4306870e-01
-1.1947441e-01
-9.3686318e-02
-6.8605681e-02
-2.3058191e-02
4.3205613e-02
1.0558276e-01
1.6304365e-01
2.0801898e-01
2.2656140e-01
2.0666695e-01
1.6504685e-01
1.2983406e-01
1.0498863e-01
9.2249823e-02
7.1175721e-02
3.9207206e-02
1.7257203e-02
8.0847991e-03
1.0845992e-02
-1.2062745e-04
-2.7275093e-02
-4.8567618e-02
-6.2303282e-02
-5.7593330e-02
-3.9695139e-02
-1.5094289e-02
1.6686739e-02
3.5540443e-02
2.5824373e-02
-2.3184769e-02
-9.3293911e-02
-1.4674662e-01
-1.7032110e-01
-1.6550548e-01
-1.4947500e-01
-1.2661050e-01
-9.2606182e-02
-5.5039130e-02
-1.5409056e-02
6.0521348e-03
9.5347474e-03
1.7688369e-02
3.3282779e-02
5.4716849e-02
6.1492566e-02
5.7188654e-02
6.4467676e-02
8.1449030e-02
1.0276263e-01
1.0617220e-01
9.2016336e-02
8.0810943e-02
7.2493538e-02
6.4872287e-02
3.9022736e-02
-1.1880730e-03
-2.1811040e-02
-1.0734567e-02
1.9809609e-02
3.9709305e-02
5.0370067e-02
6.8979701e-02
9.3685015e-02
1.2412690e-01
1.3644315e-01
1.2682079e-01
1.1371309e-01
9.5478554e-02
6.9705050e-02
3.1223247e-02
-7.4876896e-04
-2.0693807e-02
-4.6167802e-02
-7.6567956e-02
-1.0985560e-01
-1.2578210e-01
-1.2679981e-01
-1.3454976e-01
-1.5088458e-01
-1.7697827e-01
-1.9295440e-01
-1.8082755e-01
-1.4212018e-01
-1.0041959e-01
-7.7864992e-02
-5.1095263e-02
-2.0206404e-02
-4.6253879e-03
9.8252882e-04
-1.6078041e-03
6.9173774e-03
2.9984081e-02
4.9724336e-02
6.1545969e-02
6.1648013e-02
7.0046446e-02
8.8503072e-02
9.8045983e-02
9.6052910e-02
8.1105750e-02
7.5279563e-02
8.0067206e-02
7.5590631e-02
6.2969395e-02
4.3794897e-02
3.7050181e-02
4.5770289e-02
5.3249843e-02
5.2537584e-02
3.9127732e-02
3.5463656e-02
3.9895565e-02
2.9020610e-02
1.5280039e-03
-4.3066643e-02
-8.3573057e-02
-1.0499226e-01
-1.1301866e-01
-1.2216089e-01
-1.4656559e-01
-1.6524113e-01
-1.6947086e-01
-1.7030605e-01
-1.7466308e-01
-1.8905444e-01
-1.9252964e-01
-1.8554941e-01
-1.8926870e-01
-2.0485721e-01
-2.3118169e-01
-2.4336882e-01
-2.1829552e-01
-1.5709884e-01
-7.9802209e-02
-5.2959542e-03
6.8550441e-02
1.2039657e-01
1.4506402e-01
1.6674486e-01
1.9208494e-01
2.2189828e-01
2.3661600e-01
2.3640016e-01
2.4271575e-01
2.5690584e-01
2.7554145e-01
2.7223288e-01
2.4700440e-01
2.2586441e-01
2.1202449e-01
2.0346237e-01
1.7444612e-01
1.2409620e-01
7.8221619e-02
4.0762561e-02
7.6774058e-03
-3.4039882e-02
-6.9694477e-02
-8.7444717e-02
-9.9114158e-02
-1.0937436e-01
-1.2740622e-01
-1.3633791e-01
-1.2813395e-01
-1.1640167e-01
-1.0434357e-01
-9.9121621e-02
-8.2880959e-02
-5.2234595e-02
-2.4729432e-02
-2.6706368e-03
8.8414303e-03
3.0250192e-02
6.2287099e-02
8.2827242e-02
9.1855689e-02
8.0691548e-02
6.3408372e-02
5.1240880e-02
3.1560780e-02
3.7535656e-03
-3.2089053e-02
-5.5176459e-02
-6.3741846e-02
-7.7795292e-02
-9.3445939e-02
-1.0484024e-01
-9.6307943e-02
-7.6404256e-02
-6.7723614e-02
-6.6459178e-02
-6.6232414e-02
-4.4602170e-02
-6.0209290e-03
2.2627593e-02
3.6415815e-02
3.1646876e-02
2.9931464e-02
3.8204549e-02
4.0332219e-02
3.4536129e-02
1.9212125e-02
1.7696250e-02
3.1693327e-02
3.7879940e-02
3.1931922e-02
8.2932934e-03
-1.4238613e-02
-2.9442889e-02
-5.3435123e-02
-8.7420816e-02
-1.3183229e-01
-1.6387786e-01
-1.8113654e-01
-2.0222257e-01
-2.1840785e-01
-2.2055721e-01
-1.9192985e-01
-1.3754565e-01
-7.9894965e-02
-2.3373510e-02
2.9211061e-02
8.6226542e-02
1.3564499e-01
1.6473506e-01
1.8321401e-01
1.9180862e-01
1.9784530e-01
1.9388313e-01
1.7908123e-01
1.6763255e-01
1.5897766e-01
1.6201942e-01
1.6595321e-01
1.6160866e-01
1.5915993e-01
1.5522809e-01
1.5893074e-01
1.6576929e-01
1.6636672e-01
1.6534063e-01
1.5745084e-01
1.4636762e-01
1.2221815e-01
8.1523800e-02
3.3274728e-02
-2.6797687e-02
-8.6464793e-02
-1.4444745e-01
-2.0437575e-01
-2.6477306e-01
-3.3197151e-01
-3.9334112e-01
-4.3576116e-01
-4.5397126e-01
-4.4567849e-01
-4.1576425e-01
-3.6562600e-01
-2.8954747e-01
-1.8153723e-01
-6.5096119e-02
3.5644135e-02
1.2214228e-01
1.7719535e-01
2.0442572e-01
2.2204313e-01
2.2728983e-01
2.2204411e-01
1.9815153e-01
1.6868338e-01
1.4607223e-01
1.2044237e-01
9.1346524e-02
5.5875440e-02
3.3369417e-02
2.9641724e-02
2.8215306e-02
2.5186794e-02
1.4827473e-02
1.6130801e-02
3.2110957e-02
4.1853983e-02
4.1434617e-02
2.6913927e-02
1.6401554e-02
1.4999564e-02
7.6166996e-03
-4.8796900e-03
-2.4908676e-02
-3.5589510e-02
-3.5559349e-02
-4.2282903e-02
-5.4622000e-02
-7.2457824e-02
-7.5571642e-02
-6.4634387e-02
-6.0490421e-02
-6.1434662e-02
-6.6690247e-02
-5.6657453e-02
-3.0293443e-02
-7.9587904e-03
1.0032410e-02
2.5066132e-02
5.7201749e-02
1.0502156e-01
1.3338707e-01
1.2738798e-01
1.0091878e-01
9.0744091e-02
9.6519886e-02
9.4900520e-02
8.5950717e-02
7.1520013e-02
7.2985779e-02
8.7854099e-02
9.2678213e-02
8.7025518e-02
7.1309298e-02
6.5840111e-02
6.9540101e-02
6.1595691e-02
4.3252000e-02
1.3968160e-02
-8.5735514e-03
-2.4099089e-02
-5.2700856e-02
-9.3353574e-02
-1.4398636e-01
-1.8688469e-01
-2.0180861e-01
-1.9068032e-01
-1.7940001e-01
-1.8747199e-01
-1.9257110e-01
-1.8584251e-01
-1.7938909e-01
-1.8301595e-01
-2.0513137e-01
-2.2246061e-01
-2.1193868e-01
-1.7365607e-01
-1.2885303e-01
-9.7659278e-02
-5.8258183e-02
2.0797767e-03
7.5484780e-02
1.5218765e-01
2.2085823e-01
2.8581885e-01
3.3095283e-01
3.4981247e-01
3.6017873e-01
3.6527951e-01
3.6027661e-01
3.1727625e-01
2.3710521e-01
1.4583306e-01
4.7221907e-02
-4.5670786e-02
-1.1818026e-01
-1.6020371e-01
-1.8816289e-01
-2.2618618e-01
-2.5914839e-01
-2.7001505e-01
-2.5287479e-01
-2.2514470e-01
-2.0903669e-01
-1.9202730e-01
-1.6063475e-01
-1.0685790e-01
-4.5330582e-02
2.1515661e-03
3.4226642e-02
4.8631988e-02
6.9113139e-02
1.0248752e-01
1.3170095e-01
1.5327999e-01
1.6305248e-01
1.6856188e-01
1.5803752e-01
1.2798706e-01
9.2095015e-02
4.9413927e-02
2.3260742e-02
1.4952468e-02
4.5073748e-03
-9.1946754e-03
-2.8501923e-02
-3.2252923e-02
-1.7674084e-02
-3.3755622e-03
7.9686853e-03
5.9362627e-03
5.3097961e-03
1.3648169e-02
1.6401748e-02
1.2092925e-02
-2.0919763e-04
3.1090030e-03
2.1017533e-02
2.8748593e-02
2.7084407e-02
1.7881673e-02
1.8437632e-02
2.3990406e-02
1.6191537e-02
-2.2515931e-03
-3.0139007e-02
-4.2597490e-02
-3.1720882e-02
-1.3915763e-02
8.1315070e-04
2.8621270e-03
1.2570262e-02
3.0984026e-02
3.7697149e-02
3.3386951e-02
2.0277276e-02
1.8757810e-02
2.3032864e-02
7.4944507e-03
-2.5555491e-02
-6.9934643e-02
-1.0057529e-01
-1.1085885e-01
-1.1866974e-01
-1.3116046e-01
-1.5104503e-01
-1.6444203e-01
-1.7522466e-01
-1.9296618e-01
-2.1513356e-01
-2.4458942e-01
-2.6012891e-01
-2.4529563e-01
-2.0360858e-01
-1.5082006e-01
-1.0279095e-01
-4.5479724e-02
1.4325529e-02
6.3622189e-02
1.1125326e-01
1.6061549e-01
2.1212159e-01
2.3928260e-01
2.3999808e-01
2.4060057e-01
2.4605196e-01
2.5703145e-01
2.5235096e-01
2.3407994e-01
2.2637046e-01
2.2943912e-01
2.4727425e-01
2.6267472e-01
2.6442595e-01
2.6481261e-01
2.6502561e-01
2.6536084e-01
2.4866230e-01
2.1734729e-01
1.8762430e-01
1.5285218e-01
1.0818454e-01
5.0265869e-02
-3.4947112e-03
-5.3033581e-02
-1.1806667e-01
-1.8351506e-01
-2.3254753e-01
-2.6198301e-01
-2.7073887e-01
-2.6146966e-01
-2.3844026e-01
-2.0497406e-01
-1.6419722e-01
-1.4182501e-01
-1.5989896e-01
-1.9421716e-01
-2.2245139e-01
-2.4606927e-01
-2.6482214e-01
-2.7765812e-01
-2.8585438e-01
-2.8913910e-01
-2.8435122e-01
-2.6620775e-01
-2.3052918e-01
-1.7609079e-01
-1.0111140e-01
-6.6759706e-03
8.7302381e-02
1.6237842e-01
2.1501493e-01
2.4294559e-01
2.6754327e-01
2.8823081e-01
2.8371378e-01
2.5299212e-01
1.9636528e-01
1.4026512e-01
9.1876462e-02
3.0364857e-02
-3.9276930e-02
-1.0829702e-01
-1.6365871e-01
-1.9474637e-01
-2.0434175e-01
-1.9166735e-01
-1.5538664e-01
-9.6072944e-02
-3.4465596e-02
8.7701638e-03
3.2659692e-02
3.6803491e-02
4.2484861e-02
4.8893735e-02
3.6295246e-02
8.4109053e-03
-3.2303287e-02
-6.5302158e-02
-7.1862258e-02
-5.2673574e-02
-2.4925082e-02
-6.6902243e-03
2.1085667e-02
5.5401806e-02
7.5170236e-02
9.3608392e-02
1.2372304e-01
1.5750083e-01
1.6321329e-01
1.3900983e-01
1.0791685e-01
7.0230774e-02
4.1417581e-02
2.3147018e-02
5.0948671e-03
-9.9031808e-03
-2.4239369e-02
-1.6359810e-02
1.6909607e-02
5.5963237e-02
9.7118455e-02
1.3773164e-01
1.7408593e-01
1.7983342e-01
1.5534762e-01
1.2775220e-01
1.0021941e-01
7.3972399e-02
3.6767625e-02
-1.0639514e-02
-5.0726650e-02
-8.1064526e-02
-1.0992523e-01
-1.4189289e-01
-1.5414058e-01
-1.5146463e-01
-1.5759343e-01
-1.6194022e-01
-1.5403376e-01
-1.2296477e-01
-7.8373870e-02
-4.0689542e-02
-1.0740100e-02
7.9929557e-03
3.3062451e-02
6.8037566e-02
9.5785995e-02
1.1315887e-01
1.0793508e-01
9.1957395e-02
7.6408444e-02
5.1846937e-02
2.0103834e-02
-1.5071448e-02
-3.1564154e-02
-2.6293653e-02
-1.8023360e-02
-1.4846236e-02
-2.1109560e-02
-1.6248048e-02
-1.3333267e-03
3.0724344e-03
-5.0596861e-03
-2.6236419e-02
-3.7570336e-02
-3.7624720e-02
-4.6491522e-02
-6.2081720e-02
-7.8644465e-02
-7.4137658e-02
-5.2628586e-02
-3.7455900e-02
-3.0430645e-02
-3.1379813e-02
-2.1287773e-02
-4.4026040e-03
-1.3761714e-03
-9.1504948e-03
-2.7646777e-02
-3.7967921e-02
-3.2232678e-02
-2.2962905e-02
-1.6399805e-02
-1.6623887e-02
-1.2548503e-03
2.9633335e-02
5.4073918e-02
6.8424253e-02
6.8883717e-02
7.2657444e-02
7.9158787e-02
7.1786238e-02
5.6115667e-02
3.6064819e-02
3.2150623e-02
4.4118619e-02
5.1537620e-02
5.2684820e-02
4.7267557e-02
5.3934766e-02
7.0092734e-02
7.5696541e-02
6.9049343e-02
4.8112916e-02
3.3913553e-02
3.7507990e-02
4.9376433e-02
5.9201515e-02
5.6723796e-02
6.1912845e-02
7.3973503e-02
7.0957114e-02
5.1218239e-02
1.4050338e-02
-2.2228099e-02
-4.0997907e-02
-4.4198945e-02
-5.2203856e-02
-8.5934619e-02
-1.2374773e-01
-1.4552368e-01
-1.5304804e-01
-1.6548605e-01
-2.0143164e-01
-2.3928457e-01
-2.5739137e-01
-2.5545577e-01
-2.4881074e-01
-2.5242144e-01
-2.5148078e-01
-2.3378098e-01
-2.0143655e-01
-1.7158948e-01
-1.6098206e-01
-1.4805838e-01
-1.1335546e-01
-5.5925349e-02
9.0435703e-03
6.5153982e-02
1.1532472e-01
1.4732592e-01
1.6684447e-01
1.9163080e-01
2.2041999e-01
2.5112159e-01
2.5885189e-01
2.4235670e-01
2.2682300e-01
2.1844548e-01
2.1724397e-01
2.0012478e-01
1.6551479e-01
1.3560484e-01
1.1221791e-01
9.4480771e-02
6.7495422e-02
3.7109572e-02
1.9968766e-02
1.0832637e-02
7.5812246e-03
8.7035070e-04
8.9052923e-04
1.6410287e-02
3.7761778e-02
6.4314738e-02
7.3420476e-02
6.3499479e-02
5.6285631e-02
5.3538392e-02
5.5095444e-02
4.0005356e-02
7.3457370e-03
-2.1984121e-02
-4.8762295e-02
-7.6110167e-02
-1.0290502e-01
-1.0661399e-01
-8.9875682e-02
-7.6716631e-02
-6.8453965e-02
-7.0412165e-02
-6.8141504e-02
-5.8089045e-02
-5.6852517e-02
-6.3606383e-02
-7.5750069e-02
-7.1995445e-02
-5.3753507e-02
-4.3543231e-02
-4.2961373e-02
-5.0802902e-02
-4.4943757e-02
-2.5882415e-02
-1.4675176e-02
-1.1841429e-02
-1.8115521e-02
-1.2919834e-02
4.7177520e-03
1.4452424e-02
1.5032407e-02
7.2509577e-03
1.2742722e-02
2.9460963e-02
3.5646515e-02
3.2182651e-02
1.9687153e-02
1.8764009e-02
3.0268405e-02
3.3630677e-02
2.8856336e-02
1.6868507e-02
1.6351811e-02
2.6104192e-02
2.6513026e-02
1.6844573e-02
-3.0992700e-03
-1.1165950e-02
-8.5738395e-03
-1.8417617e-02
-3.8964592e-02
-6.6863996e-02
-8.1345298e-02
-7.6712878e-02
-6.6207637e-02
-5.6201676e-02
-5.4299186e-02
-4.1237316e-02
-1.6352031e-02
2.4640360e-03
1.5865793e-02
2.0334449e-02
2.8691431e-02
3.9648253e-02
3.9078918e-02
2.9389085e-02
1.0860950e-02
9.1691614e-04
-3.4847312e-03
-1.8083940e-02
-3.8100432e-02
-6.2265156e-02
-7.0767566e-02
-6.2250290e-02
-5.4767010e-02
-4.9151389e-02
-4.5594371e-02
-2.6779995e-02
4.3445953e-03
3.1011024e-02
5.5666681e-02
7.8772489e-02
1.0378480e-01
1.1095232e-01
9.6028233e-02
8.0731206e-02
6.9376265e-02
6.0883673e-02
4.1380128e-02
1.8358546e-02
3.5529240e-03
-9.9028953e-03
-2.1593361e-02
-3.2766718e-02
-2.4701293e-02
3.6338906e-03
3.4997091e-02
6.6518622e-02
7.6446038e-02
6.8309140e-02
6.0763536e-02
5.2463259e-02
4.1930480e-02
2.0976629e-02
5.7877407e-03
3.1738139e-03
-2.1452378e-03
-1.3423633e-02
-3.3806848e-02
-4.1545970e-02
-3.2569502e-02
-2.5358081e-02
-2.2835834e-02
-2.9271551e-02
-2.6764129e-02
-1.3711406e-02
-8.1808129e-03
-1.1219785e-02
-2.4071825e-02
-2.6182709e-02
-1.6710696e-02
-1.5118918e-02
-2.1019406e-02
-3.4500582e-02
-3.4601108e-02
-2.0136496e-02
-1.1949870e-02
-1.2785988e-02
-2.3009705e-02
-2.0420109e-02
-4.6425183e-03
4.6939657e-03
5.9827375e-03
-3.4930154e-03
-1.8912369e-03
1.1786178e-02
1.5838070e-02
1.0609902e-02
-2.1945369e-03
-2.0476699e-03
1.0429432e-02
1.4850800e-02
1.1438832e-02
7.2325559e-05
-9.9386317e-04
7.5284618e-03
7.3398108e-03
-1.5888200e-03
-1.9226331e-02
-2.2869961e-02
-1.2085422e-02
-8.4308842e-03
-1.2017898e-02
-2.1933067e-02
-1.7500219e-02
1.2948265e-03
1.3868150e-02
1.8357608e-02
1.3704847e-02
2.0612175e-02
3.8705690e-02
4.3018207e-02
3.0229833e-02
5.4926187e-03
-6.1698272e-03
-3.6785457e-03
-6.4162769e-03
-1.5116787e-02
-3.0153706e-02
-2.9533666e-02
-1.2946107e-02
-2.6913856e-03
-1.2996575e-03
-8.7904439e-03
-2.9681524e-03
1.3843616e-02
1.8990119e-02
1.5959088e-02
7.5858303e-03
1.3985623e-02
3.1284090e-02
3.4205187e-02
2.6827288e-02
1.4315342e-02
1.4649166e-02
2.5303120e-02
2.6878002e-02
2.2993984e-02
1.5128160e-02
1.7629710e-02
2.4579778e-02
1.7815814e-02
1.9637142e-03
-2.1919167e-02
-3.3663232e-02
-3.0880190e-02
-3.3546406e-02
-4.3218627e-02
-5.9398790e-02
-6.1949357e-02
-3.8026388e-02
3.1896547e-03
4.6868076e-02
8.0552734e-02
1.1203813e-01
1.3505919e-01
1.4713587e-01
1.5294234e-01
1.4448160e-01
1.3771131e-01
1.3939773e-01
1.2578256e-01
7.5503432e-02
-3.4014312e-03
-7.8128944e-02
-1.2957677e-01
-1.5415242e-01
-1.7302379e-01
-2.0890247e-01
-2.4488068e-01
-2.6170802e-01
-2.5416451e-01
-2.4019289e-01
-2.4040768e-01
-2.3930570e-01
-2.1914471e-01
-1.7158317e-01
-1.1366122e-01
-6.7928000e-02
-3.5757653e-02
-1.6605089e-02
1.3220352e-02
5.2056261e-02
7.7074459e-02
8.6896977e-02
8.3891067e-02
9.3401539e-02
1.1310539e-01
1.2331083e-01
1.2459558e-01
1.1332507e-01
1.1192324e-01
1.2203985e-01
1.2301066e-01
1.1388116e-01
9.1257821e-02
7.6487961e-02
7.3737120e-02
6.3800916e-02
4.7110794e-02
2.2347796e-02
7.8591885e-03
6.8381044e-03
2.3981084e-03
-4.2231513e-03
-1.3444374e-02
-8.5578066e-03
9.4602609e-03
2.1535337e-02
2.6689271e-02
2.2640924e-02
2.5367877e-02
3.2252909e-02
2.6389582e-02
1.1535060e-02
-9.2157311e-03
-1.4048553e-02
-4.3045529e-03
-1.0300840e-03
-4.6623882e-03
-1.5636008e-02
-1.4941322e-02
-3.7187570e-03
-1.9368539e-03
-9.0431167e-03
-2.4938802e-02
-2.9252600e-02
-2.1215819e-02
-2.1099451e-02
-2.9087890e-02
-4.3978300e-02
-4.4925210e-02
-3.2257680e-02
-2.6377986e-02
-2.7390201e-02
-3.5883962e-02
-3.1368851e-02
-1.4358333e-02
-8.2456767e-03
-1.2420433e-02
-2.3303786e-02
-2.0512837e-02
-6.1202758e-03
-6.7202855e-04
-4.3111944e-03
-1.8469885e-02
-2.0432562e-02
-7.6423587e-03
-1.8382646e-03
-4.0330585e-03
-1.4605014e-02
-1.2874068e-02
1.3826011e-03
6.1861326e-03
3.6042254e-03
-3.0695924e-03
4.1301205e-03
2.1113061e-02
2.6060613e-02
2.2424610e-02
1.3821691e-02
2.0253927e-02
3.9860021e-02
5.0046952e-02
5.1214058e-02
4.6177061e-02
5.3477925e-02
6.5439298e-02
5.9276878e-02
4.1073230e-02
1.6577453e-02
6.9763224e-03
1.1212637e-02
8.4064752e-03
-2.1938346e-03
-2.0349664e-02
-2.6962288e-02
-2.4777629e-02
-3.4012863e-02
-5.2843365e-02
-8.0319962e-02
-1.0529047e-01
-1.1736864e-01
-1.0785536e-01
-8.5785621e-02
-6.9780790e-02
-5.3661708e-02
-3.2432382e-02
5.8499948e-03
5.5216250e-02
9.7055865e-02
1.3105870e-01
1.3867602e-01
1.2348544e-01
1.0468011e-01
8.1234448e-02
5.7337908e-02
3.2975587e-02
2.0682914e-02
2.0621298e-02
1.6914896e-02
5.6374351e-03
-1.7372870e-02
-3.0258534e-02
-2.8830661e-02
-3.0806449e-02
-3.8744196e-02
-5.6844607e-02
-6.4665699e-02
-6.0620291e-02
-6.5206843e-02
-6.9323869e-02
-6.3750849e-02
-3.7187408e-02
2.0069051e-03
3.4158252e-02
5.8071867e-02
7.1696578e-02
9.5437998e-02
1.2918393e-01
1.5155698e-01
1.6021537e-01
1.5304111e-01
1.5240601e-01
1.6195659e-01
1.6342560e-01
1.5380115e-01
1.3004036e-01
1.1415245e-01
1.0640672e-01
8.4192933e-02
4.7186400e-02
-2.6476236e-03
-4.6623943e-02
-7.9830814e-02
-1.1528974e-01
-1.6218507e-01
-2.2860634e-01
-2.9231171e-01
-3.3370204e-01
-3.5514734e-01
-3.5666267e-01
-3.3736564e-01
-2.9711839e-01
-2.5063226e-01
-2.1252511e-01
-1.8090857e-01
-1.5114926e-01
-1.0648292e-01
-5.2948337e-02
-1.0158541e-02
2.1914301e-02
4.3645627e-02
7.7538492e-02
1.2486247e-01
1.6551016e-01
1.9755390e-01
2.0598169e-01
1.8984344e-01
1.5011204e-01
8.6711462e-02
2.8611152e-02
-6.8409344e-03
-1.6468823e-02
-6.3724282e-03
1.3611506e-02
3.3941987e-02
4.4127131e-02
5.8927146e-02
7.5614690e-02
8.2317539e-02
8.5396906e-02
7.9291004e-02
7.2668013e-02
6.5134175e-02
4.9045625e-02
3.2574767e-02
1.5609787e-02
1.1422049e-02
1.1560646e-02
-2.9413040e-03
-2.6255019e-02
-5.3921518e-02
-6.2245477e-02
-4.8961941e-02
-3.2822222e-02
-1.7432499e-02
-6.7633244e-03
1.3062556e-02
3.4715420e-02
4.1788027e-02
3.9698540e-02
2.9216778e-02
2.7464998e-02
2.9864620e-02
1.8707144e-02
-7.5615648e-04
-2.6354288e-02
-4.2661827e-02
-4.5350015e-02
-4.1352663e-02
-3.6649779e-02
-4.1541087e-02
-4.7233188e-02
-5.2345459e-02
-5.5612280e-02
-5.8989667e-02
-7.3314806e-02
-8.5248539e-02
-8.5080196e-02
-6.8625250e-02
-3.7175655e-02
8.1547416e-04
4.0248971e-02
6.5842153e-02
8.5092352e-02
1.0455800e-01
1.1407859e-01
1.1835001e-01
1.1239059e-01
1.0460474e-01
1.0100328e-01
9.0098399e-02
7.8114707e-02
6.3915674e-02
5.5344146e-02
5.5794401e-02
5.2384673e-02
4.2678921e-02
2.0279132e-02
5.2337442e-04
-1.1598567e-02
-3.1652543e-02
-6.0640253e-02
-9.5139896e-02
-1.1067762e-01
-1.0574277e-01
-9.9035510e-02
-9.4396631e-02
-9.4029497e-02
-7.7571084e-02
-4.8251120e-02
-2.8019421e-02
-1.8386860e-02
-1.9864758e-02
-1.0696216e-02
7.5764516e-03
1.2239765e-02
4.7118465e-03
-1.1585912e-02
-1.4506582e-02
-5.1356752e-03
-5.1126820e-03
-1.2562370e-02
-2.3971777e-02
-1.8342610e-02
1.2959891e-03
1.1858021e-02
1.4956817e-02
1.2300112e-02
2.2976382e-02
4.5416673e-02
5.7880152e-02
6.0854214e-02
5.5252601e-02
6.0341888e-02
7.5647318e-02
8.1756239e-02
8.0671673e-02
7.2932404e-02
7.7140123e-02
9.2065357e-02
9.5829178e-02
8.8841948e-02
7.3473703e-02
7.0098945e-02
7.6784228e-02
7.3093394e-02
5.9838195e-02
3.6934824e-02
2.5357689e-02
2.4319029e-02
1.1272450e-02
-1.3989360e-02
-5.0375169e-02
-7.7795246e-02
-8.5373904e-02
-8.3377950e-02
-8.6107269e-02
-1.0503614e-01
-1.1748766e-01
-1.1973946e-01
-1.3039103e-01
-1.5089667e-01
-1.8035083e-01
-2.0002588e-01
-1.9518297e-01
-1.6910122e-01
-1.4079773e-01
-1.2834050e-01
-1.0968597e-01
-7.3049096e-02
-3.0453179e-02
5.2708670e-03
2.3431345e-02
4.4244906e-02
6.8599463e-02
7.7993837e-02
7.2623012e-02
5.2042987e-02
3.2602539e-02
2.8933214e-02
4.3981151e-02
6.4410851e-02
7.3559211e-02
7.9647246e-02
7.0778968e-02
4.1312683e-02
4.2041107e-03
-4.0573262e-02
-7.5151502e-02
-8.7242767e-02
-8.0134626e-02
-6.6099639e-02
-5.9608135e-02
-5.3497664e-02
-4.3991616e-02
-2.1607095e-02
1.1531831e-02
4.0124866e-02
6.5160983e-02
8.0491762e-02
9.8262324e-02
1.2610738e-01
1.5229634e-01
1.7643994e-01
1.8009102e-01
1.6596181e-01
1.5392968e-01
1.4267679e-01
1.2836798e-01
1.0046596e-01
7.3494599e-02
5.5693163e-02
3.3473319e-02
3.6969432e-03
-3.6420310e-02
-6.3947598e-02
-7.5396412e-02
-9.0434281e-02
-1.0788533e-01
-1.2585291e-01
-1.2726870e-01
-1.1578742e-01
-1.1105902e-01
-1.0680060e-01
-1.0225028e-01
-8.8615163e-02
-6.7603503e-02
-5.3984485e-02
-4.8377488e-02
-4.8454412e-02
-3.0732227e-02
1.0049010e-03
2.2108128e-02
3.0545597e-02
2.6392383e-02
3.2617383e-02
4.9891244e-02
5.7676386e-02
5.5853250e-02
4.4065670e-02
4.3223016e-02
5.1329170e-02
4.5653334e-02
2.8755268e-02
5.5553002e-03
-1.9062263e-03
2.6604599e-03
-3.9055601e-03
-1.7973936e-02
-3.4486913e-02
-3.3008747e-02
-1.5753894e-02
-3.7662744e-03
2.3032727e-03
-5.0275395e-03
-1.1974467e-02
-1.0802818e-02
-1.5965143e-02
-2.8971166e-02
-4.9542276e-02
-5.7156552e-02
-5.2608078e-02
-5.6944819e-02
-6.7827600e-02
-8.0810139e-02
-7.4373210e-02
-5.2170427e-02
-3.6541012e-02
-2.5638166e-02
-1.9363419e-02
-1.8664784e-03
2.2285691e-02
3.5059960e-02
4.2352389e-02
4.7173382e-02
6.1801055e-02
7.6850204e-02
7.9797229e-02
8.0269020e-02
7.3679817e-02
7.4235918e-02
8.4810564e-02
9.0282355e-02
9.4963632e-02
1.0164419e-01
1.1378848e-01
1.1069118e-01
8.4248627e-02
5.3026927e-02
1.9837231e-02
-4.0185399e-03
-1.7692124e-02
-2.2821394e-02
-1.9790964e-02
-1.7285935e-02
-7.4324411e-03
1.9093962e-03
6.7473628e-03
1.3488270e-02
1.7127790e-02
1.6949378e-02
-5.5807383e-04
-2.8702376e-02
-5.5450871e-02
-8.7172709e-02
-1.1369411e-01
-1.2672582e-01
-1.1544047e-01
-9.0231740e-02
-7.4174867e-02
-6.6648305e-02
-6.6440234e-02
-5.5239733e-02
-3.4434171e-02
-2.4065197e-02
-2.3855278e-02
-3.2718317e-02
-2.7494842e-02
-7.6800769e-03
5.2857972e-03
9.9857008e-03
4.7474451e-03
1.1310680e-02
3.0625812e-02
4.2286229e-02
4.5760059e-02
3.8806788e-02
4.1350328e-02
5.3868944e-02
5.5910883e-02
4.6009289e-02
2.2930424e-02
1.1417524e-02
1.4392988e-02
1.1325581e-02
3.9841531e-03
-8.3006255e-03
-6.7790534e-03
9.2237994e-03
2.0038735e-02
2.5511361e-02
1.8780131e-02
1.2643803e-02
1.3844468e-02
1.0112034e-02
1.0905732e-03
-1.4892070e-02
-1.8330752e-02
-6.9945130e-03
5.2671487e-04
2.5283880e-03
-1.8978894e-03
6.6526139e-03
2.4990185e-02
3.1097190e-02
2.7668610e-02
1.7425049e-02
1.9060352e-02
2.8993297e-02
2.5629638e-02
1.2264092e-02
-7.5570182e-03
-1.2452210e-02
-2.6375386e-03
-4.3260216e-04
-6.4145654e-03
-1.8923384e-02
-1.7569991e-02
-6.1529094e-03
-8.2236141e-03
-2.1562055e-02
-4.2840474e-02
-5.1479479e-02
-4.2132567e-02
-2.9109495e-02
-1.7253752e-02
-1.0966658e-02
8.5790823e-03
3.9786934e-02
6.4158287e-02
8.1922828e-02
8.9211781e-02
1.0196124e-01
1.1759934e-01
1.1590028e-01
9.9084453e-02
6.9617872e-02
4.5941898e-02
2.7233713e-02
-2.4904776e-03
-4.4603615e-02
-1.0196698e-01
-1.5582992e-01
-1.8702723e-01
-1.9300997e-01
-1.9325451e-01
-2.0835227e-01
-2.2198064e-01
-2.1867466e-01
-1.9610905e-01
-1.7061129e-01
-1.6022578e-01
-1.5246266e-01
-1.3326784e-01
-9.2332140e-02
-4.3790668e-02
-5.6941244e-03
2.7155665e-02
5.2486596e-02
8.7019199e-02
1.3440424e-01
1.7736847e-01
2.1369104e-01
2.2109058e-01
2.0204466e-01
1.8112100e-01
1.6073868e-01
1.4111417e-01
1.1374799e-01
9.2509803e-02
8.7214496e-02
8.5474944e-02
8.4260488e-02
7.1685036e-02
5.9266880e-02
5.6711254e-02
5.2535156e-02
4.4725035e-02
2.4415649e-02
3.5078668e-03
-1.1754800e-02
-3.2067737e-02
-5.5709776e-02
-8.2290017e-02
-9.0434984e-02
-8.0271305e-02
-7.3728380e-02
-7.3184280e-02
-7.9107047e-02
-7.0381412e-02
-4.9871624e-02
-4.1436896e-02
-4.3313055e-02
-5.2841805e-02
-4.9647048e-02
-3.5182695e-02
-3.0303201e-02
-3.3637251e-02
-4.2862908e-02
-3.5094392e-02
-1.1125587e-02
6.3757479e-03
1.7451052e-02
2.3198272e-02
3.8035510e-02
5.3362332e-02
5.2127529e-02
4.0959081e-02
2.1112443e-02
1.5449033e-02
2.6045780e-02
3.1031500e-02
2.8648054e-02
1.7427072e-02
1.7921476e-02
3.0167433e-02
3.2326002e-02
2.4077585e-02
6.2333094e-03
1.8709203e-03
1.1853747e-02
1.3820349e-02
6.9432155e-03
-6.8512632e-03
-4.3302729e-03
1.2314683e-02
1.8757923e-02
1.5584382e-02
5.8642114e-03
4.3573266e-03
1.7251675e-03
-1.7432305e-02
-4.5066725e-02
-7.8231464e-02
-9.4844799e-02
-9.7300026e-02
-1.0922737e-01
-1.3146131e-01
-1.6301099e-01
-1.8234692e-01
-1.7382978e-01
-1.4121860e-01
-9.7066672e-02
-5.4976247e-02
-4.6395972e-03
4.1295832e-02
6.9623278e-02
9.2329670e-02
1.1305590e-01
1.3794069e-01
1.4906597e-01
1.3881200e-01
1.2635266e-01
1.1572237e-01
1.1314209e-01
1.1506408e-01
1.2515399e-01
1.4691540e-01
1.6998252e-01
1.9018660e-01
1.8431893e-01
1.5442326e-01
1.2228010e-01
8.8294540e-02
5.6425484e-02
2.5745438e-02
6.2230161e-03
-3.0125695e-03
-1.7355709e-02
-3.8452383e-02
-6.7400244e-02
-8.2600735e-02
-8.3828910e-02
-9.1915668e-02
-1.0697174e-01
-1.2912348e-01
-1.3726026e-01
-1.3179426e-01
-1.3584294e-01
-1.4467832e-01
-1.5055100e-01
-1.3786341e-01
-1.1219398e-01
-9.3821785e-02
-8.4746721e-02
-8.3956311e-02
-6.7989445e-02
-3.7960284e-02
-1.7821000e-02
-9.3232930e-03
-1.0182449e-02
1.6766837e-03
2.5585908e-02
3.9820065e-02
4.1883745e-02
3.2739360e-02
3.4957246e-02
4.7433328e-02
4.8759802e-02
3.8531680e-02
1.7213214e-02
6.6511844e-03
5.9507639e-03
-7.2397453e-03
-2.0308272e-02
-2.0923737e-02
-1.3545465e-03
2.5380660e-02
3.7930298e-02
3.9294487e-02
3.1642790e-02
3.4210126e-02
4.6645154e-02
4.9422734e-02
4.3749090e-02
3.0922077e-02
3.2318967e-02
4.4688297e-02
4.4112612e-02
3.2722653e-02
1.3633054e-02
7.6813680e-03
1.2705198e-02
7.3899780e-03
-7.2025231e-03
-3.0941729e-02
-4.2287619e-02
-4.0716361e-02
-4.7572801e-02
-5.4694589e-02
-5.3013951e-02
-2.9824168e-02
5.9753190e-03
3.4038289e-02
5.5828178e-02
7.1951568e-02
9.7173271e-02
1.2396734e-01
1.3406871e-01
1.3392241e-01
1.2539145e-01
1.2975658e-01
1.4750151e-01
1.5506205e-01
1.5024263e-01
1.3217674e-01
1.1847937e-01
1.0608085e-01
7.3491709e-02
2.2641578e-02
-4.4616641e-02
-1.0718904e-01
-1.5511530e-01
-2.0022804e-01
-2.4016037e-01
-2.7193893e-01
-2.8981820e-01
-2.8851615e-01
-2.6965732e-01
-2.5473050e-01
-2.6338970e-01
-2.7337627e-01
-2.6292618e-01
-2.3097316e-01
-1.9579731e-01
-1.7515340e-01
-1.4948175e-01
-9.9471931e-02
-2.3263601e-02
5.9907898e-02
1.3037607e-01
1.8865903e-01
2.1882391e-01
2.2642915e-01
2.2983836e-01
2.2652974e-01
2.1595739e-01
1.8824195e-01
1.5671375e-01
1.4192042e-01
1.4213983e-01
1.4765519e-01
1.3520579e-01
1.1193795e-01
9.2991684e-02
7.2266357e-02
4.7835108e-02
1.7828977e-02
1.7593436e-03
6.7647643e-04
-3.8296771e-03
-1.3455771e-02
-3.0070389e-02
-3.2798560e-02
-2.1942904e-02
-1.8970009e-02
-2.5760467e-02
-4.3161942e-02
-5.0543630e-02
-4.8465019e-02
-5.7548005e-02
-7.7516059e-02
-1.0741755e-01
-1.2698854e-01
-1.2280415e-01
-1.0064746e-01
-7.4884290e-02
-6.0529484e-02
-3.8227691e-02
-8.1909878e-03
9.7500692e-03
1.5839310e-02
1.0686105e-02
1.4956033e-02
2.9097457e-02
3.3224623e-02
2.7268125e-02
1.3336366e-02
1.3270966e-02
2.6688588e-02
3.2696067e-02
3.0302639e-02
2.1237682e-02
2.6327567e-02
4.2373016e-02
4.7501506e-02
4.2485843e-02
2.8283448e-02
2.5765964e-02
3.7827498e-02
4.6084662e-02
4.6268803e-02
3.5534847e-02
3.5571107e-02
4.6346919e-02
4.6586947e-02
3.5625154e-02
1.3256410e-02
-3.6330857e-04
-6.7356818e-03
-2.6207677e-02
-5.5271102e-02
-9.0815899e-02
-1.1041410e-01
-1.0644855e-01
-9.5216685e-02
-8.5825371e-02
-8.6123808e-02
-7.5930576e-02
-5.4513681e-02
-4.3241210e-02
-4.2567043e-02
-5.1224109e-02
-5.2938718e-02
-4.4351470e-02
-3.2602750e-02
-2.0430850e-02
-1.4806341e-02
2.2156252e-03
2.8189612e-02
4.6742816e-02
5.9249627e-02
6.3913784e-02
7.8464515e-02
9.5942832e-02
9.4945567e-02
8.3636912e-02
6.7486784e-02
6.5232539e-02
7.4863276e-02
7.8834152e-02
7.8185870e-02
7.0843905e-02
6.2227297e-02
4.4483904e-02
1.9958510e-02
-1.9502171e-03
-2.8176250e-02
-5.8147431e-02
-9.2635718e-02
-1.1441625e-01
-1.2314985e-01
-1.3630839e-01
-1.4092972e-01
-1.2795011e-01
-9.2994559e-02
-4.7103447e-02
-6.9284443e-03
2.7551702e-02
4.2933360e-02
5.0109583e-02
6.1607139e-02
6.7192829e-02
6.4232449e-02
4.5189481e-02
2.8783701e-02
2.3625714e-02
1.5071842e-02
2.9024874e-03
-1.0866061e-02
-2.3720223e-03
2.6916096e-02
5.4487170e-02
7.8739460e-02
8.5513922e-02
8.3818234e-02
8.6990371e-02
8.6892248e-02
8.2914201e-02
6.5199738e-02
4.5841415e-02
3.6026410e-02
2.5080598e-02
1.1499514e-02
-9.3325689e-03
-2.1115147e-02
-2.0924008e-02
-2.6029674e-02
-3.8581827e-02
-5.8821512e-02
-6.4275823e-02
-5.7576125e-02
-6.2034577e-02
-7.6036169e-02
-9.5105105e-02
-9.5935668e-02
-8.0556854e-02
-7.1293927e-02
-6.7508158e-02
-7.1990895e-02
-7.0726563e-02
-5.9150088e-02
-4.9513171e-02
-3.9702643e-02
-3.0972435e-02
-1.3228967e-02
1.1614277e-02
3.0848056e-02
4.3333978e-02
4.3636428e-02
4.9665890e-02
6.2940931e-02
6.4846724e-02
5.5569136e-02
3.5563691e-02
2.5415540e-02
2.6281036e-02
1.9662381e-02
7.9216946e-03
-7.6450962e-03
-9.0516183e-03
4.4742727e-03
1.5023589e-02
2.1894025e-02
1.5996971e-02
8.3383327e-03
6.5742500e-03
-9.3915108e-04
-1.3299140e-02
-3.0288056e-02
-2.9665111e-02
-1.1284934e-02
-6.0932044e-04
1.1761385e-03
-4.9272016e-03
-3.1551874e-04
1.4033235e-02
1.8391770e-02
1.4616161e-02
3.6057170e-03
5.3191483e-03
1.9857958e-02
2.7359722e-02
2.6892291e-02
1.7654737e-02
2.1106629e-02
3.7480982e-02
4.6653364e-02
5.0525101e-02
4.7269881e-02
5.1456416e-02
6.2848428e-02
6.4250099e-02
5.6820847e-02
4.1458407e-02
3.5493621e-02
3.5598324e-02
2.3285851e-02
2.2972780e-04
-3.3542123e-02
-5.6498247e-02
-6.7762778e-02
-8.9692435e-02
-1.2283270e-01
-1.6514314e-01
-1.9898047e-01
-2.1219189e-01
-2.0628197e-01
-1.9332971e-01
-1.8688941e-01
-1.7210377e-01
-1.4814945e-01
-1.1895656e-01
-8.2731659e-02
-4.5427285e-02
3.9858414e-03
5.5260319e-02
9.6199461e-02
1.3753624e-01
1.8203617e-01
2.2828917e-01
2.5402452e-01
2.6046005e-01
2.6857142e-01
2.7686633e-01
2.8180041e-01
2.5832385e-01
2.0692751e-01
1.5375102e-01
1.0151564e-01
4.6490359e-02
-1.5403621e-02
-6.4212031e-02
-9.8296271e-02
-1.3669778e-01
-1.6866155e-01
-1.8360585e-01
-1.7369411e-01
-1.5151121e-01
-1.3553449e-01
-1.2523492e-01
-1.2297252e-01
-1.0902175e-01
-8.1796843e-02
-5.9827211e-02
-4.4490639e-02
-3.7281499e-02
-1.8521067e-02
9.7741407e-03
2.6455013e-02
3.0699695e-02
2.2922101e-02
2.5792697e-02
4.0003406e-02
4.5459275e-02
4.2937774e-02
3.2402729e-02
3.3031651e-02
4.5034649e-02
5.0009589e-02
4.7536363e-02
3.3146221e-02
2.4273699e-02
2.3286554e-02
1.6431845e-02
8.0326887e-03
-7.4511533e-03
-1.4523433e-02
-9.8330062e-03
-1.1188562e-02
-2.0225471e-02
-3.6409624e-02
-3.7695902e-02
-2.3805585e-02
-1.5323426e-02
-1.4974046e-02
-2.3706411e-02
-2.0702560e-02
-6.6534143e-03
-1.6589298e-03
-5.1257604e-03
-1.6235669e-02
-1.4426220e-02
3.8304353e-04
8.1042854e-03
7.1176444e-03
-3.1579289e-03
1.9982096e-05
1.5615239e-02
2.1069699e-02
1.8887950e-02
1.0190151e-02
1.3763763e-02
2.8841592e-02
3.4151819e-02
2.8048437e-02
1.0615684e-02
5.7104830e-03
1.5466938e-02
1.8258746e-02
1.2663570e-02
-1.7448264e-03
-3.1306367e-03
9.0821349e-03
1.2790451e-02
7.2309865e-03
-8.1619880e-03
-1.2911926e-02
-4.7335937e-03
-4.0071574e-03
-1.2837211e-02
-3.0100322e-02
-3.3872130e-02
-2.2448205e-02
-1.4947435e-02
-1.4643544e-02
-2.4181040e-02
-2.2724122e-02
-8.3512516e-03
-9.0317562e-04
-3.7222191e-03
-1.8632126e-02
-2.3171054e-02
-1.4064057e-02
-1.0576180e-02
-1.4189493e-02
-2.4811510e-02
-2.1656486e-02
-5.3482493e-03
2.9438844e-03
3.6139419e-03
-1.5744391e-03
7.6302108e-03
2.7586906e-02
3.4537194e-02
2.9790537e-02
1.6013737e-02
1.4840186e-02
2.6313977e-02
2.9232318e-02
2.4785123e-02
1.5319961e-02
2.0327073e-02
3.5064213e-02
3.5494208e-02
2.6027483e-02
1.2010267e-02
6.4454563e-03
6.0252436e-03
2.2235935e-05
-1.0625944e-02
-3.0531149e-02
-4.0231066e-02
-3.1955212e-02
-1.7934562e-02
-5.0013564e-03
5.9785951e-04
1.7169813e-02
4.2971803e-02
5.8847191e-02
6.5400257e-02
6.2782124e-02
6.6432676e-02
6.9566994e-02
5.3774822e-02
2.5397379e-02
-1.3208657e-02
-4.3651539e-02
-5.8693256e-02
-6.8819619e-02
-8.1913552e-02
-1.0673318e-01
-1.2529834e-01
-1.2962518e-01
-1.2778645e-01
-1.2879572e-01
-1.4365888e-01
-1.5366373e-01
-1.4544531e-01
-1.2213699e-01
-9.4992879e-02
-7.7728619e-02
-5.9212201e-02
-3.0279004e-02
1.6062580e-02
7.1728776e-02
1.1989183e-01
1.5841200e-01
1.6991968e-01
1.6272418e-01
1.5570167e-01
1.4514947e-01
1.2885126e-01
1.0239291e-01
8.6567776e-02
8.4748499e-02
7.7554446e-02
6.4094151e-02
4.2140608e-02
3.0797465e-02
3.1991739e-02
2.6652530e-02
1.2370082e-02
-1.2398973e-02
-2.4856429e-02
-2.1885055e-02
-2.2441944e-02
-2.9592881e-02
-4.6456623e-02
-5.1808647e-02
-4.3261593e-02
-4.0076835e-02
-4.4146771e-02
-5.5604889e-02
-5.0181391e-02
-2.7077006e-02
-1.1766971e-02
-9.7233447e-03
-2.0935291e-02
-2.0245419e-02
-6.8945054e-03
-3.2746441e-03
-1.0440597e-02
-2.7581017e-02
-3.1444207e-02
-2.0189909e-02
-1.3683536e-02
-1.3292871e-02
-2.0635218e-02
-1.6503635e-02
-1.4668484e-03
4.8560968e-03
3.0758161e-03
-7.2106548e-03
-4.8054376e-03
1.1576809e-02
2.0300192e-02
2.0174544e-02
1.2193266e-02
1.8119145e-02
3.7444865e-02
4.8025051e-02
4.7521309e-02
3.4567362e-02
3.2203921e-02
4.1959978e-02
4.1749896e-02
3.1468973e-02
1.2083988e-02
3.9558822e-03
7.3504075e-03
2.7805478e-03
-8.9242093e-03
-2.6012828e-02
-2.7291473e-02
-1.3293298e-02
-5.7065651e-03
-6.8447665e-03
-1.7697150e-02
-1.7821851e-02
-6.5258279e-03
-3.6237605e-03
-8.9366468e-03
-2.1500261e-02
-2.1066780e-02
-9.9824702e-03
-1.1152571e-02
-2.3004690e-02
-4.2009501e-02
-4.6809495e-02
-3.8453426e-02
-3.8978681e-02
-4.8454447e-02
-6.5302695e-02
-6.6238926e-02
-5.1997421e-02
-4.7982906e-02
-5.2430013e-02
-5.9709814e-02
-4.8379548e-02
-2.1228288e-02
-3.2165460e-03
6.0010259e-03
9.3423317e-03
2.4628331e-02
4.6718521e-02
5.4933208e-02
5.5592183e-02
5.4166579e-02
6.0453497e-02
6.0527926e-02
4.2368826e-02
1.7945808e-02
-9.4831177e-03
-1.8812709e-02
-1.2888701e-02
-1.1366454e-02
-9.3474749e-03
-4.7033796e-03
1.7581685e-02
5.0532629e-02
7.5516131e-02
9.9833079e-02
1.2751463e-01
1.6213253e-01
1.8485337e-01
1.8949636e-01
1.9394750e-01
2.0011293e-01
2.0519874e-01
1.8278805e-01
1.3004405e-01
7.1195957e-02
7.6561739e-03
-4.8170305e-02
-8.6770378e-02
-1.0887150e-01
-1.2566858e-01
-1.5265190e-01
-1.7313580e-01
-1.6956890e-01
-1.3997793e-01
-1.0394096e-01
-8.1864021e-02
-6.2398007e-02
-3.5396702e-02
5.8331792e-03
4.8355916e-02
7.0772590e-02
8.4037534e-02
9.7733433e-02
1.1523233e-01
1.2878652e-01
1.2381214e-01
1.1022973e-01
9.6700398e-02
8.4723802e-02
6.7623994e-02
3.5356568e-02
-4.0172125e-03
-4.2092411e-02
-7.3607141e-02
-9.9804342e-02
-1.2584580e-01
-1.4556441e-01
-1.5326210e-01
-1.5020101e-01
-1.4793305e-01
-1.5712886e-01
-1.6912761e-01
-1.7339799e-01
-1.6831744e-01
-1.5008458e-01
-1.1457737e-01
-6.5212805e-02
-6.3323865e-03
6.1667908e-02
1.2295758e-01
1.6123000e-01
1.7522222e-01
1.6260387e-01
1.3587768e-01
1.0439604e-01
6.4368999e-02
1.9723644e-02
-2.6691359e-02
-7.0427849e-02
-1.0683436e-01
-1.3636742e-01
-1.5952867e-01
-1.7634228e-01
-1.8721535e-01
-1.9284639e-01
-1.9402386e-01
-1.9074885e-01
-1.8215476e-01
-1.6795111e-01
-1.5130671e-01
-1.3453800e-01
-1.2122619e-01
-1.1376380e-01
-1.0131832e-01
-7.4486181e-02
-3.2125436e-02
1.0481646e-02
3.8863418e-02
7.1791515e-02
1.0473276e-01
1.1617923e-01
1.2017956e-01
1.3037310e-01
1.5424726e-01
1.7937007e-01
1.8764623e-01
1.8163817e-01
1.6236812e-01
1.5255880e-01
1.5392253e-01
1.4595848e-01
1.2894188e-01
1.0379338e-01
9.2681445e-02
9.3851535e-02
8.3569564e-02
6.2875004e-02
3.3368261e-02
1.5401081e-02
8.0816338e-03
-9.4945800e-03
-3.5768214e-02
-6.9296422e-02
-8.9839715e-02
-9.8673749e-02
-1.1735153e-01
-1.3480287e-01
-1.3909704e-01
-1.1912033e-01
-8.4921229e-02
-5.7739824e-02
-3.9296078e-02
-2.9676377e-02
-6.9675892e-03
3.2924666e-02
7.2721883e-02
1.0769377e-01
1.3440023e-01
1.5838944e-01
1.6346674e-01
1.4448384e-01
1.1634771e-01
7.9330503e-02
5.0237801e-02
3.2324174e-02
1.8596371e-02
4.1798121e-03
-2.1067354e-02
-3.8860051e-02
-4.2724025e-02
-4.0910193e-02
-3.5863449e-02
-3.3924779e-02
-3.4302812e-02
-4.2664436e-02
-5.2860477e-02
-6.2535144e-02
-8.2469139e-02
-9.8245226e-02
-9.8479487e-02
-8.4105984e-02
-6.7806783e-02
-6.3252841e-02
-5.4067333e-02
-3.3543613e-02
-6.8968980e-03
1.8385797e-02
3.2850007e-02
4.2393359e-02
4.6610748e-02
5.6942160e-02
7.3088116e-02
7.8839162e-02
8.2075852e-02
8.0166727e-02
7.7679817e-02
8.2392223e-02
8.9828726e-02
1.0094837e-01
1.0269131e-01
1.0316332e-01
1.1163080e-01
1.1486929e-01
1.1319376e-01
1.0152615e-01
8.8017600e-02
8.1352294e-02
7.3531679e-02
6.7226243e-02
6.5099514e-02
7.9626487e-02
1.0147159e-01
1.0684477e-01
9.2855545e-02
5.7942484e-02
2.2821096e-02
-1.2652746e-02
-7.0896903e-02
-1.3733638e-01
-1.9510644e-01
-2.3912572e-01
-2.7398656e-01
-3.0928287e-01
-3.4222430e-01
-3.6670602e-01
-3.7790300e-01
-3.7638782e-01
-3.6474465e-01
-3.4127074e-01
-3.0449650e-01
-2.5425106e-01
-1.9106139e-01
-1.1599830e-01
-4.1206558e-02
2.4624790e-02
9.7394611e-02
1.6856872e-01
2.1718958e-01
2.4394719e-01
2.4962958e-01
2.5663484e-01
2.6626123e-01
2.5835518e-01
2.3181431e-01
1.8738125e-01
1.5032871e-01
1.3554529e-01
1.3426359e-01
1.3040997e-01
1.0886516e-01
9.0892317e-02
7.8464953e-02
5.4022030e-02
1.6312041e-02
-3.6609245e-02
-8.3254587e-02
-1.0897432e-01
-1.1994264e-01
-1.2654633e-01
-1.3852434e-01
-1.3942435e-01
-1.1625787e-01
-7.1716621e-02
-2.4362879e-02
7.5542235e-03
4.4215982e-02
8.5387431e-02
1.1140474e-01
1.2195402e-01
1.1681622e-01
1.1841836e-01
1.3111961e-01
1.3525056e-01
1.2487577e-01
9.6329588e-02
6.8261831e-02
5.3175108e-02
4.5895814e-02
3.2904910e-02
3.1359097e-04
-3.3443088e-02
-5.6804046e-02
-7.5352397e-02
-1.0192497e-01
-1.4938355e-01
-1.9753019e-01
-2.2971879e-01
-2.4907818e-01
-2.6138962e-01
-2.7007734e-01
-2.6474969e-01
-2.3750924e-01
-1.8943045e-01
-1.4249574e-01
-1.1781343e-01
-1.0049885e-01
-8.1085671e-02
-5.7734661e-02
-3.7534935e-02
-3.2657680e-02
-1.9315546e-02
1.6628616e-02
6.7359399e-02
1.2127431e-01
1.6801883e-01
2.0820570e-01
2.2628093e-01
2.2927258e-01
2.3437673e-01
2.3720071e-01
2.4287845e-01
2.4176413e-01
2.3459354e-01
2.3026588e-01
2.2333337e-01
2.1352948e-01
1.8956268e-01
1.6167754e-01
1.3790692e-01
1.0581726e-01
7.2692950e-02
4.4339806e-02
3.1567887e-02
2.5766889e-02
5.2879720e-03
-3.0326117e-02
-8.0872048e-02
-1.2649148e-01
-1.6145240e-01
-2.0014501e-01
-2.2892251e-01
-2.3396450e-01
-2.1636650e-01
-1.9173814e-01
-1.7466436e-01
-1.6635586e-01
-1.6755111e-01
-1.6277194e-01
-1.5415038e-01
-1.5960609e-01
-1.5938517e-01
-1.3061733e-01
-7.3174409e-02
-8.6113306e-03
4.3231455e-02
7.8528593e-02
8.5315514e-02
7.7288318e-02
6.4834859e-02
3.5005686e-02
-9.2345423e-03
-6.2151043e-02
-1.0298113e-01
-1.1914245e-01
-1.1672713e-01
-1.0954031e-01
-1.1435356e-01
-1.1376234e-01
-1.0628553e-01
-1.0997102e-01
-1.1460235e-01
-1.0718221e-01
-7.0300419e-02
-8.4191390e-03
5.8691076e-02
1.2467898e-01
1.7704651e-01
2.2175066e-01
2.6060376e-01
2.9059097e-01
3.2024604e-01
3.3804955e-01
3.4805849e-01
3.5791575e-01
3.6345600e-01
3.6657434e-01
3.5254988e-01
3.1263822e-01
2.4318981e-01
1.5227761e-01
5.5427649e-02
-4.6525329e-02
-1.3275998e-01
-2.0071366e-01
-2.6698258e-01
-3.3392946e-01
-4.0434941e-01
-4.5998916e-01
-4.8011190e-01
-4.6237123e-01
-4.2216131e-01
-3.7425071e-01
-3.0621463e-01
-2.1596568e-01
-1.1264109e-01
-5.1286763e-03
9.2206714e-02
1.7456087e-01
2.2491164e-01
2.4648604e-01
2.6072153e-01
2.6906987e-01
2.7082720e-01
2.4654684e-01
1.9957499e-01
1.5278104e-01
1.0613015e-01
6.0279296e-02
6.9930125e-03
-4.6989898e-02
-9.4885706e-02
-1.4621673e-01
-1.8080051e-01
-1.7934991e-01
-1.4267935e-01
-8.9248515e-02
-3.6134978e-02
1.7221159e-02
4.9780548e-02
6.1343403e-02
7.1902796e-02
8.0623984e-02
8.7104410e-02
8.0397851e-02
6.9804441e-02
6.6904044e-02
6.1692260e-02
5.0416104e-02
2.7373927e-02
1.1820318e-02
8.6126624e-03
6.3092224e-04
-1.2550877e-02
-3.2611068e-02
-3.8781460e-02
-2.8908458e-02
-2.2721881e-02
-2.2148280e-02
-3.1206596e-02
-3.1006545e-02
-1.9648097e-02
-1.6357346e-02
-1.9299194e-02
-2.5562880e-02
-1.4605875e-02
1.0174185e-02
2.3312342e-02
2.3051941e-02
1.2264800e-02
1.4395569e-02
3.0039422e-02
3.7352180e-02
3.4024160e-02
1.8200948e-02
1.2324107e-02
1.8495909e-02
1.5837005e-02
4.9021824e-03
-1.3214543e-02
-1.7870986e-02
-9.2074272e-03
-8.1179351e-03
-1.7551611e-02
-3.7698852e-02
-4.4444928e-02
-3.6733677e-02
-3.5545292e-02
-4.0653860e-02
-5.1499086e-02
-4.7175722e-02
-2.7519556e-02
-1.6527830e-02
-1.8211319e-02
-3.0456353e-02
-2.9378233e-02
-1.1654865e-02
4.1618028e-03
1.4502246e-02
1.6995975e-02
3.3153383e-02
5.9870418e-02
7.2582660e-02
7.3696295e-02
6.6909647e-02
7.4005619e-02
9.4227974e-02
1.0441561e-01
1.0309436e-01
9.0406436e-02
8.7838183e-02
9.5367376e-02
9.0268327e-02
7.0608613e-02
3.5741299e-02
4.8159696e-03
-1.4146960e-02
-3.1209546e-02
-5.3381822e-02
-8.9687667e-02
-1.2165335e-01
-1.3248644e-01
-1.2465280e-01
-1.1541821e-01
-1.2240040e-01
-1.3144373e-01
-1.3107864e-01
-1.1970875e-01
-1.0838046e-01
-1.1238000e-01
-1.1200943e-01
-8.8455333e-02
-4.2256936e-02
7.7966829e-03
4.2868181e-02
6.3823848e-02
7.0046296e-02
7.8387516e-02
8.9846203e-02
8.6970049e-02
7.1474073e-02
4.6082323e-02
3.0864790e-02
2.5341371e-02
9.2056205e-03
-1.3258118e-02
-3.6382121e-02
-4.6211441e-02
-5.0155224e-02
-6.7890884e-02
-8.7874039e-02
-9.8502097e-02
-8.9101316e-02
-7.1118665e-02
-6.5464441e-02
-6.8071868e-02
-7.3540133e-02
-6.4288579e-02
-4.4710008e-02
-3.4782391e-02
-2.5924154e-02
-1.1241378e-02
2.1463546e-02
6.6628008e-02
1.0496664e-01
1.3478112e-01
1.5479715e-01
1.7306233e-01
1.7598089e-01
1.5622306e-01
1.2676104e-01
8.7078434e-02
6.1654158e-02
5.1878097e-02
3.5743839e-02
1.3546989e-02
-1.5295875e-02
-2.9194059e-02
-2.7128733e-02
-3.0709365e-02
-4.1459135e-02
-6.0515420e-02
-6.4571543e-02
-5.1428326e-02
-4.2943155e-02
-4.0574132e-02
-4.4708240e-02
-3.2264937e-02
-7.0812160e-04
2.9012232e-02
5.5841095e-02
7.8607369e-02
1.1469209e-01
1.6057611e-01
1.9471020e-01
2.1552590e-01
2.2179317e-01
2.3667990e-01
2.5903108e-01
2.6434721e-01
2.5273089e-01
2.2455082e-01
2.0022859e-01
1.7754974e-01
1.3249863e-01
6.6967305e-02
-1.5056929e-02
-9.3631628e-02
-1.5233805e-01
-1.9344043e-01
-2.3170930e-01
-2.8140100e-01
-3.2595310e-01
-3.4905403e-01
-3.5274184e-01
-3.5005674e-01
-3.5147129e-01
-3.5351872e-01
-3.5238739e-01
-3.4493251e-01
-3.2678971e-01
-2.9408388e-01
-2.4621106e-01
-1.8618127e-01
-1.1548552e-01
-4.9523137e-02
-2.4133113e-03
3.0304090e-02
4.2866202e-02
4.2326632e-02
3.9275006e-02
3.0731621e-02
2.8933826e-02
4.5626598e-02
8.9622448e-02
1.4318738e-01
1.8279189e-01
2.1268342e-01
2.2121454e-01
2.1406838e-01
2.0834967e-01
1.9876177e-01
1.9471866e-01
1.9880188e-01
2.0477114e-01
2.0403404e-01
1.8100704e-01
1.2972362e-01
4.9456083e-02
-3.4388749e-02
-1.0103831e-01
-1.5414757e-01
-1.8157587e-01
-1.7110004e-01
-1.2145531e-01
-5.0846298e-02
2.1094972e-02
9.1723548e-02
1.3928301e-01
1.5518676e-01
1.4989419e-01
1.2785673e-01
9.5514809e-02
5.7203855e-02
3.4498743e-02
2.5091498e-02
6.8893795e-03
-1.4019398e-02
-2.9090299e-02
-2.3992695e-02
-8.5513282e-03
-6.0268404e-03
-1.8555757e-02
-4.6318056e-02
-6.5342043e-02
-6.4463214e-02
-5.4787316e-02
-4.6756204e-02
-5.0312396e-02
-4.4452013e-02
-3.1261975e-02
-3.3215133e-02
-4.9305446e-02
-7.7665625e-02
-9.6980750e-02
-8.4607746e-02
-4.0116219e-02
1.1076388e-02
4.0602269e-02
5.9372694e-02
6.8492349e-02
5.6941978e-02
3.2074977e-02
-1.6316190e-03
-2.8209342e-02
-3.5706779e-02
-2.8849257e-02
-1.7702222e-02
-8.2074150e-03
1.4577929e-02
3.8111072e-02
3.8900155e-02
1.8588105e-02
-2.2327697e-02
-6.1349382e-02
-7.6846707e-02
-6.9450192e-02
-5.9329629e-02
-6.7579220e-02
-8.0543339e-02
-8.8736256e-02
-8.9712130e-02
-8.5538552e-02
-8.4842765e-02
-7.0572508e-02
-3.0207576e-02
3.0545057e-02
1.0417640e-01
1.8124405e-01
2.4247709e-01
2.5244656e-01
2.1240071e-01
1.4918084e-01
6.9139008e-02
-1.4157509e-02
-8.3906055e-02
-1.3038400e-01
-1.6101494e-01
-1.8771329e-01
-2.0023643e-01
-1.9214347e-01
-1.6395398e-01
-1.2818625e-01
-9.9498090e-02
-7.1834533e-02
-4.5352185e-02
-1.8981770e-02
5.1882229e-05
-9.2918162e-04
-1.6859384e-02
-4.4277320e-02
-6.2642818e-02
-5.1945956e-02
-1.1237959e-02
4.7453291e-02
1.0211396e-01
1.5693238e-01
2.1195901e-01
2.5339550e-01
2.8190832e-01
2.8397491e-01
2.6326378e-01
2.3537492e-01
1.9793181e-01
1.5132575e-01
9.7053029e-02
5.7520985e-02
3.1595809e-02
-3.1720030e-03
-4.8559879e-02
-1.0679423e-01
-1.5780982e-01
-1.9129324e-01
-2.1861841e-01
-2.3325699e-01
-2.3005562e-01
-2.0625016e-01
-1.6581982e-01
-1.1739897e-01
-7.1725798e-02
-4.1955189e-02
-1.0783894e-02
2.2523739e-02
4.0497859e-02
4.3182553e-02
3.0373674e-02
2.8190236e-02
4.3705885e-02
5.8406570e-02
6.7558924e-02
6.6280463e-02
7.2971796e-02
8.9102022e-02
9.7143462e-02
9.5766496e-02
8.3647852e-02
8.0571011e-02
8.7829429e-02
8.6882837e-02
7.4496896e-02
4.3523245e-02
7.1968276e-03
-2.2039656e-02
-4.7636129e-02
-7.8357309e-02
-1.2164408e-01
-1.5252976e-01
-1.5916892e-01
-1.5278352e-01
-1.4180978e-01
-1.3397147e-01
-1.1425002e-01
-8.0805281e-02
-4.6020358e-02
-1.7832522e-02
-5.9005813e-03
1.2062556e-02
4.2778262e-02
6.9607029e-02
8.9952890e-02
1.0209720e-01
1.2391746e-01
1.4979688e-01
1.5797785e-01
1.5278287e-01
1.3700435e-01
1.2660549e-01
1.2966758e-01
1.4154035e-01
1.5101712e-01
1.4298286e-01
1.3804369e-01
1.3376779e-01
1.0635592e-01
5.9376802e-02
-2.8350639e-03
-6.2567167e-02
-1.1085408e-01
-1.5491320e-01
-2.0678376e-01
-2.7885770e-01
-3.4824299e-01
-3.8902796e-01
-3.9815507e-01
-3.8648633e-01
-3.6438868e-01
-3.2397676e-01
-2.5704379e-01
-1.6470941e-01
-6.6495536e-02
2.0456687e-02
1.0015467e-01
1.7163198e-01
2.3950276e-01
2.9386738e-01
3.1962625e-01
3.2038488e-01
2.8478764e-01
2.2246142e-01
1.5235174e-01
7.6335471e-02
3.3390805e-03
-7.1172896e-02
-1.4076566e-01
-1.9416782e-01
-2.3532624e-01
-2.5361075e-01
-2.3919577e-01
-1.8963274e-01
-1.2146485e-01
-5.4236807e-02
1.0293406e-02
5.8117615e-02
9.5646799e-02
1.3352096e-01
1.6649147e-01
1.9691696e-01
2.0726825e-01
2.0098813e-01
1.9470171e-01
1.8531447e-01
1.7338136e-01
1.5432404e-01
1.4368763e-01
1.4573983e-01
1.4512186e-01
1.4287789e-01
1.2965505e-01
1.1393946e-01
1.0154477e-01
7.9669464e-02
4.8702155e-02
9.2628434e-03
-1.8441170e-02
-3.3504119e-02
-5.4707605e-02
-8.2731824e-02
-1.2465154e-01
-1.6529686e-01
-1.9331499e-01
-2.1843411e-01
-2.3173434e-01
-2.2754786e-01
-2.0334548e-01
-1.6771004e-01
-1.3580599e-01
-1.0665000e-01
-7.6929891e-02
-3.0162644e-02
2.4828502e-02
6.3548479e-02
8.6600973e-02
9.3089997e-02
9.9615770e-02
1.0745386e-01
1.0097935e-01
8.0803317e-02
4.6228653e-02
1.8247725e-02
-1.6456782e-03
-3.2046723e-02
-7.4125930e-02
-1.2689259e-01
-1.6658718e-01
-1.7620198e-01
-1.6066975e-01
-1.2922531e-01
-1.0601944e-01
-9.5092148e-02
-7.6601146e-02
-4.2422796e-02
-5.1613190e-03
2.4807810e-02
6.0763022e-02
9.1264558e-02
1.0203924e-01
1.0104946e-01
8.7187757e-02
7.5770511e-02
6.3829219e-02
3.9516984e-02
1.1658006e-02
-1.8264396e-02
-3.0299203e-02
-1.1004811e-02
3.1931491e-02
8.2965646e-02
1.2726973e-01
1.6862098e-01
1.8811579e-01
1.8010089e-01
1.6513612e-01
1.4490060e-01
1.2736677e-01
1.0306171e-01
6.3014875e-02
1.7434752e-02
-3.2869549e-02
-7.2174134e-02
-9.4446943e-02
-1.0441194e-01
-1.0951747e-01
-1.1921779e-01
-1.1678203e-01
-1.0457332e-01
-9.5284690e-02
-9.0267726e-02
-9.5819260e-02
-9.8130060e-02
-8.4217813e-02
-5.1743842e-02
-1.3548295e-02
1.3870898e-02
3.0086249e-02
2.8495040e-02
2.3453893e-02
2.0883692e-02
7.3028361e-03
-4.2198530e-03
-9.7868346e-03
-9.1929125e-03
-6.5917075e-03
-1.4292478e-02
-2.9743158e-02
-4.9927377e-02
-5.5430660e-02
-4.8738928e-02
-4.9840800e-02
-4.9873269e-02
-4.1835059e-02
-1.4066239e-02
2.5891032e-02
5.7567435e-02
7.8563878e-02
7.6598625e-02
6.4106476e-02
5.5160609e-02
4.1106655e-02
2.1025975e-02
-6.0079114e-03
-1.8720524e-02
-1.4393674e-02
-1.1028251e-02
-1.1616877e-02
-2.3246403e-02
-2.7057525e-02
-1.7995415e-02
-1.3166684e-02
-1.2704083e-02
-2.4999474e-02
-3.5761340e-02
-3.4277111e-02
-3.1799951e-02
-2.9034103e-02
-3.6590708e-02
-4.1684643e-02
-3.1814578e-02
-1.5771868e-02
7.7927024e-03
1.8451473e-02
1.6962929e-02
2.5483533e-02
4.4012703e-02
7.0973627e-02
8.6593224e-02
9.0573801e-02
1.0051799e-01
1.1430228e-01
1.2971201e-01
1.2950198e-01
1.1859096e-01
1.1727024e-01
1.2412877e-01
1.3765863e-01
1.3334753e-01
1.0711822e-01
8.0852863e-02
5.6656082e-02
3.4364582e-02
2.9209164e-03
-2.9190450e-02
-5.1289402e-02
-7.1688645e-02
-9.0559490e-02
-1.0968758e-01
-1.1093069e-01
-9.6382509e-02
-8.7563198e-02
-8.5334061e-02
-9.0008440e-02
-8.2146421e-02
-6.2750652e-02
-5.1545360e-02
-4.8461681e-02
-5.3849423e-02
-4.5837258e-02
-2.2560379e-02
-5.6319935e-03
6.3340242e-04
-6.5694688e-03
-4.0777132e-03
1.0621588e-02
1.6785010e-02
1.3255602e-02
-1.7008757e-03
-6.4775476e-03
8.4752933e-03
3.0336541e-02
4.9884760e-02
5.7673202e-02
7.4349833e-02
1.0082809e-01
1.1559388e-01
1.1445868e-01
9.5556686e-02
8.2051831e-02
8.3503868e-02
8.1188592e-02
5.8089619e-02
8.2648284e-03
-4.0964715e-02
-7.3396003e-02
-9.5975923e-02
-1.1461405e-01
-1.3423854e-01
-1.4377723e-01
-1.3230322e-01
-1.0020502e-01
-6.8497688e-02
-5.7445245e-02
-4.5990689e-02
-2.1242070e-02
8.5611233e-03
2.7958433e-02
2.1717423e-02
1.1634373e-02
1.0785681e-02
1.1095941e-02
1.2423025e-03
-3.1191866e-02
-6.5200482e-02
-7.8239913e-02
-7.2178468e-02
-6.9240670e-02
-8.5211206e-02
-9.8072752e-02
-8.9726991e-02
-6.0830855e-02
-3.3441412e-02
-2.9266805e-02
-2.4455795e-02
-6.8093822e-03
1.1775213e-02
1.9957876e-02
7.1044619e-03
-4.9699490e-03
2.1509812e-03
2.6268841e-02
4.9292034e-02
5.2376348e-02
5.8001471e-02
7.2887387e-02
8.2560911e-02
8.1875780e-02
6.4401906e-02
5.0751335e-02
5.4371922e-02
6.4792192e-02
6.3905778e-02
4.0992709e-02
2.0538334e-02
1.2825053e-02
1.0675350e-02
6.5410061e-03
-9.6474106e-03
-2.0959870e-02
-2.1390858e-02
-1.6601533e-02
-9.4801760e-03
-7.8811675e-03
-5.1046566e-04
1.0004856e-02
1.8603780e-02
2.6610617e-02
2.6157633e-02
3.3392320e-02
5.5200258e-02
8.4658021e-02
1.1415790e-01
1.3368013e-01
1.4404705e-01
1.3528650e-01
1.0783477e-01
6.1716790e-02
-7.0092688e-03
-7.3894747e-02
-1.2152472e-01
-1.4830547e-01
-1.7119464e-01
-2.0839083e-01
-2.4238169e-01
-2.5501556e-01
-2.4312379e-01
-2.2652325e-01
-2.2527957e-01
-2.2471540e-01
-2.1166280e-01
-1.7791514e-01
-1.3814637e-01
-1.1393407e-01
-1.0073305e-01
-9.2193848e-02
-6.5154773e-02
-2.3836522e-02
8.0904348e-03
3.7850390e-02
6.6443230e-02
1.0601175e-01
1.5728854e-01
2.0379053e-01
2.4669564e-01
2.6494017e-01
2.5930180e-01
2.5489417e-01
2.5468860e-01
2.5960907e-01
2.5054273e-01
2.2898733e-01
2.1477468e-01
2.0632736e-01
2.0208063e-01
1.7964906e-01
1.3942491e-01
1.0190176e-01
6.3954360e-02
2.3221177e-02
-2.1588237e-02
-5.1026999e-02
-6.5690754e-02
-8.5858172e-02
-1.1236647e-01
-1.4810592e-01
-1.7351263e-01
-1.8902066e-01
-2.1532615e-01
-2.3659381e-01
-2.3826090e-01
-2.1466388e-01
-1.8084914e-01
-1.5874646e-01
-1.4190048e-01
-1.2229196e-01
-8.4413026e-02
-3.4966779e-02
5.3798227e-03
3.6006733e-02
4.9052904e-02
5.9883432e-02
7.5676713e-02
8.1716902e-02
7.8029944e-02
6.4013738e-02
6.0325742e-02
6.7496437e-02
6.4867850e-02
5.3344184e-02
3.3093810e-02
2.6677236e-02
3.7545475e-02
4.5115786e-02
4.6845956e-02
3.4128233e-02
2.3177859e-02
2.1820562e-02
1.5305374e-02
2.6061132e-03
-1.8586899e-02
-2.5994569e-02
-1.8209947e-02
-1.7536971e-02
-2.4131559e-02
-3.7316858e-02
-3.5764762e-02
-1.8841733e-02
-7.0988298e-03
-3.7070761e-03
-1.2069865e-02
-1.0255986e-02
3.3082894e-03
8.3710250e-03
3.3410191e-03
-1.3142661e-02
-1.4751434e-02
2.2867486e-03
1.2676613e-02
1.2254983e-02
1.3820895e-03
3.4464589e-03
1.8748900e-02
2.4769915e-02
2.0805259e-02
5.9757933e-03
1.6674142e-03
1.1257208e-02
1.4958093e-02
1.0756364e-02
-1.2193055e-03
2.4128759e-04
1.5258051e-02
2.3954847e-02
2.6413160e-02
2.0556709e-02
2.3276463e-02
3.3415007e-02
3.1371466e-02
1.8510222e-02
-3.4230140e-03
-1.2099681e-02
-9.3287813e-03
-1.8119899e-02
-3.7140143e-02
-6.3324961e-02
-7.1625724e-02
-5.7545680e-02
-4.1157098e-02
-2.9286185e-02
-2.9051290e-02
-1.9714020e-02
-3.6626625e-04
6.1475116e-03
2.4085629e-04
-1.4048125e-02
-1.4077355e-02
-1.5255458e-03
1.9734266e-03
-3.6545333e-03
-1.5863327e-02
-1.1619981e-02
7.3538724e-03
2.0576013e-02
2.8241935e-02
2.8692531e-02
3.6800698e-02
4.8547312e-02
5.2258985e-02
5.4982445e-02
5.5854302e-02
7.4861537e-02
1.1013334e-01
1.4030045e-01
1.6523484e-01
1.7839018e-01
1.8943186e-01
1.9622083e-01
1.8647248e-01
1.6434902e-01
1.2853864e-01
1.0035335e-01
8.1554873e-02
5.2628500e-02
1.4757221e-02
-3.0225878e-02
-6.4031945e-02
-8.2828973e-02
-1.0111684e-01
-1.2541584e-01
-1.6085927e-01
-1.9704724e-01
-2.2684120e-01
-2.4672462e-01
-2.5104225e-01
-2.3985363e-01
-2.1125204e-01
-1.6980028e-01
-1.2140857e-01
-7.2441567e-02
-2.9009923e-02
1.8427991e-02
6.9432805e-02
1.1387682e-01
1.4126956e-01
1.4088049e-01
1.3005853e-01
1.1776047e-01
9.4081535e-02
4.5476523e-02
-3.8461809e-02
-1.3293378e-01
-2.1007900e-01
-2.6297938e-01
-2.9378251e-01
-3.0648729e-01
-3.0716937e-01
-2.9891623e-01
-2.7260353e-01
-2.2428538e-01
-1.5621444e-01
-6.8706925e-02
1.6043316e-02
7.5625789e-02
1.1038961e-01
1.2229882e-01
1.3284194e-01
1.4320595e-01
1.3598900e-01
1.1651287e-01
8.8548752e-02
6.7870403e-02
6.3079517e-02
7.1976204e-02
8.8908474e-02
1.0538218e-01
1.3525253e-01
1.6721111e-01
1.8324835e-01
1.8908050e-01
1.8453721e-01
1.8460397e-01
1.8668176e-01
1.7700127e-01
1.5912036e-01
1.3295258e-01
1.1902973e-01
1.1720113e-01
1.0610612e-01
8.2506928e-02
4.3877021e-02
1.0201772e-02
-1.1392273e-02
-3.5794875e-02
-7.0507070e-02
-1.1996644e-01
-1.6254125e-01
-1.9137950e-01
-2.2038221e-01
-2.5366989e-01
-2.9487219e-01
-3.2863552e-01
-3.4343573e-01
-3.4286061e-01
-3.2269061e-01
-2.7751008e-01
-2.1955888e-01
-1.7427625e-01
-1.3571421e-01
-9.6707869e-02
-6.7603186e-02
-2.7179016e-02
3.5720065e-02
1.1126658e-01
1.8890389e-01
2.5301588e-01
2.9842250e-01
3.1065224e-01
2.9361791e-01
2.6487300e-01
2.3023536e-01
2.0670539e-01
1.8280834e-01
1.4762869e-01
1.1425507e-01
8.3845064e-02
6.4722467e-02
4.6020203e-02
1.8239550e-02
-8.8628028e-03
-3.7179907e-02
-4.7107181e-02
-3.5515262e-02
-2.3321328e-02
-1.5014579e-02
-1.2852646e-02
-3.8099390e-03
7.9744857e-03
9.1768391e-03
3.3499449e-03
-1.1023019e-02
-1.6912040e-02
-9.9416325e-03
-2.5255259e-04
6.9770891e-03
3.8902706e-03
4.3512659e-03
8.0744560e-03
8.8413087e-03
6.0640776e-03
-9.3425568e-03
-2.0505584e-02
-1.5179562e-02
4.0532257e-03
2.6267311e-02
3.7717248e-02
4.5998005e-02
5.0843731e-02
5.6191411e-02
6.3664239e-02
6.3993199e-02
7.4791074e-02
9.5599336e-02
1.0915523e-01
1.1109833e-01
9.7982313e-02
7.9733353e-02
5.7200282e-02
3.0349786e-02
-3.8099289e-03
-5.4752338e-02
-1.0406994e-01
-1.3495427e-01
-1.4484681e-01
-1.5057998e-01
-1.7006906e-01
-1.7968137e-01
-1.6137640e-01
-1.2336423e-01
-8.8355110e-02
-7.3892641e-02
-6.5728172e-02
-5.9193265e-02
-5.4946577e-02
-5.6976319e-02
-7.8010885e-02
-1.0260219e-01
-1.1814147e-01
-1.2469532e-01
-1.2908956e-01
-1.4252740e-01
-1.5100544e-01
-1.4090700e-01
-1.1258902e-01
-7.9573567e-02
-5.4504878e-02
-2.6915669e-02
5.8686350e-03
4.3237025e-02
7.4198730e-02
8.3317250e-02
8.7689581e-02
9.8787554e-02
1.2082651e-01
1.5026466e-01
1.7480046e-01
2.0569025e-01
2.3952740e-01
2.6615120e-01
2.8302359e-01
2.8169012e-01
2.6929543e-01
2.4306098e-01
2.0308876e-01
1.5343171e-01
8.7873207e-02
2.2291810e-02
-3.3014884e-02
-7.7838790e-02
-1.2172760e-01
-1.7884205e-01
-2.2895755e-01
-2.5017619e-01
-2.4236322e-01
-2.2730472e-01
-2.2526783e-01
-2.1667405e-01
-1.8310283e-01
-1.2676180e-01
-6.5395217e-02
-1.6192555e-02
2.7361470e-02
5.4934509e-02
6.2096444e-02
5.8084678e-02
3.9199430e-02
1.5723209e-02
-2.4359986e-03
-5.7219342e-03
-3.8984991e-03
-1.7572922e-02
-3.7464562e-02
-5.2630287e-02
-5.2319295e-02
-4.6448559e-02
-5.4941838e-02
-6.5302239e-02
-6.3654114e-02
-4.2533060e-02
-1.5995116e-02
-3.2932374e-03
-1.4352228e-03
-8.7171737e-03
-6.1377635e-03
6.7017541e-03
1.1693283e-02
1.8666820e-02
3.1482735e-02
5.5079666e-02
8.6268234e-02
1.1146211e-01
1.2819526e-01
1.2189934e-01
1.0216426e-01
8.5902215e-02
6.7954483e-02
4.6508879e-02
1.7346445e-02
-1.6153163e-03
-4.1974208e-03
-3.4536228e-03
3.6348240e-04
-2.8167961e-04
7.9200698e-03
3.0158989e-02
5.3388335e-02
7.7724560e-02
8.5259742e-02
7.8830844e-02
7.4153886e-02
6.6543888e-02
5.6194950e-02
3.4599147e-02
1.1398930e-02
-4.7562695e-03
-2.3803015e-02
-4.7055367e-02
-7.6016184e-02
-8.9403632e-02
-8.7289112e-02
-9.1638006e-02
-1.0080332e-01
-1.1087714e-01
-1.0252168e-01
-7.8499297e-02
-6.0135246e-02
-4.8588002e-02
-4.2752151e-02
-2.1970740e-02
1.1829533e-02
3.6836312e-02
5.0268404e-02
4.4604385e-02
3.5384056e-02
3.0263668e-02
1.6111634e-02
2.6364209e-03
-2.4377361e-03
9.3042354e-03
2.9884720e-02
4.2420192e-02
4.6352108e-02
3.9226376e-02
4.1799515e-02
5.5405149e-02
6.0339255e-02
5.3937398e-02
3.3414381e-02
2.2233665e-02
2.4560792e-02
2.1302478e-02
9.6891558e-03
-1.1372446e-02
-1.9091443e-02
-1.5029508e-02
-2.2117269e-02
-3.9228249e-02
-6.4562115e-02
-7.9105719e-02
-8.5238264e-02
-1.0286402e-01
-1.1468185e-01
-1.0509506e-01
-7.0875887e-02
-2.7616342e-02
4.8186361e-03
2.5338704e-02
3.2138055e-02
4.4680177e-02
6.5298373e-02
7.6251030e-02
7.8006917e-02
7.0033657e-02
7.1391754e-02
8.2402620e-02
8.4344303e-02
7.5506001e-02
5.2216933e-02
3.5658599e-02
2.9228842e-02
1.4370864e-02
-8.8506379e-03
-3.9048746e-02
-5.3740199e-02
-5.3859927e-02
-6.1956507e-02
-7.3906326e-02
-8.2504888e-02
-7.1108316e-02
-4.5508454e-02
-2.7172531e-02
-1.8733370e-02
-2.1318402e-02
-1.3440872e-02
6.4527067e-03
1.8653905e-02
2.2104135e-02
1.7643506e-02
2.5877707e-02
4.5329485e-02
5.5364183e-02
5.5439295e-02
4.4682082e-02
4.1197058e-02
4.4205653e-02
3.4770122e-02
1.3400615e-02
-1.9209088e-02
-4.2371196e-02
-5.7202930e-02
-8.4729198e-02
-1.0435338e-01
-9.4591582e-02
-5.3638894e-02
-3.1262652e-03
3.2629664e-02
5.2713313e-02
6.0120015e-02
7.6896238e-02
1.0137398e-01
1.1163693e-01
1.0799440e-01
9.2655240e-02
8.8655378e-02
9.6351205e-02
9.2571234e-02
7.5591811e-02
4.5952846e-02
2.3773862e-02
9.1118750e-03
-2.0175048e-02
-6.7529949e-02
-1.3136607e-01
-1.8590197e-01
-2.1732436e-01
-2.3545867e-01
-2.3998245e-01
-2.2974941e-01
-1.9722002e-01
-1.5068806e-01
-1.0680690e-01
-7.0652383e-02
-4.6388884e-02
-1.5102425e-02
2.4790300e-02
5.6271184e-02
7.7352028e-02
8.5231441e-02
9.8959583e-02
1.1954130e-01
1.2845774e-01
1.2387956e-01
1.0533803e-01
9.2012897e-02
8.1440294e-02
5.7600900e-02
2.5825716e-02
-1.3130400e-02
-3.9425922e-02
-5.2377191e-02
-7.2041381e-02
-8.8475544e-02
-9.0591519e-02
-6.8452023e-02
-3.0841993e-02
4.2088198e-03
3.5456769e-02
6.1751314e-02
9.2313824e-02
1.1535273e-01
1.2028794e-01
1.1811819e-01
1.0928028e-01
1.1161902e-01
1.2121877e-01
1.1715921e-01
1.0235715e-01
7.7383689e-02
6.0108749e-02
5.4751441e-02
4.6199723e-02
2.8863285e-02
-1.8753583e-03
-2.7275512e-02
-4.8773979e-02
-8.4550875e-02
-1.2447864e-01
-1.5988489e-01
-1.7963001e-01
-1.7641151e-01
-1.5604825e-01
-1.3658141e-01
-1.3351752e-01
-1.2692745e-01
-9.8504435e-02
-4.9072639e-02
1.3070052e-03
3.2881695e-02
6.6129073e-02
1.0093066e-01
1.1804165e-01
1.1902092e-01
1.0467838e-01
9.1550321e-02
7.8137588e-02
4.9972665e-02
7.8752238e-03
-5.0767058e-02
-1.0603124e-01
-1.4045165e-01
-1.5584480e-01
-1.6849097e-01
-1.9521349e-01
-2.1752873e-01
-2.1691413e-01
-1.9095785e-01
-1.5632597e-01
-1.3137297e-01
-9.7256222e-02
-4.5501225e-02
1.6388218e-02
8.1440931e-02
1.4128118e-01
1.9756088e-01
2.2867688e-01
2.3244584e-01
2.3159377e-01
2.2792787e-01
2.1953468e-01
1.9375084e-01
1.6062583e-01
1.3326448e-01
1.0349370e-01
7.1184532e-02
3.4740862e-02
1.4244305e-02
1.5404895e-02
2.2435252e-02
2.7822832e-02
2.0594252e-02
2.0008141e-02
3.1087313e-02
3.5915167e-02
3.5242121e-02
3.0039700e-02
3.9581487e-02
6.2580158e-02
7.7729911e-02
8.0566896e-02
6.4582424e-02
4.7934283e-02
3.3063179e-02
4.6194539e-04
-4.0140109e-02
-7.7173605e-02
-9.9751800e-02
-1.1840877e-01
-1.5349317e-01
-1.9124067e-01
-2.1639964e-01
-2.2292330e-01
-2.1576147e-01
-2.0373106e-01
-1.8944682e-01
-1.7414652e-01
-1.4497101e-01
-1.1256869e-01
-9.7693856e-02
-8.6949689e-02
-6.5308576e-02
-2.3499240e-02
2.3805869e-02
5.5172260e-02
7.1313954e-02
7.4912458e-02
8.7683976e-02
1.0895151e-01
1.1814226e-01
1.1295395e-01
9.0942514e-02
7.3049560e-02
6.4131467e-02
4.8014411e-02
2.3351404e-02
-1.0211391e-02
-3.0620635e-02
-3.0745023e-02
-2.4037402e-02
-1.7919079e-02
-1.8721698e-02
-5.3614386e-03
2.0604684e-02
3.7920914e-02
4.6341195e-02
4.3965423e-02
5.0139562e-02
6.6601320e-02
7.3729359e-02
7.0463417e-02
5.6631344e-02
5.3373884e-02
6.1525851e-02
6.0727748e-02
4.9611671e-02
2.7573589e-02
1.4799398e-02
9.0116906e-03
-1.0768536e-02
-4.0770520e-02
-7.9319215e-02
-1.0813515e-01
-1.1158504e-01
-9.4046239e-02
-7.3260927e-02
-6.5481067e-02
-4.7902732e-02
-1.8082426e-02
4.0216621e-03
1.8223525e-02
2.5138367e-02
4.3971626e-02
7.4260731e-02
9.6486007e-02
1.0798764e-01
1.0505452e-01
1.0634076e-01
1.1391158e-01
1.0897701e-01
8.8521493e-02
5.0292653e-02
1.3232390e-02
-1.5052038e-02
-4.4603680e-02
-7.4881725e-02
-1.0740510e-01
-1.3148496e-01
-1.4693997e-01
-1.6346622e-01
-1.8123972e-01
-1.9870999e-01
-1.9682888e-01
-1.7071620e-01
-1.3074421e-01
-8.6851862e-02
-4.9751325e-02
-2.2923074e-03
4.9536864e-02
8.2929784e-02
9.9009606e-02
9.7784253e-02
9.6107088e-02
1.0086539e-01
1.0509474e-01
1.0320417e-01
8.7277569e-02
7.8843382e-02
7.5462097e-02
5.6986237e-02
2.8808006e-02
-7.1776671e-03
-3.3016650e-02
-3.2085285e-02
-5.3614205e-03
3.2469311e-02
6.6006305e-02
1.0675758e-01
1.4437229e-01
1.6410643e-01
1.7282244e-01
1.7081385e-01
1.6467545e-01
1.4543936e-01
1.0965020e-01
6.4873243e-02
6.8127370e-03
-4.5183738e-02
-7.3635647e-02
-8.0640914e-02
-8.7754198e-02
-1.1602627e-01
-1.4486727e-01
-1.5252276e-01
-1.3791984e-01
-1.2301562e-01
-1.2968389e-01
-1.3842797e-01
-1.3891908e-01
-1.4049000e-01
-1.5399933e-01
-1.8933164e-01
-2.2391731e-01
-2.3276298e-01
-2.1463020e-01
-1.9293744e-01
-1.8777955e-01
-1.8143366e-01
-1.5598357e-01
-1.0739125e-01
-5.3363338e-02
-1.2277855e-02
2.6544730e-02
6.3957710e-02
1.0449426e-01
1.5138405e-01
1.9700125e-01
2.4122665e-01
2.6067128e-01
2.5494230e-01
2.4601977e-01
2.3474408e-01
2.2402735e-01
2.0256840e-01
1.7336273e-01
1.4741342e-01
1.1865068e-01
8.6501328e-02
4.8029109e-02
2.1343523e-02
8.7852405e-03
-7.2397076e-03
-2.8784258e-02
-5.7971550e-02
-7.1518468e-02
-6.6678642e-02
-6.3362917e-02
-6.2475309e-02
-6.7984650e-02
-6.3123607e-02
-4.6462849e-02
-3.6003957e-02
-3.2409127e-02
-4.1103857e-02
-4.5707816e-02
-3.9609026e-02
-3.7041695e-02
-3.7787277e-02
-4.3116002e-02
-3.6171551e-02
-1.7042059e-02
-4.1925087e-03
1.6085441e-04
-4.2236454e-03
6.3508847e-03
2.9709122e-02
4.0847348e-02
3.9268272e-02
2.4625455e-02
1.7735753e-02
2.1947746e-02
1.9141616e-02
7.8324300e-03
-1.2988938e-02
-2.1256372e-02
-1.4720299e-02
-1.2876073e-02
-1.7169001e-02
-2.8003303e-02
-2.4279222e-02
-5.6163545e-03
7.5705953e-03
1.4100852e-02
9.7354416e-03
9.6959084e-03
1.7116523e-02
1.8475049e-02
1.4008695e-02
1.6543994e-03
2.0119901e-03
1.4434853e-02
1.7133820e-02
9.4689187e-03
-8.1699105e-03
-1.2584498e-02
-2.1776827e-03
1.2676122e-03
-3.4808285e-03
-1.6762136e-02
-1.7043303e-02
-3.8137656e-03
5.9021316e-04
-5.0871855e-03
-1.9990126e-02
-2.1668601e-02
-9.6549745e-03
-6.1620523e-03
-1.2093793e-02
-2.4248482e-02
-1.9913652e-02
-3.8210194e-03
3.6185054e-04
-4.2382531e-03
-1.5262724e-02
-1.4002086e-02
-1.2207367e-03
4.7576451e-03
4.5698024e-03
-3.1834241e-03
-3.1643155e-04
1.2294570e-02
1.5666964e-02
1.1478603e-02
4.1358568e-04
2.2793515e-03
1.5696142e-02
1.9446199e-02
1.5948430e-02
7.0760699e-03
1.1391662e-02
2.8502644e-02
3.8981645e-02
4.3680850e-02
3.8499903e-02
3.7970345e-02
4.5050178e-02
4.3105622e-02
3.3453801e-02
1.7606165e-02
1.5534734e-02
2.5802111e-02
2.7176848e-02
2.1483001e-02
1.0702875e-02
1.4281620e-02
3.1454800e-02
4.1941809e-02
4.4388546e-02
3.7300207e-02
3.8123642e-02
4.6048136e-02
4.3349458e-02
3.0508732e-02
7.1444173e-03
-8.3007886e-03
-1.4148185e-02
-2.6640452e-02
-4.9453468e-02
-8.5106048e-02
-1.1599185e-01
-1.3485270e-01
-1.4631181e-01
-1.5977336e-01
-1.8951547e-01
-2.1538167e-01
-2.1999312e-01
-2.0616664e-01
-1.8929101e-01
-1.8488606e-01
-1.7327743e-01
-1.3858771e-01
-8.2509332e-02
-1.9644479e-02
3.4341030e-02
8.2494893e-02
1.1553940e-01
1.3958402e-01
1.6530570e-01
1.8581583e-01
2.0361462e-01
2.1587573e-01
2.3544351e-01
2.6710830e-01
2.8998997e-01
2.9536547e-01
2.7023521e-01
2.2158632e-01
1.6848005e-01
1.1075580e-01
4.6746408e-02
-2.5369211e-02
-8.5177188e-02
-1.3182049e-01
-1.8526408e-01
-2.2589507e-01
-2.3369788e-01
-2.0847455e-01
-1.7212676e-01
-1.4615255e-01
-1.2842616e-01
-1.1815229e-01
-9.7205200e-02
-6.4869481e-02
-4.0163120e-02
-2.6442215e-02
-2.3887773e-02
-7.7265992e-03
2.3078799e-02
4.7558950e-02
6.2542120e-02
6.1847520e-02
6.4360450e-02
7.3006081e-02
6.8524636e-02
5.7684718e-02
4.4224159e-02
3.8353537e-02
3.8276814e-02
2.9305456e-02
1.2774597e-02
-8.3811013e-03
-1.0826075e-02
4.4592587e-03
1.4719845e-02
1.6143991e-02
5.2034769e-03
2.1419052e-03
8.6955713e-03
7.2882530e-03
-5.0495062e-04
-1.6749256e-02
-2.4817871e-02
-2.1018121e-02
-2.1140394e-02
-2.8640130e-02
-4.4561534e-02
-4.7593277e-02
-3.6864615e-02
-3.0375403e-02
-2.8159114e-02
-3.1349806e-02
-2.1391795e-02
-4.6761622e-04
1.0682205e-02
1.2760366e-02
6.3304075e-03
1.1749865e-02
2.8576954e-02
3.5773409e-02
3.2727233e-02
1.9929245e-02
1.8287791e-02
2.9853133e-02
3.6754861e-02
3.7634552e-02
3.0818347e-02
3.6191265e-02
5.1623119e-02
5.3657492e-02
4.2449141e-02
2.0805988e-02
9.8329382e-03
1.0125251e-02
2.1499992e-03
-1.4044230e-02
-3.6884111e-02
-4.4927149e-02
-3.0831135e-02
-8.4051617e-03
1.3360316e-02
2.5075456e-02
4.2987310e-02
6.4118687e-02
6.8752906e-02
5.8482079e-02
3.4439213e-02
1.7614905e-02
1.0997064e-02
-3.4636690e-03
-2.8083208e-02
-6.4596755e-02
-9.3809292e-02
-1.0300222e-01
-9.8798426e-02
-9.4087693e-02
-1.0213028e-01
-1.0621031e-01
-9.8062579e-02
-8.4954979e-02
-7.4871386e-02
-7.8300385e-02
-7.7477293e-02
-6.0441739e-02
-3.3070164e-02
-6.0911157e-03
9.3785179e-03
3.0934361e-02
5.8754995e-02
7.8026391e-02
8.7815755e-02
8.4324021e-02
7.7155674e-02
6.4923228e-02
4.6973725e-02
2.7352393e-02
-8.1016265e-04
-3.0222632e-02
-5.4063864e-02
-5.8044291e-02
-4.4650916e-02
-3.3345074e-02
-2.6753115e-02
-2.4342869e-02
-5.7755055e-03
2.6912912e-02
5.1788187e-02
7.3861136e-02
8.4854877e-02
8.5806434e-02
8.6192178e-02
8.0525606e-02
6.5314710e-02
3.5973840e-02
1.4578877e-02
6.0656164e-03
-8.1664741e-03
-2.5745354e-02
-4.2868975e-02
-4.1084285e-02
-2.4393547e-02
-1.4976476e-02
-1.2810776e-02
-1.8658385e-02
-1.6119387e-02
-4.5271016e-03
-8.8557366e-04
-5.6814937e-03
-1.9325550e-02
-2.0623390e-02
-7.9602388e-03
-9.2340098e-04
-2.7289774e-03
-1.5591689e-02
-1.7184068e-02
-5.5775382e-03
-5.5454543e-04
-4.0992386e-03
-1.6733818e-02
-1.6952199e-02
-5.3272641e-03
-3.6824226e-04
-1.0651591e-03
-7.8576331e-03
-4.9853997e-05
2.1644042e-02
3.6620447e-02
4.3798709e-02
4.3154416e-02
5.0015721e-02
5.7327339e-02
5.1574891e-02
3.8646563e-02
1.6685017e-02
6.9498008e-03
1.1137034e-02
9.2443305e-03
4.0690181e-04
-1.6687559e-02
-2.3448296e-02
-2.0151618e-02
-2.5750596e-02
-3.7859746e-02
-5.4010839e-02
-5.5597483e-02
-4.4091520e-02
-3.8437097e-02
-3.8138363e-02
-4.3756881e-02
-3.7630914e-02
-2.1450067e-02
-1.4893566e-02
-1.6943465e-02
-2.5524908e-02
-1.9262011e-02
1.2787299e-03
1.5395901e-02
2.2200091e-02
2.1061914e-02
3.1859898e-02
5.1796015e-02
5.8645416e-02
5.5183480e-02
4.3174572e-02
4.0789753e-02
4.5689468e-02
3.7625386e-02
2.0635216e-02
-1.9932230e-03
-1.2309918e-02
-3.5780632e-03
1.4383786e-02
3.3806520e-02
4.6023871e-02
6.9265791e-02
9.8690725e-02
1.1253998e-01
1.1276876e-01
1.0004346e-01
9.3144851e-02
8.9131638e-02
6.7954924e-02
3.4138019e-02
-1.0318995e-02
-4.6867249e-02
-6.4542805e-02
-7.2178893e-02
-8.1025229e-02
-1.0150286e-01
-1.1457201e-01
-1.1180906e-01
-1.0464443e-01
-1.0340864e-01
-1.1773554e-01
-1.3347862e-01
-1.4039445e-01
-1.3844840e-01
-1.3745506e-01
-1.5162547e-01
-1.6190602e-01
-1.4839601e-01
-1.1097370e-01
-7.0434101e-02
-4.6419141e-02
-2.9043970e-02
-8.1382071e-03
2.8488077e-02
7.2301081e-02
1.0404779e-01
1.2426629e-01
1.2765383e-01
1.2945916e-01
1.3691304e-01
1.3656257e-01
1.2792903e-01
1.0773095e-01
9.2428784e-02
8.4861946e-02
6.9078551e-02
5.1983773e-02
3.6108730e-02
3.1126648e-02
3.3451484e-02
2.6239294e-02
7.8748948e-03
-2.3069734e-02
-4.3938955e-02
-5.2247872e-02
-6.7617704e-02
-8.3405203e-02
-9.1570938e-02
-7.7315418e-02
-4.9933300e-02
-3.1730345e-02
-2.0643413e-02
-1.6427512e-02
-2.2516308e-03
2.1550983e-02
3.5905955e-02
4.0382700e-02
3.5617639e-02
4.3084099e-02
6.1655010e-02
6.9406018e-02
6.5389055e-02
4.8645462e-02
4.0283015e-02
4.1100948e-02
3.0553052e-02
6.8551924e-03
-3.0702741e-02
-5.8662968e-02
-7.3823653e-02
-9.5477359e-02
-1.1200224e-01
-1.1148935e-01
-8.6542176e-02
-5.0629062e-02
-2.4582730e-02
-1.0083434e-02
-8.7765680e-03
5.4733795e-04
1.9212361e-02
2.7013765e-02
2.4913761e-02
1.4446082e-02
1.5951081e-02
2.9551000e-02
3.5614573e-02
3.4911871e-02
2.7917260e-02
3.3615628e-02
4.8686103e-02
5.0388776e-02
4.1591487e-02
2.4879321e-02
1.8227438e-02
2.0449531e-02
1.2188972e-02
-2.5874681e-03
-1.8879466e-02
-1.8761231e-02
-4.6412769e-03
4.9063420e-03
9.4100975e-03
8.3280871e-03
2.0682395e-02
4.2596744e-02
5.1377602e-02
5.0110642e-02
4.2578986e-02
4.8853364e-02
6.5805959e-02
6.9748683e-02
6.2903197e-02
4.8789820e-02
4.5723796e-02
5.3120161e-02
5.1633452e-02
3.9600694e-02
1.5654188e-02
-3.4450983e-03
-2.2523048e-02
-6.2265651e-02
-1.0503936e-01
-1.3497427e-01
-1.4900244e-01
-1.4752155e-01
-1.3281508e-01
-1.1873429e-01
-1.2053673e-01
-1.2117952e-01
-1.1458783e-01
-1.0826718e-01
-1.0758247e-01
-1.2041777e-01
-1.2958612e-01
-1.2777764e-01
-1.2091511e-01
-1.1561661e-01
-1.2109920e-01
-1.1986230e-01
-9.6269496e-02
-4.7608607e-02
1.2986188e-02
6.9053328e-02
1.1877081e-01
1.4065496e-01
1.3772860e-01
1.3291798e-01
1.2770901e-01
1.2068450e-01
9.8540684e-02
7.2391733e-02
5.6894961e-02
4.4714946e-02
3.5885190e-02
2.7392766e-02
3.6339560e-02
6.7116083e-02
1.0415104e-01
1.4346649e-01
1.5875284e-01
1.4983129e-01
1.4266333e-01
1.3998168e-01
1.3749579e-01
1.1835467e-01
9.0290908e-02
6.8282924e-02
4.6603326e-02
2.1798577e-02
-1.5974916e-02
-4.9573546e-02
-6.4114686e-02
-6.8117812e-02
-7.1859337e-02
-8.5381727e-02
-8.6507271e-02
-7.1976074e-02
-6.0421661e-02
-5.5790043e-02
-6.2371014e-02
-5.6932178e-02
-3.6766673e-02
-2.2959035e-02
-1.7668961e-02
-2.4510650e-02
-2.4354476e-02
-1.4945422e-02
-1.5647860e-02
-2.5862868e-02
-4.4622677e-02
-5.1508887e-02
-4.4859128e-02
-4.3585339e-02
-4.8612945e-02
-5.9666028e-02
-5.5769873e-02
-3.3581210e-02
-1.0427334e-02
6.2965113e-03
1.0088857e-02
2.2718129e-02
4.4422084e-02
5.4533003e-02
5.4410544e-02
4.4445354e-02
4.4611402e-02
5.5352240e-02
5.8052367e-02
5.2564900e-02
3.7296542e-02
3.4014265e-02
4.4148978e-02
4.6014013e-02
3.6470715e-02
1.3583578e-02
-2.0175426e-04
-1.5357260e-03
-9.1824705e-03
-2.3511306e-02
-4.4942655e-02
-5.3886546e-02
-4.3974803e-02
-2.8110487e-02
-1.4966574e-02
-1.3573479e-02
-2.2756574e-03
2.2838687e-02
4.2404331e-02
5.3160596e-02
5.3072723e-02
6.0917887e-02
7.8545413e-02
8.9162726e-02
9.0631053e-02
8.0120750e-02
7.6623350e-02
7.8714274e-02
6.5368596e-02
3.6773535e-02
-7.3609686e-03
-4.9762881e-02
-7.6027496e-02
-8.8653356e-02
-1.0226864e-01
-1.3316315e-01
-1.6316409e-01
-1.7526359e-01
-1.7057847e-01
-1.6488006e-01
-1.7494628e-01
-1.8176107e-01
-1.6572817e-01
-1.2725177e-01
-8.7294588e-02
-6.4503074e-02
-3.5913802e-02
-2.2269411e-03
1.4509152e-02
1.5389084e-02
2.4012575e-03
-4.1047237e-03
1.2151244e-02
4.9397656e-02
9.3364963e-02
1.2813570e-01
1.5259830e-01
1.5470037e-01
1.4466823e-01
1.3519232e-01
1.1838240e-01
9.7236271e-02
7.1851038e-02
5.8398671e-02
5.6720608e-02
4.8049880e-02
3.3785112e-02
1.5751965e-02
1.2751527e-02
2.4361588e-02
3.0971243e-02
3.0065262e-02
2.1323913e-02
2.6720379e-02
4.5547922e-02
5.5978251e-02
5.6029710e-02
4.5596462e-02
4.5471770e-02
5.3939072e-02
4.8518378e-02
2.6419405e-02
-1.1412868e-02
-4.1560330e-02
-6.4088418e-02
-9.8653612e-02
-1.3902720e-01
-1.7739935e-01
-1.9757386e-01
-2.0041646e-01
-2.0015097e-01
-1.9505998e-01
-1.8365298e-01
-1.5669190e-01
-1.1641489e-01
-7.4174153e-02
-3.8369935e-02
-1.6090629e-02
1.5000709e-02
5.3205557e-02
7.5874251e-02
8.4300965e-02
7.9380225e-02
8.1500654e-02
9.2596013e-02
9.3066137e-02
8.2469607e-02
6.1744626e-02
5.2576964e-02
5.6484242e-02
5.3698966e-02
4.4331016e-02
2.8424371e-02
2.3544005e-02
2.8649078e-02
2.5320528e-02
1.4300385e-02
-4.4122681e-03
-1.2101178e-02
-7.4733995e-03
-6.9951174e-03
-9.9474198e-03
-1.6766240e-02
-7.8690330e-03
1.5085979e-02
2.9250700e-02
3.4288799e-02
3.1674155e-02
3.9492229e-02
5.2328640e-02
4.8802490e-02
3.5392273e-02
1.7595596e-02
1.3552365e-02
2.5004290e-02
3.6053878e-02
4.1825913e-02
3.8286263e-02
4.4785384e-02
5.7030457e-02
5.2326596e-02
3.4267418e-02
6.1338655e-03
-1.3729807e-02
-1.9102949e-02
-2.1380668e-02
-2.9333545e-02
-5.2642507e-02
-7.2075075e-02
-7.9658534e-02
-8.6702816e-02
-1.0077160e-01
-1.2931808e-01
-1.5513757e-01
-1.6227557e-01
-1.4876863e-01
-1.3093169e-01
-1.2785207e-01
-1.2249882e-01
-1.0524743e-01
-7.9495407e-02
-5.2199706e-02
-3.9191878e-02
-3.4795852e-02
-2.5946933e-02
-1.3913306e-03
3.3513707e-02
6.4791004e-02
9.0350482e-02
9.8113481e-02
9.9008810e-02
1.0584098e-01
1.1119596e-01
1.1443183e-01
1.0962630e-01
1.1324849e-01
1.3205603e-01
1.5172602e-01
1.7108599e-01
1.7290690e-01
1.6282771e-01
1.5779938e-01
1.5316061e-01
1.4816134e-01
1.2396855e-01
8.3026130e-02
4.5600348e-02
1.0818142e-02
-2.3224981e-02
-5.9169360e-02
-7.8082768e-02
-7.8594250e-02
-8.0222102e-02
-8.3272305e-02
-9.1200170e-02
-9.0166603e-02
-7.8959456e-02
-7.3353548e-02
-7.4710229e-02
-8.7908193e-02
-9.3717459e-02
-8.6540801e-02
-8.4018335e-02
-8.8199799e-02
-1.0073485e-01
-1.0144119e-01
-8.8503411e-02
-8.1662288e-02
-7.9008607e-02
-7.6296476e-02
-5.3150425e-02
-1.2929564e-02
1.7481808e-02
3.4209336e-02
4.2561245e-02
6.4774924e-02
9.7419691e-02
1.1842869e-01
1.2437442e-01
1.1187944e-01
1.0287773e-01
1.0032414e-01
8.5431949e-02
6.0410306e-02
2.8286927e-02
1.3877918e-02
1.9501857e-02
2.1076459e-02
1.5363768e-02
4.8106250e-03
1.1846916e-02
3.5356877e-02
5.3999848e-02
6.6372569e-02
7.1312557e-02
8.1252433e-02
8.5802054e-02
6.4957827e-02
2.0657633e-02
-4.5745151e-02
-1.1341886e-01
-1.6574316e-01
-2.0450611e-01
-2.3741067e-01
-2.7171109e-01
-2.9666273e-01
-3.0385661e-01
-2.9569846e-01
-2.8943770e-01
-3.0102087e-01
-3.1120303e-01
-3.0182334e-01
-2.7092100e-01
-2.2570126e-01
-1.7403716e-01
-1.0230538e-01
-8.9709410e-03
9.8007009e-02
2.1017834e-01
3.1261553e-01
4.0125176e-01
4.6162928e-01
4.8183219e-01
4.6438509e-01
4.2381774e-01
3.7931506e-01
3.2096130e-01
2.5143876e-01
1.8829295e-01
1.2987285e-01
8.1023605e-02
4.0205308e-02
1.0959700e-02
-7.1347977e-03
-2.7592048e-02
-4.8588723e-02
-7.1171570e-02
-8.4399364e-02
-8.7236466e-02
-9.1883848e-02
-9.4290780e-02
-9.6071274e-02
-8.5482015e-02
-6.2730533e-02
-4.3037581e-02
-2.6739880e-02
-1.7293779e-02
-3.2277802e-03
9.5244171e-03
5.3591124e-03
-3.1359502e-03
-8.2741902e-03
8.3424178e-05
1.4299056e-02
1.5372676e-02
2.8430393e-03
-2.1669798e-02
-3.7737418e-02
-4.6387645e-02
-6.7872001e-02
-9.2974963e-02
-1.1117275e-01
-1.1239263e-01
-9.8716330e-02
-8.0219687e-02
-6.4523143e-02
-5.9089813e-02
-4.3409091e-02
-2.1393421e-02
-1.6734382e-02
-3.0203438e-02
-6.1661569e-02
-8.9116448e-02
-9.6613542e-02
-8.9535672e-02
-7.4344713e-02
-5.6596681e-02
-2.2378064e-02
2.4260557e-02
6.6150956e-02
9.6237323e-02
1.0815776e-01
1.2485664e-01
1.4802305e-01
1.5759771e-01
1.5533218e-01
1.4326958e-01
1.4392530e-01
1.5725618e-01
1.6148649e-01
1.5674963e-01
1.4231081e-01
1.3714421e-01
1.4024226e-01
1.2895068e-01
1.0224807e-01
6.1875842e-02
2.7637147e-02
4.0214290e-05
-3.7499090e-02
-8.7036376e-02
-1.5171918e-01
-2.1028214e-01
-2.5679782e-01
-3.0679760e-01
-3.5498388e-01
-3.9453881e-01
-4.1533690e-01
-4.1060588e-01
-3.7932833e-01
-3.1839254e-01
-2.2845578e-01
-1.1673966e-01
-3.4211086e-03
1.0329207e-01
2.0509013e-01
2.9227453e-01
3.5585700e-01
3.8104979e-01
3.6677946e-01
3.2418525e-01
2.5929477e-01
1.9348002e-01
1.3430636e-01
8.0529663e-02
3.0422813e-02
-2.4134190e-02
-6.4026656e-02
-6.9854073e-02
-3.9962439e-02
6.1589809e-03
4.5897968e-02
7.4695779e-02
8.1886239e-02
8.0017110e-02
7.6358475e-02
5.8123428e-02
3.3939523e-02
2.0481424e-03
-3.2804632e-02
-6.6648568e-02
-1.0925658e-01
-1.4574128e-01
-1.6410613e-01
-1.5989183e-01
-1.4718280e-01
-1.4841395e-01
-1.4595842e-01
-1.2463215e-01
-8.7048699e-02
-4.6729249e-02
-1.8446803e-02
-3.2929603e-03
-2.5318363e-03
5.2491389e-03
2.2722156e-02
3.0597132e-02
2.8220448e-02
1.5059600e-02
9.9483169e-03
1.5596081e-02
1.6771627e-02
1.1911119e-02
-8.5802217e-04
1.7268067e-03
1.8933564e-02
2.7348838e-02
2.6173271e-02
1.3573663e-02
8.8864197e-03
1.2210131e-02
2.8667094e-03
-8.7242324e-03
-1.2861344e-02
2.3517681e-03
2.9741503e-02
4.8582385e-02
5.6978287e-02
5.2942687e-02
5.5760291e-02
6.5539211e-02
6.3121515e-02
5.1630552e-02
3.2420251e-02
2.4716447e-02
2.8066848e-02
2.2626378e-02
1.0059190e-02
-8.4113401e-03
-1.2374357e-02
-2.7379118e-03
-1.7778442e-03
-9.8762746e-03
-2.6773165e-02
-3.3482870e-02
-3.2521668e-02
-4.5455609e-02
-6.1150312e-02
-6.7897201e-02
-5.4130286e-02
-2.9797618e-02
-1.5229946e-02
-8.8972479e-03
-9.7119443e-03
2.2959490e-03
2.5930318e-02
3.9583382e-02
4.4346349e-02
4.1755025e-02
5.2317696e-02
7.5692628e-02
9.0940328e-02
9.9019279e-02
1.0030790e-01
1.0863751e-01
1.1617168e-01
1.0508877e-01
8.2462250e-02
5.0936359e-02
3.1808008e-02
2.7607406e-02
1.7128243e-02
-8.3879105e-04
-2.3819066e-02
-3.8274565e-02
-4.2454807e-02
-4.3609609e-02
-4.8017172e-02
-6.6285497e-02
-8.2434873e-02
-8.4121451e-02
-7.4043794e-02
-6.6327256e-02
-7.6845312e-02
-9.3138415e-02
-1.0297665e-01
-9.8449228e-02
-9.1353093e-02
-1.0139109e-01
-1.1324170e-01
-1.1139888e-01
-9.0064596e-02
-6.4135658e-02
-5.4467738e-02
-5.5764833e-02
-6.3599554e-02
-6.4925067e-02
-4.8244841e-02
-1.6296078e-02
1.6298508e-02
3.1381347e-02
4.7310229e-02
7.0175424e-02
8.4042775e-02
8.8146286e-02
8.1260183e-02
8.2743585e-02
9.4654632e-02
9.9304370e-02
9.5093527e-02
8.0044769e-02
7.5672740e-02
8.2295383e-02
7.8092425e-02
6.1553286e-02
3.1025882e-02
8.1250295e-03
-3.0053703e-03
-2.1061242e-02
-4.8553261e-02
-8.7256481e-02
-1.1485070e-01
-1.1531466e-01
-9.4838422e-02
-6.9063865e-02
-5.3666408e-02
-2.8501395e-02
5.4872727e-03
2.7253916e-02
3.7694064e-02
3.7103741e-02
4.4982165e-02
6.1632790e-02
6.8925460e-02
6.7826696e-02
5.6376305e-02
5.4669102e-02
6.3631129e-02
6.2292021e-02
5.0503396e-02
2.7887520e-02
1.5823532e-02
1.5785726e-02
7.0742074e-03
-1.1492773e-02
-4.0620307e-02
-5.9701430e-02
-6.1376404e-02
-5.8021784e-02
-5.4742206e-02
-5.7308844e-02
-4.7241846e-02
-2.5397649e-02
-1.1093964e-02
-3.6163165e-03
-8.7479100e-04
1.6957821e-02
4.6264269e-02
6.5502617e-02
7.7274708e-02
8.3154808e-02
1.0017814e-01
1.2567917e-01
1.3964471e-01
1.4208967e-01
1.3274571e-01
1.3003896e-01
1.3483137e-01
1.2974672e-01
1.1155924e-01
7.7128445e-02
4.5642725e-02
2.1282188e-02
-9.7289667e-03
-4.6652349e-02
-8.9182004e-02
-1.2374566e-01
-1.4188370e-01
-1.4886992e-01
-1.5369535e-01
-1.6490365e-01
-1.7041291e-01
-1.5951344e-01
-1.3587227e-01
-1.2182216e-01
-1.3630677e-01
-1.5855251e-01
-1.6947394e-01
-1.6754307e-01
-1.6618877e-01
-1.8035383e-01
-1.9125338e-01
-1.7885745e-01
-1.4239761e-01
-1.0422012e-01
-8.5675191e-02
-6.5329975e-02
-3.4741784e-02
-6.8196128e-03
1.3387413e-02
2.1838301e-02
2.9522145e-02
4.6677420e-02
8.3699192e-02
1.2947181e-01
1.6347456e-01
1.8718293e-01
1.8861123e-01
1.7689814e-01
1.6671742e-01
1.5116573e-01
1.3184145e-01
1.0809008e-01
9.7733918e-02
1.0115162e-01
9.9101077e-02
9.2120951e-02
7.6232146e-02
6.7517590e-02
6.9969955e-02
6.7071551e-02
5.5961899e-02
3.3091213e-02
2.0804346e-02
2.2279680e-02
1.7318621e-02
3.2816154e-03
-2.2214210e-02
-3.6831953e-02
-3.6938826e-02
-3.9861178e-02
-4.8660592e-02
-6.8456347e-02
-7.6791681e-02
-7.0651610e-02
-7.0424974e-02
-7.7544070e-02
-9.3462875e-02
-9.7093728e-02
-8.5040024e-02
-7.5330886e-02
-7.0099350e-02
-7.2769193e-02
-6.3050051e-02
-3.7863716e-02
-1.6614823e-02
-1.1446711e-03
4.7226789e-03
1.6339169e-02
3.4627756e-02
4.3903575e-02
4.5202915e-02
3.4847065e-02
3.1501293e-02
4.1234565e-02
4.7925312e-02
4.9737466e-02
4.1202082e-02
3.8893390e-02
4.6937384e-02
4.8828913e-02
4.4405688e-02
3.1363006e-02
2.8168639e-02
3.6739225e-02
3.8323051e-02
3.2750710e-02
1.9680945e-02
1.9668224e-02
3.3483845e-02
4.0997438e-02
4.2769329e-02
3.3096555e-02
2.5090262e-02
2.3134339e-02
1.1416131e-02
-1.0017243e-02
-3.8130055e-02
-5.0267868e-02
-4.8688469e-02
-5.6754575e-02
-7.4839559e-02
-1.0107394e-01
-1.1185974e-01
-1.0481551e-01
-1.0102804e-01
-1.0225080e-01
-1.0776164e-01
-9.5658003e-02
-6.5655067e-02
-4.0254413e-02
-2.1712648e-02
-8.5929987e-03
1.9683221e-02
5.8628011e-02
8.5495203e-02
1.0280331e-01
1.0465372e-01
1.0283987e-01
1.0610402e-01
1.0350348e-01
9.3478748e-02
7.5087573e-02
6.5869617e-02
6.2522417e-02
4.8624471e-02
2.9622015e-02
7.3982203e-03
1.8074551e-04
3.4371374e-03
-5.0861951e-03
-2.3075637e-02
-4.8239795e-02
-6.0361621e-02
-5.4727915e-02
-4.6933253e-02
-4.1581697e-02
-4.4354786e-02
-3.7459225e-02
-2.3091805e-02
-2.2524894e-02
-3.2643471e-02
-5.6011793e-02
-9.3023942e-02
-1.3244189e-01
-1.5395051e-01
-1.6192306e-01
-1.7476129e-01
-1.7765597e-01
-1.5647294e-01
-1.0657931e-01
-4.1986491e-02
1.8720396e-02
7.6401703e-02
1.0986815e-01
1.1675687e-01
1.1846181e-01
1.1796348e-01
1.1733926e-01
1.1151144e-01
1.1307737e-01
1.2768952e-01
1.4248794e-01
1.5933224e-01
1.5855182e-01
1.3776801e-01
1.1650864e-01
9.7189593e-02
8.0891774e-02
6.0750427e-02
5.0328285e-02
5.3725047e-02
5.5611853e-02
5.5072606e-02
4.6249649e-02
4.5119645e-02
5.4645760e-02
5.6482368e-02
4.9816702e-02
3.4968712e-02
3.1862800e-02
3.8394571e-02
3.3188963e-02
3.0230094e-02
4.2029603e-02
7.3262852e-02
1.0889726e-01
1.2770124e-01
1.3637366e-01
1.4142213e-01
1.5228738e-01
1.5977837e-01
1.4366352e-01
1.2030871e-01
1.0685028e-01
1.0154221e-01
9.2291657e-02
6.7389712e-02
