-2.4230281e-03
-4.8079578e-02
-7.0168353e-02
-5.3129342e-02
7.5913312e-03
9.4987517e-02
1.6788218e-01
1.8500362e-01
1.4037558e-01
7.2646233e-02
3.1447621e-02
4.9750366e-02
1.3627473e-01
2.6584505e-01
3.7803422e-01
3.9354315e-01
2.6851267e-01
4.5958529e-02
-1.7748857e-01
-3.2850187e-01
-3.9120349e-01
-3.8544245e-01
-3.3485399e-01
-2.5713975e-01
-1.6415265e-01
-6.2622975e-02
4.0867119e-02
1.3669186e-01
2.1144722e-01
2.4813503e-01
2.3949070e-01
1.9569564e-01
1.3522461e-01
7.8150514e-02
3.3810429e-02
-1.1131677e-02
-7.4409496e-02
-1.5242249e-01
-2.2502320e-01
-2.6911866e-01
-2.7248717e-01
-2.3360447e-01
-1.4516895e-01
-1.5673585e-03
1.8425750e-01
3.6827242e-01
4.7126529e-01
4.1627271e-01
2.0391807e-01
-7.4253234e-02
-3.0755415e-01
-4.2526657e-01
-4.1801785e-01
-3.0838934e-01
-1.0605599e-01
1.5764938e-01
3.9544406e-01
5.1586043e-01
4.8469422e-01
3.3807543e-01
1.5055785e-01
-1.2171284e-02
-1.2052609e-01
-1.8188474e-01
-2.2197745e-01
-2.5536889e-01
-2.7716061e-01
-2.8091822e-01
-2.6816824e-01
-2.4305904e-01
-2.1176255e-01
-1.7535405e-01
-1.2776229e-01
-6.4832156e-02
1.6668097e-02
1.2512602e-01
2.7420776e-01
4.5757810e-01
6.2198682e-01
6.7172543e-01
5.3343500e-01
2.3755682e-01
-9.3795412e-02
-3.4136467e-01
-4.6255009e-01
-4.7336366e-01
-3.8973840e-01
-2.3101343e-01
-5.7419174e-02
4.7632469e-02
4.9254343e-02
-6.6061247e-03
-5.1116980e-02
-4.5103958e-02
2.0012022e-02
1.2199624e-01
2.1707272e-01
2.6447675e-01
2.4474852e-01
1.6757134e-01
5.9796797e-02
-5.0559404e-02
-1.3536611e-01
-1.7264000e-01
-1.5656977e-01
-9.8147297e-02
-2.7415814e-02
1.1565015e-02
-1.1587021e-02
-8.5854227e-02
-1.6764970e-01
-2.1528946e-01
-2.1150263e-01
-1.6734734e-01
-1.0635576e-01
-4.1079641e-02
3.3586070e-02
1.2824958e-01
2.3745956e-01
3.3593403e-01
3.9094660e-01
3.7822636e-01
3.0465335e-01
1.9898224e-01
8.5541008e-02
-2.3274289e-02
-1.2851148e-01
-2.3073066e-01
-3.1413286e-01
-3.5614222e-01
-3.4557474e-01
-2.8445577e-01
-1.8886880e-01
-8.5728395e-02
5.7150228e-03
7.9343829e-02
1.4187111e-01
2.0631591e-01
2.6666599e-01
2.9135676e-01
2.5585503e-01
1.6971008e-01
6.4477679e-02
-2.9588216e-02
-1.0167766e-01
-1.5844610e-01
-2.0381005e-01
-2.3347144e-01
-2.3728819e-01
-2.0628626e-01
-1.4228542e-01
-5.6983969e-02
3.5386085e-02
1.2958713e-01
2.2586379e-01
3.0186519e-01
3.0937193e-01
2.2256934e-01
7.7930842e-02
-5.3048368e-02
-1.2325042e-01
-1.2775848e-01
-8.5946879e-02
-3.4357835e-02
-1.3935283e-02
-3.8160082e-02
-8.8791298e-02
-1.3824828e-01
-1.6644669e-01
-1.6469961e-01
-1.2854457e-01
-6.0439146e-02
3.0179404e-02
1.3006690e-01
2.0873652e-01
2.2358199e-01
1.5804754e-01
4.4079234e-02
-6.1239987e-02
-1.1844581e-01
-1.2162132e-01
-7.7383869e-02
6.2416154e-03
1.0527644e-01
1.7571106e-01
1.7718051e-01
1.0968552e-01
1.6473242e-02
-5.4327323e-02
-7.8038116e-02
-6.2764268e-02
-4.6003142e-02
-6.2456077e-02
-1.1071789e-01
-1.5663567e-01
-1.6179368e-01
-1.1139852e-01
-2.2461782e-02
7.0695569e-02
1.2973217e-01
1.2909293e-01
7.4773056e-02
-5.1178986e-04
-5.3596241e-02
-5.4121542e-02
-7.0931877e-04
8.2240086e-02
1.5555006e-01
1.8264720e-01
1.5006594e-01
7.9034909e-02
5.5826553e-03
-4.7313025e-02
-7.3371946e-02
-8.1396301e-02
-9.0326013e-02
-1.0641596e-01
-1.1317220e-01
-9.2693535e-02
-4.1200512e-02
2.2702324e-02
5.9522674e-02
4.6133953e-02
-2.3632124e-03
-5.0664307e-02
-6.3421709e-02
-2.7300124e-02
3.2470541e-02
6.7193795e-02
4.4567549e-02
-2.2415249e-02
-8.5429272e-02
-1.0168761e-01
-5.8456876e-02
2.9874189e-02
1.2557039e-01
1.7956740e-01
1.6371426e-01
9.4550536e-02
1.4094302e-02
-4.2135630e-02
-6.1878645e-02
-5.7756855e-02
-4.7692521e-02
-3.9756915e-02
-3.2420445e-02
-1.9031169e-02
4.5308158e-03
3.0776765e-02
3.9964835e-02
1.6487517e-02
-3.5838830e-02
-9.2756472e-02
-1.2481210e-01
-1.1890619e-01
-8.0817902e-02
-2.6440373e-02
2.5782124e-02
6.1672246e-02
6.9976377e-02
4.9137048e-02
1.9334861e-02
5.9223832e-03
2.0076297e-02
5.7874684e-02
1.0057386e-01
1.2852667e-01
1.3911574e-01
1.3830187e-01
1.2564586e-01
9.1378294e-02
1.9845270e-02
-8.5782116e-02
-1.8917842e-01
-2.5033148e-01
-2.5242576e-01
-1.9982856e-01
-1.0887772e-01
-3.6329320e-03
8.2957461e-02
1.1497863e-01
7.7612163e-02
-4.5847393e-03
-8.1100477e-02
-1.1034029e-01
-8.4274698e-02
-2.6935734e-02
2.7454557e-02
5.9633996e-02
7.6849813e-02
1.0378412e-01
1.5440961e-01
2.1223736e-01
2.3711149e-01
1.9349229e-01
8.5596909e-02
-3.6953307e-02
-1.2261495e-01
-1.5866593e-01
-1.5583859e-01
-1.2486543e-01
-7.5962173e-02
-1.6863755e-02
3.8656535e-02
6.6476749e-02
5.2246902e-02
3.5827946e-03
-5.9712387e-02
-1.1602431e-01
-1.5264238e-01
-1.7144811e-01
-1.7308475e-01
-1.5116377e-01
-1.0232444e-01
-2.6348344e-02
6.6559188e-02
1.4854571e-01
1.9553908e-01
2.0691761e-01
1.9939306e-01
1.9320377e-01
1.9726096e-01
1.9480206e-01
1.5573493e-01
7.3253049e-02
-2.8066839e-02
-1.1296350e-01
-1.5468337e-01
-1.5082333e-01
-1.2436965e-01
-1.0697847e-01
-1.1908864e-01
-1.5066941e-01
-1.7169316e-01
-1.6333241e-01
-1.2468448e-01
-7.0717650e-02
-2.4623248e-02
1.6383436e-03
1.7998587e-02
4.7399429e-02
1.0960443e-01
2.0584684e-01
3.0147253e-01
3.3671268e-01
2.7280811e-01
1.2619841e-01
-4.0752643e-02
-1.6379253e-01
-2.1296238e-01
-1.9215087e-01
-1.2327437e-01
-3.6257593e-02
3.5535236e-02
6.6048444e-02
5.2985962e-02
1.8035941e-02
-1.1566395e-02
-2.2430684e-02
-2.2986631e-02
-2.7315194e-02
-3.5673205e-02
-4.3944448e-02
-5.0647558e-02
-5.3641039e-02
-5.4205412e-02
-5.2209142e-02
-4.6156394e-02
-4.0276073e-02
-3.9387605e-02
-4.4161364e-02
-5.2502915e-02
-5.8635776e-02
-5.4166604e-02
-3.4622809e-02
1.5400247e-03
5.6130066e-02
1.2572607e-01
1.9679346e-01
2.4661758e-01
2.4987228e-01
1.9492739e-01
1.0200038e-01
1.1021849e-02
-5.0098843e-02
-7.4371467e-02
-7.5089918e-02
-8.4514778e-02
-1.2526109e-01
-1.8332676e-01
-2.2205988e-01
-2.1331268e-01
-1.5195987e-01
-4.8325772e-02
7.6466391e-02
1.8135001e-01
2.2509807e-01
2.0605825e-01
1.5694665e-01
1.0937424e-01
7.1185808e-02
2.6343134e-02
-4.0237829e-02
-1.2150303e-01
-1.9082073e-01
-2.1930482e-01
-1.9489372e-01
-1.2173648e-01
-1.8448537e-02
7.8877899e-02
1.3774650e-01
1.5015780e-01
1.3319649e-01
1.1550228e-01
1.1097022e-01
1.1029660e-01
9.7500054e-02
6.3792282e-02
1.8248994e-02
-2.0049364e-02
-4.6402315e-02
-7.1501447e-02
-1.0695435e-01
-1.5583417e-01
-2.0669926e-01
-2.4209546e-01
-2.5017679e-01
-2.2217565e-01
-1.5686912e-01
-6.8461842e-02
2.1724238e-02
9.8166349e-02
1.5568203e-01
1.9761037e-01
2.2847373e-01
2.4645289e-01
2.4806066e-01
2.3518496e-01
2.1199454e-01
1.7826018e-01
1.2729840e-01
5.5603540e-02
-2.8283621e-02
-1.0626451e-01
-1.6109696e-01
-1.8880046e-01
-1.9617269e-01
-1.9221149e-01
-1.8254572e-01
-1.6790129e-01
-1.4626971e-01
-1.1862945e-01
-9.3041068e-02
-7.3101558e-02
-5.3666518e-02
-2.5238124e-02
2.0084604e-02
8.0938751e-02
1.4453192e-01
1.8879682e-01
1.9876204e-01
1.7558544e-01
1.2938099e-01
7.2905284e-02
1.6866647e-02
-3.2512318e-02
-6.9965467e-02
-8.3466617e-02
-6.0163258e-02
1.9934171e-03
8.8488137e-02
1.6202326e-01
1.7943982e-01
1.2798943e-01
3.4982739e-02
-5.4942154e-02
-1.1166812e-01
-1.2946455e-01
-1.1686162e-01
-9.7612605e-02
-1.0099883e-01
-1.3581989e-01
-1.8265946e-01
-2.1223852e-01
-2.0725057e-01
-1.6750381e-01
-1.0189213e-01
-2.0600216e-02
6.7953739e-02
1.6118844e-01
2.5880605e-01
3.5062107e-01
4.0982192e-01
4.0293988e-01
3.1571405e-01
1.7044857e-01
1.3631703e-02
-1.1392116e-01
-1.9457310e-01
-2.3321205e-01
-2.4683819e-01
-2.5004581e-01
-2.4682130e-01
-2.3420388e-01
-2.0547950e-01
-1.4932923e-01
-5.7445854e-02
5.9245236e-02
1.5999038e-01
1.9588991e-01
1.5968811e-01
9.5894550e-02
5.8165474e-02
7.5632050e-02
1.3749367e-01
1.9308215e-01
1.8263591e-01
8.3440173e-02
-6.8367196e-02
-2.0550036e-01
-2.7676120e-01
-2.6888831e-01
-1.9726153e-01
-9.0422214e-02
2.0716924e-02
1.1760781e-01
1.9052586e-01
2.2492020e-01
2.0527199e-01
1.2945189e-01
2.9830268e-02
-4.4881544e-02
-6.7979259e-02
-4.1508592e-02
7.9344225e-03
4.2743415e-02
3.6146271e-02
-1.2589399e-02
-8.6323245e-02
-1.6482152e-01
-2.2506355e-01
-2.4916418e-01
-2.3734918e-01
-1.9778953e-01
-1.3425457e-01
-5.1808489e-02
4.3617960e-02
1.4156866e-01
2.2514865e-01
2.8385278e-01
3.1077357e-01
2.9774952e-01
2.4347036e-01
1.5720186e-01
5.8330680e-02
-2.6214180e-02
-7.5951284e-02
-8.9538482e-02
-7.8143605e-02
-5.9611557e-02
-5.6035934e-02
-7.9877367e-02
-1.2136759e-01
-1.5502376e-01
-1.5830708e-01
-1.2544342e-01
-7.2016283e-02
-2.8057223e-02
-2.0906033e-02
-5.6769835e-02
-1.1412672e-01
-1.5231361e-01
-1.3515709e-01
-5.6850933e-02
5.5103589e-02
1.6365239e-01
2.4786030e-01
3.0839713e-01
3.5455070e-01
3.7822283e-01
3.5061039e-01
2.5385404e-01
1.0021487e-01
-7.4269112e-02
-2.2525330e-01
-3.2314813e-01
-3.6461710e-01
-3.6186636e-01
-3.3191390e-01
-2.8727555e-01
-2.3246428e-01
-1.6631920e-01
-8.3328324e-02
2.1799244e-02
1.4739244e-01
2.7315548e-01
3.6168954e-01
3.7939465e-01
3.2335887e-01
2.2505532e-01
1.2073744e-01
3.0691272e-02
-4.0486787e-02
-9.4491354e-02
-1.3321798e-01
-1.5834243e-01
-1.6767644e-01
-1.5335199e-01
-1.0593138e-01
-2.3217098e-02
7.7609522e-02
1.5818709e-01
1.7969498e-01
1.2944686e-01
3.1478908e-02
-7.1146898e-02
-1.4660860e-01
-1.8829640e-01
-2.0669142e-01
-2.1243817e-01
-2.0490336e-01
-1.7048863e-01
-9.6783272e-02
8.5689992e-03
1.0950618e-01
1.5982658e-01
1.5038823e-01
1.2397852e-01
1.2987704e-01
1.8663910e-01
2.7650524e-01
3.4133499e-01
3.1436970e-01
1.8038977e-01
-1.1520579e-02
-1.9074949e-01
-3.0817208e-01
-3.5292784e-01
-3.4711698e-01
-3.1823844e-01
-2.8363466e-01
-2.4903214e-01
-2.0068836e-01
-1.1439527e-01
2.0106551e-02
1.8220217e-01
3.2730312e-01
4.1271734e-01
4.2506948e-01
3.8644803e-01
3.2511886e-01
2.4442388e-01
1.3295032e-01
-3.9933913e-03
-1.4420410e-01
-2.6049829e-01
-3.2533629e-01
-3.2868342e-01
-2.8477602e-01
-2.1522009e-01
-1.3632726e-01
-5.7010598e-02
1.8587239e-02
8.0962525e-02
1.1209768e-01
1.0333979e-01
6.8960616e-02
3.0291275e-02
-2.0792918e-03
-2.9188289e-02
-5.5137188e-02
-7.3339335e-02
-7.0859862e-02
-3.7594370e-02
3.1472843e-02
1.2140919e-01
1.8794153e-01
1.8477655e-01
1.1404764e-01
2.7201327e-02
-2.5252045e-02
-1.8186601e-02
4.4812729e-02
1.2467685e-01
1.6386271e-01
1.2674525e-01
2.2987698e-02
-1.0513384e-01
-2.1075038e-01
-2.6640321e-01
-2.6963046e-01
-2.2975400e-01
-1.6151386e-01
-7.2494061e-02
4.3431593e-02
1.6702790e-01
2.3792647e-01
2.0827988e-01
9.6629838e-02
-2.8859554e-02
-1.1190273e-01
-1.2969408e-01
-8.2327981e-02
9.5884439e-03
1.1053737e-01
1.7965682e-01
1.8988351e-01
1.4614170e-01
7.7551058e-02
1.9584702e-02
-5.6103018e-03
-3.2067523e-03
4.3971582e-03
-5.9679220e-03
-4.6663147e-02
-1.0691273e-01
-1.5946229e-01
-1.8848450e-01
-1.9655954e-01
-1.8687946e-01
-1.6406536e-01
-1.3145022e-01
-8.0754532e-02
-3.5661735e-03
1.0081037e-01
2.1935873e-01
3.1792660e-01
3.4502070e-01
2.6451491e-01
1.0133671e-01
-7.1287826e-02
-1.8955351e-01
-2.3042989e-01
-2.0723932e-01
-1.4876266e-01
-7.7705264e-02
-5.3343390e-03
6.6492529e-02
1.4149178e-01
2.0782637e-01
2.3185501e-01
1.9168960e-01
1.0113253e-01
-2.1067302e-03
-8.3895275e-02
-1.2651785e-01
-1.2927010e-01
-1.1111294e-01
-9.8073262e-02
-1.0548361e-01
-1.3044540e-01
-1.5578686e-01
-1.6500069e-01
-1.5639171e-01
-1.3923255e-01
-1.1850778e-01
-8.9483957e-02
-4.1891323e-02
3.1119793e-02
1.2424218e-01
2.2596436e-01
3.3114907e-01
4.2959893e-01
4.8482527e-01
4.4432467e-01
2.8889603e-01
6.7734501e-02
-1.3672272e-01
-2.7085620e-01
-3.2299739e-01
-3.0075318e-01
-2.2753073e-01
-1.5104184e-01
-1.1522936e-01
-1.2286877e-01
-1.4449611e-01
-1.4855291e-01
-1.2557591e-01
-8.5563873e-02
-3.2437308e-02
3.3632003e-02
1.0595691e-01
1.7605116e-01
2.2732995e-01
2.3705464e-01
1.9763403e-01
1.2688726e-01
5.6060371e-02
1.0237988e-02
8.7137416e-04
2.7287081e-02
7.5085268e-02
1.1149903e-01
9.7981554e-02
2.3410249e-02
-8.4712976e-02
-1.8340790e-01
-2.4253138e-01
-2.5295720e-01
-2.2356467e-01
-1.7636132e-01
-1.2516141e-01
-6.5972034e-02
7.6370139e-03
9.6747013e-02
1.9194022e-01
2.6630171e-01
2.7876746e-01
2.0609989e-01
7.7014639e-02
-4.9520819e-02
-1.2691499e-01
-1.4294590e-01
-1.1534279e-01
-7.3113414e-02
-4.1815076e-02
-2.9351779e-02
-2.6843444e-02
-1.9226200e-02
2.7799184e-03
3.2002766e-02
4.7348255e-02
2.9777836e-02
-1.6111766e-02
-6.0919020e-02
-7.1010807e-02
-2.7831849e-02
6.3743943e-02
1.6943985e-01
2.2566321e-01
1.8072197e-01
4.7833254e-02
-1.0361504e-01
-2.0737926e-01
-2.4015231e-01
-2.1642782e-01
-1.6950539e-01
-1.3028181e-01
-1.0300678e-01
-6.2362938e-02
2.1639801e-02
1.5603349e-01
3.1220556e-01
4.2932476e-01
4.4552646e-01
3.4180346e-01
1.5556029e-01
-4.3379029e-02
-1.9436523e-01
-2.7271703e-01
-2.8603690e-01
-2.5806221e-01
-2.1375591e-01
-1.7139458e-01
-1.3757225e-01
-1.0800715e-01
-7.4830784e-02
-3.0549853e-02
2.7171058e-02
9.5518027e-02
1.6747452e-01
2.2794165e-01
2.5674602e-01
2.3894766e-01
1.7687351e-01
9.3809804e-02
1.4726503e-02
-5.4850756e-02
-1.1918135e-01
-1.7366021e-01
-2.0657794e-01
-2.0990436e-01
-1.8431077e-01
-1.3562059e-01
-6.9465787e-02
3.5655270e-03
6.7828964e-02
1.1610025e-01
1.5087571e-01
1.7530956e-01
1.8576036e-01
1.6819637e-01
1.1026538e-01
1.9444519e-02
-7.1804024e-02
-1.2736891e-01
-1.3251006e-01
-9.3789481e-02
-3.3427135e-02
2.0784497e-02
5.1631401e-02
5.4557522e-02
3.2553967e-02
-4.1718579e-03
-4.3986917e-02
-8.2145901e-02
-1.1388514e-01
-1.2924676e-01
-1.1964652e-01
-8.0173454e-02
-2.0601765e-02
3.8698060e-02
9.1957841e-02
1.4295089e-01
1.8423898e-01
1.9409611e-01
1.5347512e-01
6.6141776e-02
-3.6909248e-02
-1.1586761e-01
-1.5174551e-01
-1.5258449e-01
-1.3987684e-01
-1.3223268e-01
-1.2961304e-01
-1.1672281e-01
-7.8719901e-02
-9.8225638e-03
7.8679329e-02
1.5037489e-01
1.6854921e-01
1.3315740e-01
7.5114853e-02
3.2764306e-02
3.0603502e-02
6.5926285e-02
1.1316528e-01
1.3396371e-01
1.0165157e-01
2.4446764e-02
-6.6408182e-02
-1.4082255e-01
-1.7909068e-01
-1.7775254e-01
-1.4638807e-01
-9.0833256e-02
-1.2984317e-02
7.9753846e-02
1.7123149e-01
2.2539338e-01
2.0482107e-01
1.1392028e-01
-2.8620647e-03
-9.9383053e-02
-1.5727553e-01
-1.8147390e-01
-1.8092623e-01
-1.6852496e-01
-1.5836584e-01
-1.5009855e-01
-1.2812337e-01
-7.5824373e-02
1.4335101e-02
1.3814522e-01
2.7252575e-01
3.7420994e-01
4.0075273e-01
3.3537287e-01
1.9932011e-01
4.1460377e-02
-9.1960452e-02
-1.7385937e-01
-1.9738989e-01
-1.8056304e-01
-1.6019520e-01
-1.6652670e-01
-1.9642046e-01
-2.1822424e-01
-2.0299846e-01
-1.3816741e-01
-2.3319262e-02
1.2410877e-01
2.5902837e-01
3.3071415e-01
3.2247387e-01
2.5743746e-01
1.7084549e-01
8.5522598e-02
9.5053213e-03
-5.2434833e-02
-9.6111301e-02
-1.2296631e-01
-1.3804458e-01
-1.5038922e-01
-1.7036474e-01
-1.9655080e-01
-2.1625923e-01
-2.1682118e-01
-1.8714416e-01
-1.2435430e-01
-3.9835235e-02
5.1996956e-02
1.4334135e-01
2.3067218e-01
3.0785706e-01
3.5902650e-01
3.5826243e-01
2.8953122e-01
1.6579182e-01
1.8824355e-02
-1.1991178e-01
-2.2922158e-01
-3.0074774e-01
-3.3203835e-01
-3.2240281e-01
-2.7788028e-01
-2.0726581e-01
-1.1458328e-01
-3.1152027e-03
1.2045654e-01
2.4235074e-01
3.3500360e-01
3.6601023e-01
3.2056995e-01
2.1416570e-01
8.4914348e-02
-2.6971449e-02
-9.4530395e-02
-1.0920177e-01
-7.8915623e-02
-2.9273328e-02
-7.9836500e-04
-2.1335662e-02
-8.3385572e-02
-1.5498275e-01
-2.0549996e-01
-2.1853428e-01
-1.9445972e-01
-1.5116341e-01
-1.0833452e-01
-7.4779640e-02
-4.6855129e-02
-8.7992382e-03
5.9526083e-02
1.7173876e-01
3.1732784e-01
4.4909598e-01
4.9423628e-01
3.9962558e-01
1.8586805e-01
-5.9481060e-02
-2.5204461e-01
-3.5868735e-01
-3.8430028e-01
-3.4601211e-01
-2.6241728e-01
-1.5106642e-01
-3.6915989e-02
5.0787856e-02
1.0016504e-01
1.2516454e-01
1.5110722e-01
1.9323239e-01
2.4606658e-01
2.7955783e-01
2.4963210e-01
1.3679610e-01
-2.8651939e-02
-1.9030238e-01
-3.0489402e-01
-3.5644353e-01
-3.4964530e-01
-2.9805699e-01
-2.1895941e-01
-1.2999496e-01
-3.9976564e-02
5.3252019e-02
1.5692421e-01
2.7300468e-01
3.8752226e-01
4.6703634e-01
4.6712655e-01
3.5973765e-01
1.6521166e-01
-5.2180185e-02
-2.2399754e-01
-3.1297789e-01
-3.2173308e-01
-2.7548249e-01
-2.0644110e-01
-1.4098866e-01
-8.6551988e-02
-3.9574293e-02
4.6105939e-03
4.7830840e-02
8.2288906e-02
9.7722418e-02
8.4210471e-02
3.9609345e-02
-1.6644252e-02
-6.1039675e-02
-8.2411050e-02
-8.0521486e-02
-6.6398382e-02
-5.1411360e-02
-3.1180314e-02
8.8164728e-03
7.5226759e-02
1.4825311e-01
1.7630393e-01
1.2040609e-01
3.2677965e-03
-1.1025481e-01
-1.6533613e-01
-1.4413994e-01
-5.0233265e-02
1.0938289e-01
2.9332372e-01
4.0749994e-01
3.7100586e-01
1.9982602e-01
-9.4631168e-03
-1.7132834e-01
-2.5540764e-01
-2.7083767e-01
-2.4755257e-01
-2.1939530e-01
-2.0639098e-01
-2.0768197e-01
-2.0908260e-01
-1.9757430e-01
-1.6493589e-01
-1.0474525e-01
-1.1831924e-02
1.1565118e-01
2.6826671e-01
4.1462576e-01
5.0068030e-01
4.7838334e-01
3.4734545e-01
1.6363134e-01
5.5895417e-04
-1.0107443e-01
-1.3780801e-01
-1.2429383e-01
-9.4014188e-02
-9.0492983e-02
-1.3027929e-01
-1.8274197e-01
-2.0490024e-01
-1.8181454e-01
-1.2100785e-01
-3.6247438e-02
4.5559600e-02
8.3751813e-02
5.7765751e-02
-6.2123494e-03
-5.9808933e-02
-7.3278950e-02
-4.9759557e-02
-2.2757758e-02
-2.5352460e-02
-4.8779138e-02
-5.6349883e-02
-2.0766120e-02
7.1210463e-02
2.1199257e-01
3.5063982e-01
4.0563364e-01
3.2426377e-01
1.3934473e-01
-5.5795620e-02
-1.9290719e-01
-2.5433053e-01
-2.4974990e-01
-2.0470021e-01
-1.4574418e-01
-8.5424166e-02
-2.4591919e-02
3.7297690e-02
9.2948663e-02
1.1977674e-01
9.5489564e-02
2.9528608e-02
-3.9740643e-02
-7.8620362e-02
-7.5975545e-02
-4.3257431e-02
-6.8449329e-03
1.0308859e-02
3.8817608e-04
-2.9489967e-02
-6.2916187e-02
-8.6623634e-02
-9.8145560e-02
-1.0237301e-01
-1.0506579e-01
-1.0653268e-01
-9.6190582e-02
-5.8333158e-02
1.6968629e-02
1.3241636e-01
2.7479943e-01
4.0135908e-01
4.5343375e-01
3.9543845e-01
2.4751025e-01
7.3356104e-02
-6.9707398e-02
-1.6069798e-01
-2.0855610e-01
-2.3017318e-01
-2.3384995e-01
-2.1780139e-01
-1.7797117e-01
-1.1874361e-01
-5.6138747e-02
-1.3213921e-02
-2.7976087e-03
-1.4141532e-02
-2.6423121e-02
-2.6358492e-02
-1.7262519e-02
-1.0772953e-02
-1.0311445e-02
-9.1094001e-03
2.2141882e-03
2.6466643e-02
5.4825371e-02
7.0595194e-02
6.3984078e-02
4.5057124e-02
3.9212106e-02
7.4399342e-02
1.6170976e-01
2.7259195e-01
3.4679795e-01
3.2691339e-01
1.9455607e-01
-9.3077007e-03
-2.1225780e-01
-3.5669129e-01
-4.1959997e-01
-4.1182015e-01
-3.6104561e-01
-2.9127585e-01
-2.1240074e-01
-1.2267897e-01
-1.8869518e-02
9.4731518e-02
2.0314839e-01
2.8752602e-01
3.3740928e-01
3.5800450e-01
3.5745054e-01
3.3074323e-01
2.6493984e-01
1.5351865e-01
1.0186315e-02
-1.2831197e-01
-2.2256536e-01
-2.5732062e-01
-2.4609847e-01
-2.1425133e-01
-1.7965871e-01
-1.4444652e-01
-1.0575608e-01
-6.5979508e-02
-2.7212554e-02
9.5130877e-03
3.5920465e-02
4.1411975e-02
2.5964945e-02
-1.1703605e-03
-2.9060152e-02
-4.9751936e-02
-5.8015736e-02
-4.5568635e-02
-5.7358662e-03
6.0407822e-02
1.3943502e-01
1.9783311e-01
1.9718391e-01
1.2394773e-01
6.0446962e-03
-1.0618331e-01
-1.7569960e-01
-1.8679034e-01
-1.4124638e-01
-5.3365403e-02
5.2540954e-02
1.4071791e-01
1.8743458e-01
1.9772969e-01
1.8655847e-01
1.6343423e-01
1.2543240e-01
6.0485794e-02
-2.9763382e-02
-1.2529223e-01
-2.0515664e-01
-2.5428625e-01
-2.6827356e-01
-2.5892200e-01
-2.4302795e-01
-2.2895684e-01
-2.1015134e-01
-1.6880856e-01
-8.8685488e-02
4.0234878e-02
2.1435000e-01
3.9988047e-01
5.3443655e-01
5.5996739e-01
4.6283951e-01
2.8913469e-01
1.1233119e-01
-1.8774837e-02
-9.7878567e-02
-1.4901483e-01
-1.9622903e-01
-2.4111947e-01
-2.7290749e-01
-2.8138561e-01
-2.5645948e-01
-1.9109897e-01
-9.3557340e-02
1.0079220e-02
8.7930508e-02
1.2099769e-01
1.0852204e-01
6.1034544e-02
1.1031005e-03
-4.6267627e-02
-6.5750800e-02
-5.1168457e-02
-9.7260610e-03
3.6991137e-02
6.4804204e-02
6.1282470e-02
3.8477620e-02
2.8394022e-02
5.4998863e-02
1.1936969e-01
1.9924416e-01
2.4625232e-01
2.1385161e-01
1.0301231e-01
-3.6194656e-02
-1.4477883e-01
-1.9187945e-01
-1.8881289e-01
-1.6943553e-01
-1.6097689e-01
-1.6918654e-01
-1.7654055e-01
-1.6356675e-01
-1.1999478e-01
-4.7239177e-02
2.5082118e-02
5.7915280e-02
4.0746118e-02
-1.8402253e-03
-2.6853774e-02
2.4397287e-03
1.0241397e-01
2.5509629e-01
3.9839888e-01
4.5225653e-01
3.7399669e-01
1.9521411e-01
-5.0593423e-03
-1.5793255e-01
-2.3368183e-01
-2.3995422e-01
-2.0556836e-01
-1.6246954e-01
-1.3287994e-01
-1.1826131e-01
-1.0395506e-01
-7.3725663e-02
-1.9546281e-02
4.7063591e-02
9.7948033e-02
1.0668763e-01
6.2011934e-02
-1.9334687e-02
-9.6695562e-02
-1.3676018e-01
-1.3531281e-01
-1.1477282e-01
-1.0307752e-01
-1.0577926e-01
-9.8472567e-02
-4.7703743e-02
7.0361123e-02
2.5424836e-01
4.4621748e-01
5.4252166e-01
4.7260749e-01
2.6569814e-01
2.4720851e-02
-1.5860430e-01
-2.4866393e-01
-2.5653860e-01
-2.1769598e-01
-1.6931950e-01
-1.3390391e-01
-1.1528607e-01
-1.0285234e-01
-8.0998544e-02
-3.6828079e-02
3.2426818e-02
1.0405638e-01
1.3515727e-01
9.8290678e-02
5.4377470e-03
-1.0412946e-01
-1.9362309e-01
-2.4667764e-01
-2.5986563e-01
-2.2586345e-01
-1.3706802e-01
-2.8308793e-04
1.5514424e-01
2.7954606e-01
3.2907979e-01
2.9855150e-01
2.2613307e-01
1.6412438e-01
1.4146703e-01
1.5857069e-01
1.9379353e-01
1.9813159e-01
1.2508057e-01
-2.0396182e-02
-1.8137950e-01
-2.9559320e-01
-3.3427239e-01
-3.0305506e-01
-2.1903483e-01
-1.0539571e-01
1.6748942e-03
6.9281323e-02
8.6886229e-02
7.2150962e-02
5.2573250e-02
4.2770923e-02
3.4388935e-02
-1.2844433e-02
-1.0949739e-01
-1.9908627e-01
-2.3966274e-01
-2.2860518e-01
-1.7297900e-01
-9.6062962e-02
-2.3014217e-02
4.2675265e-02
1.1425394e-01
2.1113538e-01
3.3934986e-01
4.6521557e-01
5.1817614e-01
4.3749630e-01
2.3435622e-01
-8.2258678e-03
-2.0482283e-01
-3.1632136e-01
-3.4681088e-01
-3.2584831e-01
-2.9042442e-01
-2.6618509e-01
-2.5483325e-01
-2.3603770e-01
-1.8270047e-01
-7.7277777e-02
6.9955042e-02
2.0733768e-01
2.7279591e-01
2.5307361e-01
1.9320986e-01
1.5499780e-01
1.7394721e-01
2.3847375e-01
2.9603979e-01
2.8685904e-01
1.9115222e-01
4.1221769e-02
-1.1059893e-01
-2.2604940e-01
-2.9421060e-01
-3.2533122e-01
-3.3295133e-01
-3.2575523e-01
-3.0605282e-01
-2.6682570e-01
-1.9905359e-01
-9.7483740e-02
3.1010848e-02
1.6184045e-01
2.6916647e-01
3.4087964e-01
3.7638557e-01
3.7999137e-01
3.4788534e-01
2.6052416e-01
1.0720209e-01
-8.4940242e-02
-2.6075551e-01
-3.7225740e-01
-3.9945522e-01
-3.5114469e-01
-2.5556418e-01
-1.3791905e-01
-1.0294333e-02
1.1933042e-01
2.4374033e-01
3.4677908e-01
3.9724375e-01
3.6995514e-01
2.6402984e-01
1.0283381e-01
-6.8062871e-02
-2.0463103e-01
-2.8862821e-01
-3.1475467e-01
-2.8454724e-01
-2.1074885e-01
-1.1699006e-01
-3.6407368e-02
1.0109628e-02
2.8237835e-02
4.0612204e-02
6.8315566e-02
1.1228225e-01
1.5561974e-01
1.7226585e-01
1.3759897e-01
5.5936935e-02
-3.8090326e-02
-1.0985675e-01
-1.3839887e-01
-1.2102366e-01
-7.6166346e-02
-2.4940723e-02
2.4869925e-02
7.4854670e-02
1.3571569e-01
2.1198111e-01
2.6644819e-01
2.3886178e-01
1.1461496e-01
-5.0474124e-02
-1.7749166e-01
-2.2451203e-01
-1.9625342e-01
-1.2063509e-01
-3.9797537e-02
1.5400041e-03
-1.3994037e-02
-6.6139962e-02
-1.2151612e-01
-1.5871447e-01
-1.7344306e-01
-1.7109375e-01
-1.5348551e-01
-1.1386154e-01
-4.2572465e-02
6.6615901e-02
2.0886950e-01
3.5511662e-01
4.5451282e-01
4.6413957e-01
3.7480216e-01
2.1528570e-01
3.0573743e-02
-1.4372114e-01
-2.8288850e-01
-3.6800047e-01
-3.9131061e-01
-3.5882021e-01
-2.7710945e-01
-1.4731875e-01
2.7230374e-02
2.2339686e-01
3.7865983e-01
4.2177007e-01
3.3406603e-01
1.6118614e-01
-2.4661319e-02
-1.6390146e-01
-2.3618185e-01
-2.5515698e-01
-2.3242412e-01
-1.7311691e-01
-9.2791863e-02
-1.2526162e-02
4.7133277e-02
7.4824494e-02
7.7513391e-02
7.0634777e-02
6.6940545e-02
7.1898885e-02
8.4296350e-02
1.0071131e-01
1.1165896e-01
1.0308596e-01
6.7834448e-02
1.1948215e-02
-4.7587211e-02
-9.3045043e-02
-1.1452086e-01
-1.0945377e-01
-8.3719810e-02
-5.2945997e-02
-3.2616332e-02
-2.9293739e-02
-3.9456524e-02
-5.3176443e-02
-5.5475639e-02
-2.5104340e-02
4.6645513e-02
1.3972428e-01
2.1415525e-01
2.2764396e-01
1.6453687e-01
5.3559128e-02
-5.6609840e-02
-1.3510855e-01
-1.7768540e-01
-1.9262510e-01
-1.8582790e-01
-1.5719170e-01
-1.0726955e-01
-3.9303564e-02
3.7970954e-02
1.1097591e-01
1.6951227e-01
2.0418405e-01
2.0650550e-01
1.7439624e-01
1.0929217e-01
1.9539060e-02
-7.6498990e-02
-1.5606740e-01
-2.0369651e-01
-2.2290788e-01
-2.3003940e-01
-2.3633294e-01
-2.3947191e-01
-2.2648591e-01
-1.8155595e-01
-9.4714978e-02
4.0250642e-02
2.1818417e-01
4.0572521e-01
5.4936055e-01
6.0040424e-01
5.3793894e-01
3.7817082e-01
1.6699765e-01
-4.0005577e-02
-1.9919423e-01
-2.8945378e-01
-3.1269170e-01
-2.8572908e-01
-2.3091009e-01
-1.7092664e-01
-1.2074868e-01
-8.4868818e-02
-6.1563705e-02
-4.6502408e-02
-3.4217492e-02
-2.0833888e-02
-5.8970820e-03
1.1028301e-02
2.5455472e-02
2.6148504e-02
7.7932872e-03
-2.4072108e-02
-5.6064527e-02
-6.7770231e-02
-4.6319852e-02
5.3591142e-04
5.0106548e-02
7.8174839e-02
8.4084832e-02
9.9586087e-02
1.5414567e-01
2.3753064e-01
2.9505175e-01
2.6476199e-01
1.4426867e-01
-4.7022372e-03
-1.2510754e-01
-1.9230499e-01
-2.0290328e-01
-1.8077805e-01
-1.6331012e-01
-1.6640529e-01
-1.7660896e-01
-1.6983005e-01
-1.3382721e-01
-7.4105628e-02
-7.3902759e-03
4.4846186e-02
7.1916429e-02
8.2388515e-02
8.9628265e-02
9.4729003e-02
8.7195926e-02
5.8796270e-02
1.9671654e-02
6.1918349e-04
2.8470660e-02
1.0559734e-01
2.0275888e-01
2.6011670e-01
2.2558848e-01
1.0553457e-01
-3.7854370e-02
-1.4155973e-01
-1.8315535e-01
-1.8109109e-01
-1.6563692e-01
-1.4986464e-01
-1.2921914e-01
-9.1975153e-02
-2.8160062e-02
5.6761119e-02
1.3291716e-01
1.6183467e-01
1.2714456e-01
4.7831145e-02
-4.1183935e-02
-1.1437448e-01
-1.6194301e-01
-1.8488472e-01
-1.8514373e-01
-1.6048811e-01
-1.0622251e-01
-2.5683405e-02
6.0513998e-02
1.2348189e-01
1.4656704e-01
1.3973081e-01
1.3018963e-01
1.4416479e-01
1.9385854e-01
2.6273076e-01
3.0129186e-01
2.5465181e-01
1.1242555e-01
-7.4530845e-02
-2.2973595e-01
-3.0566125e-01
-3.0529480e-01
-2.5328265e-01
-1.7690717e-01
-1.0520077e-01
-5.8750585e-02
-4.3259535e-02
-4.9279734e-02
-5.9369411e-02
-5.9612179e-02
-4.8018520e-02
-3.0789408e-02
-9.3763376e-03
2.2188321e-02
7.2913489e-02
1.4726818e-01
2.4011006e-01
3.3022723e-01
3.7635118e-01
3.3946288e-01
2.1279287e-01
3.4459923e-02
-1.3141919e-01
-2.3678400e-01
-2.6952609e-01
-2.4210254e-01
-1.7952393e-01
-1.0998373e-01
-5.2789509e-02
-1.7551417e-02
-9.0534042e-03
-3.0199824e-02
-7.6468418e-02
-1.2484936e-01
-1.4558725e-01
-1.2163215e-01
-4.6467386e-02
7.8919651e-02
2.2901296e-01
3.4857389e-01
3.8187144e-01
3.0791792e-01
1.5591652e-01
-1.2158984e-02
-1.3944655e-01
-2.0022979e-01
-2.0092004e-01
-1.6644182e-01
-1.2428690e-01
-8.8958670e-02
-6.0006142e-02
-3.4999191e-02
-1.2891903e-02
6.8840057e-03
1.5918546e-02
1.1892156e-02
1.6860088e-02
4.8459894e-02
9.3195318e-02
1.1562285e-01
8.6849982e-02
1.6980049e-02
-5.2533438e-02
-8.8963774e-02
-8.7305397e-02
-6.1954172e-02
-3.3259957e-02
-1.6963725e-02
-1.7183036e-02
-2.8329951e-02
-4.1308694e-02
-4.8684477e-02
-4.8465003e-02
-3.9606644e-02
-1.4576318e-02
3.3797779e-02
1.0252862e-01
1.7613940e-01
2.2437817e-01
2.2165855e-01
1.7523362e-01
1.1309199e-01
5.0515820e-02
-1.5683576e-02
-8.8074787e-02
-1.5539644e-01
-1.9689293e-01
-1.9918691e-01
-1.6314562e-01
-9.6491856e-02
-1.7923906e-02
3.9790934e-02
5.2020337e-02
2.2049146e-02
-3.1035620e-02
-9.0962835e-02
-1.4788176e-01
-1.8897906e-01
-1.9331433e-01
-1.4706891e-01
-4.5991798e-02
1.1301964e-01
3.1308898e-01
4.9087225e-01
5.6061699e-01
4.8396236e-01
3.0195324e-01
9.5636286e-02
-7.2019793e-02
-1.7900066e-01
-2.3628245e-01
-2.6515934e-01
-2.7836634e-01
-2.8154979e-01
-2.7382346e-01
-2.5061238e-01
-2.1426407e-01
-1.7014697e-01
-1.1818680e-01
-5.5686222e-02
1.7920849e-02
9.8183166e-02
1.7400944e-01
2.3428560e-01
2.7433502e-01
2.9125530e-01
2.7712856e-01
2.2276302e-01
1.3380530e-01
3.4719485e-02
-4.6517164e-02
-9.1557177e-02
-1.0087370e-01
-9.3790124e-02
-9.0841060e-02
-9.7714198e-02
-1.0533984e-01
-9.8156549e-02
-6.3857408e-02
-4.2911537e-03
5.7350980e-02
8.4836526e-02
5.0875941e-02
-3.8418597e-02
-1.4287586e-01
-2.1862769e-01
-2.4491080e-01
-2.2833775e-01
-1.8733978e-01
-1.3618507e-01
-7.6682768e-02
2.3421348e-03
1.1547963e-01
2.6668864e-01
4.3195127e-01
5.5389275e-01
5.6301667e-01
4.2351346e-01
1.7390968e-01
-8.8956438e-02
-2.7910948e-01
-3.6674371e-01
-3.6553443e-01
-3.0826069e-01
-2.3107583e-01
-1.5675879e-01
-8.8264296e-02
-1.7967898e-02
5.9474246e-02
1.4081352e-01
2.0861263e-01
2.3583951e-01
2.0860142e-01
1.3483304e-01
3.4664223e-02
-6.6797827e-02
-1.4901324e-01
-2.0271278e-01
-2.2573754e-01
-2.2069620e-01
-1.9197665e-01
-1.4101609e-01
-7.4759225e-02
-8.6243698e-03
4.5556153e-02
8.3707228e-02
1.1242940e-01
1.4543882e-01
1.8759295e-01
2.2999771e-01
2.5643060e-01
2.5037074e-01
2.0161458e-01
1.1456807e-01
8.7051805e-03
-8.9771368e-02
-1.5543513e-01
-1.7578337e-01
-1.5750587e-01
-1.1894813e-01
-8.1039223e-02
-5.6484740e-02
-4.5260772e-02
-4.2814652e-02
-4.4881127e-02
-4.6578913e-02
-4.7030413e-02
-4.8343353e-02
-4.8907622e-02
-4.8586547e-02
-5.3794553e-02
-6.9087687e-02
-8.7768484e-02
-9.1622210e-02
-5.6780769e-02
3.2458040e-02
1.6791325e-01
3.0753171e-01
3.8637617e-01
3.6060626e-01
2.4598682e-01
9.9120584e-02
-3.2024566e-02
-1.2754090e-01
-1.8690594e-01
-2.1196639e-01
-2.0273380e-01
-1.6390892e-01
-1.0541956e-01
-4.1094249e-02
1.2571892e-02
3.9277654e-02
3.1467757e-02
-6.0540420e-03
-6.1245001e-02
-1.1257054e-01
-1.3794517e-01
-1.3628003e-01
-1.1657450e-01
-8.3424422e-02
-4.4432612e-02
-3.4330573e-03
4.4128423e-02
1.0415896e-01
1.8301067e-01
2.7159598e-01
3.3634844e-01
3.4054038e-01
2.6887133e-01
1.4426807e-01
1.7186957e-02
-7.1346263e-02
-1.0718765e-01
-1.0052055e-01
-8.5477614e-02
-1.0106134e-01
-1.5609053e-01
-2.1908863e-01
-2.4996887e-01
-2.3181885e-01
-1.6843398e-01
-7.6578082e-02
7.7981951e-03
4.5588917e-02
3.0070581e-02
-1.0630053e-02
-3.4522541e-02
-6.4380818e-03
9.0714928e-02
2.4114487e-01
3.7568154e-01
4.0525156e-01
2.9216621e-01
8.3711551e-02
-1.2371648e-01
-2.5553613e-01
-2.9201276e-01
-2.5440556e-01
-1.7845879e-01
-9.5982616e-02
-2.8460670e-02
2.0390956e-02
6.4180550e-02
1.1434346e-01
1.6442628e-01
1.9368579e-01
1.8140684e-01
1.2303629e-01
3.8246762e-02
-4.4416435e-02
-1.0833500e-01
-1.5078922e-01
-1.7891062e-01
-1.9921892e-01
-2.0728709e-01
-1.9517563e-01
-1.6032236e-01
-1.0627433e-01
-4.6342313e-02
1.8495364e-03
3.5441455e-02
6.9597226e-02
1.2480597e-01
2.1061728e-01
3.1092387e-01
3.8102025e-01
3.6862507e-01
2.5947243e-01
9.6508515e-02
-5.3277261e-02
-1.4328827e-01
-1.6786279e-01
-1.5484128e-01
-1.4667549e-01
-1.7106049e-01
-2.1123556e-01
-2.2506822e-01
-1.8868667e-01
-1.0188429e-01
1.5289151e-02
1.1886327e-01
1.6813061e-01
1.5634201e-01
1.0985159e-01
6.5672764e-02
4.2067449e-02
2.8992016e-02
4.2738772e-03
-4.2512465e-02
-9.7225915e-02
-1.2994504e-01
-1.1795707e-01
-6.1319249e-02
1.3672284e-02
6.4531307e-02
6.7958751e-02
3.9177159e-02
7.4917431e-03
-6.4179685e-03
3.0751661e-03
2.5987628e-02
5.2723288e-02
8.0860636e-02
1.0731025e-01
1.3009558e-01
1.4245706e-01
1.2673179e-01
6.8600077e-02
-2.7685547e-02
-1.3603740e-01
-2.1933381e-01
-2.5442439e-01
-2.4505691e-01
-2.0876478e-01
-1.6340977e-01
-1.2119429e-01
-8.2692225e-02
-4.0659152e-02
9.6403943e-03
6.9609116e-02
1.4079805e-01
2.2132902e-01
3.0211472e-01
3.6046500e-01
3.5960251e-01
2.7551352e-01
1.2589397e-01
-3.7399775e-02
-1.6169760e-01
-2.2045149e-01
-2.2556572e-01
-2.1730276e-01
-2.2974576e-01
-2.5947984e-01
-2.7187399e-01
-2.3376991e-01
-1.2926127e-01
3.3609576e-02
2.0850772e-01
3.2461636e-01
3.4067369e-01
2.8147909e-01
2.0898493e-01
1.6432820e-01
1.4486384e-01
1.1593993e-01
4.4026150e-02
-6.6588974e-02
-1.7742732e-01
-2.4910292e-01
-2.6183485e-01
-2.2106424e-01
-1.5660369e-01
-1.0183279e-01
-7.1355862e-02
-5.8885244e-02
-4.5413688e-02
-1.3533849e-02
3.9625114e-02
1.0009610e-01
1.4482622e-01
1.5175748e-01
1.1436065e-01
4.9622446e-02
-9.0088852e-03
-2.1295342e-02
3.6664415e-02
1.4741219e-01
2.4755776e-01
2.5690405e-01
1.4647325e-01
-3.0369834e-02
-1.9335872e-01
-3.0043066e-01
-3.5025812e-01
-3.5439366e-01
-3.2067317e-01
-2.5097930e-01
-1.4476231e-01
1.7366512e-03
1.8208511e-01
3.5404758e-01
4.4327307e-01
4.0061341e-01
2.5682053e-01
9.6580580e-02
-1.0250504e-02
-4.2695307e-02
-3.0632762e-02
-2.9595479e-02
-7.1014127e-02
-1.3734342e-01
-1.8828125e-01
-1.9657700e-01
-1.5648323e-01
-8.1252647e-02
3.5625879e-04
5.6388402e-02
6.9863005e-02
4.4338292e-02
-3.3756287e-03
-5.2720374e-02
-9.4764078e-02
-1.2716890e-01
-1.3695790e-01
-1.0985367e-01
-3.6747574e-02
8.5514992e-02
2.3564299e-01
3.5936156e-01
3.9092254e-01
2.9973368e-01
1.2397584e-01
-5.3094994e-02
-1.6500304e-01
-1.9658946e-01
-1.6872650e-01
-1.1384545e-01
-5.8477071e-02
-1.4228093e-02
1.6010782e-02
3.2117825e-02
3.3769207e-02
1.6798821e-02
-2.3302686e-02
-8.0647443e-02
-1.3909376e-01
-1.8168423e-01
-1.9520842e-01
-1.7628010e-01
-1.3028985e-01
-6.2794004e-02
2.1171412e-02
1.1470029e-01
2.0802752e-01
2.8725260e-01
3.3733295e-01
3.4424723e-01
2.9583086e-01
1.9169152e-01
5.2091492e-02
-8.9947933e-02
-2.0246699e-01
-2.6767529e-01
-2.8662932e-01
-2.6582450e-01
-2.1684205e-01
-1.5798160e-01
-9.9710162e-02
-4.0484080e-02
2.6942389e-02
1.0142460e-01
1.6631083e-01
2.0073253e-01
1.9152700e-01
1.4384728e-01
8.2286917e-02
3.2026802e-02
-1.0140900e-03
-2.9229299e-02
-6.2878844e-02
-9.6296288e-02
-1.1200431e-01
-9.6614203e-02
-5.3992714e-02
-2.0894626e-03
3.9109283e-02
5.9983181e-02
6.4484402e-02
5.9239894e-02
4.4892877e-02
2.2774252e-02
2.5489121e-03
-4.6077888e-03
3.1352668e-03
1.5270804e-02
1.5543092e-02
-2.0956308e-03
-3.1796013e-02
-6.7175184e-02
-1.0332453e-01
-1.3710678e-01
-1.6528374e-01
-1.7966770e-01
-1.5897139e-01
-7.5870671e-02
6.5138847e-02
2.1782093e-01
3.2000569e-01
3.1979236e-01
2.2035036e-01
8.4550471e-02
-2.7266663e-02
-9.3329850e-02
-1.2225154e-01
-1.3578282e-01
-1.4471106e-01
-1.4104320e-01
-1.0955068e-01
-3.7929649e-02
6.6998741e-02
1.6951878e-01
2.1330730e-01
1.6008336e-01
3.8730262e-02
-6.9872996e-02
-1.0558460e-01
-6.6614862e-02
5.2881609e-03
4.7683434e-02
2.1237388e-02
-6.6322568e-02
-1.8142928e-01
-2.7300928e-01
-2.9355614e-01
-2.3366201e-01
-1.1053351e-01
4.7630608e-02
1.9492301e-01
3.0027169e-01
3.6472240e-01
3.7836833e-01
3.1669096e-01
1.7731899e-01
-1.1329735e-02
-1.9346071e-01
-3.0866337e-01
-3.3182521e-01
-2.8053956e-01
-1.8752887e-01
-7.2670253e-02
5.2766481e-02
1.7226596e-01
2.6675437e-01
3.1342977e-01
2.9345450e-01
2.1125630e-01
9.2702310e-02
-3.0848547e-02
-1.3364718e-01
-2.0152707e-01
-2.3343540e-01
-2.3448750e-01
-2.0904543e-01
-1.6174376e-01
-9.5882858e-02
-1.4725457e-02
6.9796026e-02
1.3688599e-01
1.6731774e-01
1.5480292e-01
1.1132413e-01
5.7564777e-02
8.2782977e-03
-2.8597798e-02
-5.3848499e-02
-7.0902240e-02
-7.3928103e-02
-5.6387919e-02
-2.3626320e-02
1.9808792e-03
1.1818700e-03
-2.3549157e-02
-5.4060635e-02
-6.4254541e-02
-4.0052566e-02
1.2824696e-02
7.4948303e-02
1.1811200e-01
1.2895132e-01
1.1730741e-01
9.9544564e-02
8.6627520e-02
7.5417258e-02
4.6496943e-02
-1.5050187e-02
-9.6000190e-02
-1.6876705e-01
-2.1044050e-01
-2.0561037e-01
-1.5817488e-01
-9.1585860e-02
-3.3277374e-02
2.2071168e-03
2.2066256e-02
4.1319047e-02
6.8308413e-02
1.0066595e-01
1.2955954e-01
1.4937223e-01
1.5530693e-01
1.4431189e-01
1.1515869e-01
6.5851108e-02
3.6654454e-03
-5.6006613e-02
-9.7187987e-02
-1.0863724e-01
-9.2721680e-02
-6.7302610e-02
-5.7185895e-02
-7.6686424e-02
-1.1694141e-01
-1.5257391e-01
-1.6043920e-01
-1.2992209e-01
-6.4907766e-02
1.7336753e-02
9.7469348e-02
1.6578015e-01
2.1728406e-01
2.4031594e-01
2.1931964e-01
1.4963473e-01
5.3261905e-02
-3.0934290e-02
-7.1317912e-02
-5.2750254e-02
9.7527409e-03
6.6678670e-02
6.4162358e-02
-8.1508589e-03
-1.0767049e-01
-1.8334116e-01
-2.0971036e-01
-1.8726016e-01
-1.3151855e-01
-6.4836374e-02
-7.4383165e-03
3.6128318e-02
7.5537855e-02
1.1538101e-01
1.4376132e-01
1.4119102e-01
1.0016965e-01
3.3740498e-02
-3.0658484e-02
-6.3815884e-02
-5.4752105e-02
-2.4667366e-02
-1.5124214e-02
-4.7277612e-02
-9.9709869e-02
-1.3432645e-01
-1.2889481e-01
-8.7288516e-02
-2.4793621e-02
4.6832364e-02
1.2162387e-01
1.9602454e-01
2.5508530e-01
2.6849081e-01
2.1043112e-01
8.8117786e-02
-5.5167273e-02
-1.6914441e-01
-2.2557950e-01
-2.2481116e-01
-1.8043644e-01
-1.0926819e-01
-3.0473395e-02
3.8511571e-02
7.9847376e-02
8.0335512e-02
4.7078572e-02
6.2105845e-03
-1.1612261e-02
1.1938683e-02
6.9237442e-02
1.2529855e-01
1.3763514e-01
9.0313005e-02
8.7432978e-03
-5.9638009e-02
-8.1143096e-02
-5.2991700e-02
8.5854209e-04
3.8580588e-02
2.4658493e-02
-3.8975808e-02
-1.1618382e-01
-1.7147363e-01
-1.8784618e-01
-1.6471086e-01
-1.1428472e-01
-5.1895694e-02
1.4821030e-02
8.3100811e-02
1.4570496e-01
1.8721900e-01
1.8932354e-01
1.4942860e-01
8.7281480e-02
2.7328863e-02
-1.6620732e-02
-4.5461628e-02
-7.0731396e-02
-9.9819920e-02
-1.2564123e-01
-1.3401514e-01
-1.1003258e-01
-4.1350779e-02
6.6426771e-02
1.7911506e-01
2.4616992e-01
2.3521291e-01
1.6039419e-01
6.5469038e-02
-1.1019787e-02
-5.0467335e-02
-6.1429856e-02
-7.4553864e-02
-1.1545175e-01
-1.8353891e-01
-2.5282478e-01
-2.8798056e-01
-2.7121777e-01
-2.1174572e-01
-1.2555287e-01
-2.2578306e-02
8.9483196e-02
2.0236567e-01
3.0411318e-01
3.7628951e-01
4.0155861e-01
3.7557672e-01
2.9969319e-01
1.7531404e-01
2.0835454e-02
-1.2948801e-01
-2.4127548e-01
-2.9306945e-01
-2.8905322e-01
-2.4644727e-01
-1.7856153e-01
-1.0151975e-01
-3.1533761e-02
2.7688029e-02
7.6842933e-02
1.0729698e-01
1.0186435e-01
5.6094050e-02
-1.2610559e-02
-8.0883942e-02
-1.2903456e-01
-1.4793555e-01
-1.3682797e-01
-9.9011295e-02
-4.7175085e-02
7.2080363e-03
6.6393062e-02
1.3628264e-01
2.1422630e-01
2.7971228e-01
2.8899697e-01
2.1246088e-01
7.7520983e-02
-5.6149607e-02
-1.4002108e-01
-1.5484519e-01
-1.1419833e-01
-5.3201749e-02
-1.0544850e-02
-2.3872776e-03
-1.5604527e-02
-3.0199022e-02
-3.0788244e-02
-1.1470461e-02
1.7594680e-02
3.3734098e-02
1.4214394e-02
-4.1058832e-02
-1.0625324e-01
-1.5239198e-01
-1.6323635e-01
-1.4201260e-01
-1.0636875e-01
-7.5442990e-02
-6.0499060e-02
-5.2850917e-02
-2.8185027e-02
3.1674042e-02
1.3379868e-01
2.7190224e-01
4.1432916e-01
5.0415925e-01
4.8551086e-01
3.4467635e-01
1.2704794e-01
-9.1852975e-02
-2.5301273e-01
-3.3387494e-01
-3.4290297e-01
-3.0498106e-01
-2.4329320e-01
-1.7202046e-01
-9.9206481e-02
-2.7133162e-02
3.6025300e-02
6.6493422e-02
4.6988610e-02
-1.0369760e-02
-7.0247891e-02
-1.0009330e-01
-8.4420749e-02
-3.0204071e-02
2.8488634e-02
6.0274336e-02
6.7918946e-02
7.4274443e-02
1.0164415e-01
1.5633330e-01
2.1480608e-01
2.3839241e-01
1.9673461e-01
8.6092176e-02
-6.5414253e-02
-2.1546433e-01
-3.2511304e-01
-3.6765032e-01
-3.3654844e-01
-2.4815110e-01
-1.2226273e-01
3.5383444e-02
2.2052200e-01
4.0211806e-01
5.0943892e-01
4.8173551e-01
3.3120959e-01
1.3193482e-01
-3.8798942e-02
-1.4587757e-01
-1.9339860e-01
-2.0432593e-01
-2.1026100e-01
-2.3063772e-01
-2.5752979e-01
-2.6635186e-01
-2.3704771e-01
-1.6398443e-01
-5.5795241e-02
6.5006313e-02
1.6229436e-01
2.0399563e-01
1.9107481e-01
1.5717617e-01
1.4091631e-01
1.5795537e-01
1.8784053e-01
1.8956379e-01
1.3463961e-01
3.2729147e-02
-7.4681777e-02
-1.5304486e-01
-1.9156695e-01
-1.9618389e-01
-1.8302411e-01
-1.6026408e-01
-1.2626905e-01
-8.1123389e-02
-2.9528650e-02
1.5956995e-02
3.9313972e-02
3.9237396e-02
3.5526117e-02
4.8150929e-02
8.5301704e-02
1.3954262e-01
1.8031095e-01
1.6981030e-01
9.0915826e-02
-3.4284695e-02
-1.5686543e-01
-2.3678858e-01
-2.5782419e-01
-2.2497313e-01
-1.5587231e-01
-6.9532404e-02
2.3511388e-02
1.2356312e-01
2.3246959e-01
3.4253656e-01
4.1965804e-01
4.1515362e-01
3.0814676e-01
1.2489902e-01
-7.6532506e-02
-2.4319912e-01
-3.5046422e-01
-4.0115084e-01
-4.0921662e-01
-3.8488225e-01
-3.3856952e-01
-2.7981506e-01
-2.1066011e-01
-1.2511592e-01
-1.0783560e-02
1.4488555e-01
3.4057112e-01
5.4235637e-01
6.8230547e-01
6.9315433e-01
5.5734916e-01
3.2140201e-01
6.7435736e-02
-1.3034211e-01
-2.4340749e-01
-2.8780472e-01
-2.9540925e-01
-2.9246460e-01
-2.8274735e-01
-2.5495188e-01
-2.0698427e-01
-1.4881082e-01
-9.3260592e-02
-5.1688304e-02
-2.3366293e-02
7.5844198e-03
5.1778267e-02
1.0147139e-01
1.3101972e-01
1.1156680e-01
4.1040780e-02
-4.7978692e-02
-1.1205411e-01
-1.2160970e-01
-6.9858181e-02
2.7137574e-02
1.3587339e-01
2.1808437e-01
2.4459475e-01
2.0495042e-01
1.1456798e-01
9.4538784e-03
-7.5274320e-02
-1.2185575e-01
-1.3292767e-01
-1.2386990e-01
-1.0893782e-01
-9.6510833e-02
-8.7438174e-02
-7.5292494e-02
-5.5958626e-02
-3.1271136e-02
-7.9105120e-03
9.5856747e-03
2.6621687e-02
5.0363242e-02
8.5128147e-02
1.3076162e-01
1.7025606e-01
1.7363085e-01
1.2434254e-01
4.0518623e-02
-3.1933396e-02
-5.5172984e-02
-2.5113062e-02
2.7408256e-02
5.0685066e-02
1.3313223e-02
-6.6495152e-02
-1.4096220e-01
-1.6845503e-01
-1.3675729e-01
-6.9039932e-02
-9.3034563e-03
6.2813163e-03
-2.1918655e-02
-5.7922043e-02
-6.3597976e-02
-2.2500977e-02
5.2605056e-02
1.2559483e-01
1.6263278e-01
1.5236422e-01
1.0451398e-01
3.9910929e-02
-1.7579915e-02
-5.2673838e-02
-6.4419706e-02
-6.2196428e-02
-5.7824388e-02
-5.3457059e-02
-4.2434642e-02
-2.1373108e-02
4.7490979e-03
2.9213738e-02
4.7729129e-02
5.6065217e-02
5.6133991e-02
5.0442414e-02
3.1495608e-02
-7.6097657e-03
-6.3925485e-02
-1.2351950e-01
-1.6200448e-01
-1.5739983e-01
-1.0364138e-01
-6.3566709e-03
1.1548557e-01
2.1944063e-01
2.5631248e-01
2.0593621e-01
9.3376896e-02
-3.1920678e-02
-1.2678903e-01
-1.6610451e-01
-1.4888095e-01
-9.9772429e-02
-5.5968617e-02
-4.4023535e-02
-5.6473898e-02
-5.6364789e-02
-1.0334389e-02
8.4119151e-02
1.9121841e-01
2.4933172e-01
2.1305032e-01
9.3560353e-02
-4.9703071e-02
-1.5356924e-01
-1.9071592e-01
-1.7102972e-01
-1.2128879e-01
-6.8728725e-02
-2.4875433e-02
1.7911120e-02
7.0045337e-02
1.2864556e-01
1.7587417e-01
1.8809852e-01
1.5674742e-01
9.5790783e-02
2.3191135e-02
-4.8312362e-02
-1.1195943e-01
-1.6362374e-01
-1.9549383e-01
-2.0448706e-01
-1.9478877e-01
-1.7229950e-01
-1.4344544e-01
-1.0848603e-01
-5.9056376e-02
1.5822754e-02
1.2139491e-01
2.4488802e-01
3.4632448e-01
3.7454485e-01
3.0986228e-01
1.8465292e-01
5.8583151e-02
-2.2789031e-02
-5.0630137e-02
-4.5927828e-02
-4.2165671e-02
-6.4996732e-02
-1.1415474e-01
-1.6807394e-01
-2.0487129e-01
-2.1578399e-01
-2.0349630e-01
-1.7240288e-01
-1.2683312e-01
-7.4433905e-02
-2.6024864e-02
4.7634582e-03
1.1004981e-02
5.4262509e-03
1.7446227e-02
7.6885573e-02
1.8963254e-01
3.2284403e-01
4.1328815e-01
4.0171540e-01
2.8228978e-01
1.1187692e-01
-3.7329400e-02
-1.2758571e-01
-1.6482452e-01
-1.8000089e-01
-1.9894020e-01
-2.2069921e-01
-2.2793769e-01
-2.0457092e-01
-1.4315131e-01
-5.9392875e-02
2.0953935e-03
2.8793397e-04
-6.2647966e-02
-1.4057643e-01
-1.8447096e-01
-1.6888689e-01
-9.0079065e-02
2.9502864e-02
