2.4885960e-01
3.6973738e-01
4.8526962e-01
5.8934544e-01
6.7616162e-01
7.4067282e-01
7.7893421e-01
7.8833153e-01
7.6770140e-01
7.1735078e-01
6.3898812e-01
5.3558160e-01
4.1116071e-01
2.7057813e-01
1.1924926e-01
-3.7113288e-02
-1.9275416e-01
-3.4210612e-01
-4.7998841e-01
-6.0176762e-01
-7.0347917e-01
-7.8191147e-01
-8.3465820e-01
-8.6014733e-01
-8.5765506e-01
-8.2730920e-01
-7.7008155e-01
-6.8776607e-01
-5.8293851e-01
-4.5889449e-01
-3.1956346e-01
-1.6939692e-01
-1.3231926e-02
1.4386552e-01
2.9676942e-01
4.4046565e-01
5.7021824e-01
6.8172352e-01
7.7124884e-01
8.3575676e-01
8.7301814e-01
8.8171765e-01
8.6155059e-01
8.1330440e-01
7.3891252e-01
6.4146567e-01
5.2516420e-01
3.9519592e-01
2.5752736e-01
1.1860478e-01
-1.5024530e-02
-1.3714332e-01
-2.4230433e-01
-3.2622791e-01
-3.8610897e-01
-4.2079731e-01
-4.3083270e-01
-4.1833420e-01
-3.8676070e-01
-3.4057273e-01
-2.8483445e-01
-2.2479703e-01
-1.6550258e-01
-1.1144132e-01
-6.6285521e-02
-3.2713710e-02
-1.2327844e-02
-5.6571692e-03
-1.2235775e-02
-3.0737063e-02
-5.9146388e-02
-9.4952486e-02
-1.3533959e-01
-1.7736611e-01
-2.1812156e-01
-2.5485921e-01
-2.8510575e-01
-3.0675101e-01
-3.1812008e-01
-3.1802815e-01
-3.0581607e-01
-2.8136387e-01
-2.4508058e-01
-1.9787110e-01
-1.4108379e-01
-7.6442575e-02
-5.9674275e-03
6.8114104e-02
1.4346147e-01
2.1771831e-01
2.8860780e-01
3.5402134e-01
4.1209505e-01
4.6126724e-01
5.0030988e-01
5.2832954e-01
5.4473884e-01
5.4920544e-01
5.4158902e-01
5.2187775e-01
4.9013559e-01
4.4647176e-01
3.9104293e-01
3.2409402e-01
2.4603591e-01
1.5755072e-01
5.9710386e-02
-4.5907820e-02
-1.5712531e-01
-2.7110270e-01
-3.8433247e-01
-4.9269582e-01
-5.9158959e-01
-6.7612327e-01
-7.4137992e-01
-7.8272861e-01
-7.9617030e-01
-7.7869307e-01
-7.2860836e-01
-6.4583706e-01
-5.3211360e-01
-3.9107813e-01
-2.2823131e-01
-5.0734792e-02
1.3294671e-01
3.1354789e-01
4.8161597e-01
6.2818139e-01
7.4542031e-01
8.2724087e-01
8.6973377e-01
8.7144376e-01
8.3343875e-01
7.5917364e-01
6.5416525e-01
5.2551202e-01
3.8130624e-01
2.2999662e-01
7.9762504e-02
-6.2043591e-02
-1.8934063e-01
-2.9762184e-01
-3.8410291e-01
-4.4771748e-01
-4.8897560e-01
-5.0971244e-01
-5.1276259e-01
-5.0159771e-01
-4.7996319e-01
-4.5154295e-01
-4.1967390e-01
-3.8712232e-01
-3.5592692e-01
-3.2730741e-01
-3.0163593e-01
-2.7846979e-01
-2.5664524e-01
-2.3443081e-01
-2.0973401e-01
-1.8034963e-01
-1.4423215e-01
-9.9770154e-02
-4.6037574e-02
1.7005980e-02
8.8392378e-02
1.6612119e-01
2.4724678e-01
3.2807518e-01
4.0445565e-01
4.7213913e-01
5.2716481e-01
5.6622938e-01
5.8699212e-01
5.8827578e-01
5.7013659e-01
5.3379645e-01
4.8145182e-01
4.1599407e-01
3.4068921e-01
2.5886754e-01
1.7366635e-01
8.7853554e-02
3.7429960e-03
-7.6804050e-02
-1.5230847e-01
-2.2155885e-01
-2.8348049e-01
-3.3701342e-01
-3.8101998e-01
-4.1423634e-01
-4.3527680e-01
-4.4269577e-01
-4.3510844e-01
-4.1136631e-01
-3.7077697e-01
-3.1334786e-01
-2.4002332e-01
-1.5287521e-01
-5.5204460e-02
4.8483604e-02
1.5265159e-01
2.5104842e-01
3.3714805e-01
4.0466310e-01
4.4807814e-01
4.6314623e-01
4.4729921e-01
3.9993302e-01
3.2254247e-01
2.1869433e-01
9.3841209e-02
-4.5007990e-02
-1.8973496e-01
-3.3164069e-01
-4.6201502e-01
-5.7270447e-01
-6.5663931e-01
-7.0828740e-01
-7.2400930e-01
-7.0229451e-01
-6.4386326e-01
-5.5162465e-01
-4.3049012e-01
-2.8705187e-01
-1.2914653e-01
3.4665159e-02
1.9566124e-01
3.4551608e-01
4.7680500e-01
5.8341793e-01
6.6085821e-01
7.0641664e-01
7.1922227e-01
7.0018008e-01
6.5181224e-01
5.7802346e-01
4.8381174e-01
3.7494385e-01
2.5761247e-01
1.3809039e-01
2.2395881e-02
-8.4016369e-02
-1.7652512e-01
-2.5155979e-01
-3.0675204e-01
-3.4101111e-01
-3.5451676e-01
-3.4863117e-01
-3.2573797e-01
-2.8902249e-01
-2.4221025e-01
-1.8928365e-01
-1.3419842e-01
-8.0621126e-02
-3.1706111e-02
1.0074835e-02
4.3041371e-02
6.6347617e-02
7.9959539e-02
8.4572771e-02
8.1482320e-02
7.2418828e-02
5.9366761e-02
4.4379314e-02
2.9403947e-02
1.6131142e-02
5.8764876e-03
-4.9747473e-04
-2.6170329e-03
-5.9105476e-04
5.0351195e-03
1.3361515e-02
2.3243623e-02
3.3419096e-02
4.2636634e-02
4.9773085e-02
5.3927584e-02
5.4484845e-02
5.1143021e-02
4.3905889e-02
3.3044580e-02
1.9038903e-02
2.5103449e-03
-1.5842199e-02
-3.5295696e-02
-5.5140268e-02
-7.4699171e-02
-9.3334264e-02
-1.1044327e-01
-1.2545621e-01
-1.3783636e-01
-1.4708732e-01
-1.5276523e-01
-1.5449482e-01
-1.5198881e-01
-1.4507051e-01
-1.3369840e-01
-1.1798947e-01
-9.8237931e-02
-7.4925511e-02
-4.8720186e-02
-2.0460260e-02
8.8780639e-03
3.8228962e-02
6.6497353e-02
9.2625573e-02
1.1566020e-01
1.3481318e-01
1.4951173e-01
1.5943206e-01
1.6451433e-01
1.6495872e-01
1.6120445e-01
1.5389392e-01
1.4382323e-01
1.3188007e-01
1.1897214e-01
1.0595196e-01
9.3546627e-02
8.2299955e-02
7.2533347e-02
6.4329426e-02
5.7540182e-02
5.1817942e-02
4.6663665e-02
4.1484693e-02
3.5654210e-02
2.8566557e-02
1.9684709e-02
8.5781953e-03
-5.0480995e-03
-2.1331863e-02
-4.0234878e-02
-6.1526220e-02
-8.4767791e-02
-1.0930551e-01
-1.3427107e-01
-1.5859908e-01
-1.8106361e-01
-2.0033571e-01
-2.1506087e-01
-2.2395154e-01
-2.2588701e-01
-2.2001223e-01
-2.0582664e-01
-1.8325488e-01
-1.5269138e-01
-1.1501250e-01
-7.1552651e-02
-2.4043917e-02
2.5477639e-02
7.4793608e-02
1.2164404e-01
1.6387547e-01
1.9958174e-01
2.2722298e-01
2.4571109e-01
2.5445424e-01
2.5335905e-01
2.4279438e-01
2.2352518e-01
1.9662753e-01
1.6339695e-01
1.2526061e-01
8.3701243e-02
4.0196340e-02
-3.8272345e-03
-4.7025732e-02
-8.8161109e-02
-1.2611620e-01
-1.5990380e-01
-1.8867022e-01
-2.1169386e-01
-2.2838061e-01
-2.3825954e-01
-2.4098322e-01
-2.3633597e-01
-2.2425024e-01
-2.0482895e-01
-1.7836982e-01
-1.4538739e-01
-1.0662861e-01
-6.3078167e-02
-1.5951607e-02
3.3324037e-02
8.3141497e-02
1.3175617e-01
1.7734176e-01
2.1806027e-01
2.5214740e-01
2.7801204e-01
2.9434590e-01
3.0023534e-01
2.9526341e-01
2.7958732e-01
2.5397501e-01
2.1978855e-01
1.7890831e-01
1.3360041e-01
8.6337189e-02
3.9586640e-02
-4.4070023e-03
-4.3824050e-02
-7.7422909e-02
-1.0462386e-01
-1.2551273e-01
-1.4076742e-01
-1.5152067e-01
-1.5917794e-01
-1.6521205e-01
-1.7095750e-01
-1.7742716e-01
-1.8517154e-01
-1.9419557e-01
-2.0394127e-01
-2.1333789e-01
-2.2091414e-01
-2.2496066e-01
-2.2372501e-01
-2.1561710e-01
-1.9940322e-01
-1.7436871e-01
-1.4043379e-01
-9.8211284e-02
-4.8999929e-02
5.2868145e-03
6.2249057e-02
1.1917205e-01
1.7322376e-01
2.2166069e-01
2.6202477e-01
2.9231523e-01
3.1112154e-01
3.1770831e-01
3.1204841e-01
2.9480518e-01
2.6726799e-01
2.3124756e-01
1.8893987e-01
1.4276921e-01
9.5222283e-02
4.8685523e-02
5.2975361e-03
-3.3172777e-02
-6.5414407e-02
-9.0624195e-02
-1.0851786e-01
-1.1930446e-01
-1.2362840e-01
-1.2248406e-01
-1.1710970e-01
-1.0886966e-01
-9.9135979e-02
-8.9181067e-02
-8.0090799e-02
-7.2703851e-02
-6.7579140e-02
-6.4989328e-02
-6.4934914e-02
-6.7171641e-02
-7.1244367e-02
-7.6523071e-02
-8.2239891e-02
-8.7529060e-02
-9.1473131e-02
-9.3158209e-02
-9.1738166e-02
-8.6504548e-02
-7.6956453e-02
-6.2863546e-02
-4.4315156e-02
-2.1748758e-02
4.0478563e-03
3.1964697e-02
6.0629318e-02
8.8495857e-02
1.1395667e-01
1.3546638e-01
1.5166645e-01
1.6149899e-01
1.6429885e-01
1.5985460e-01
1.4843094e-01
1.3074992e-01
1.0793370e-01
8.1416458e-02
5.2834743e-02
2.3906126e-02
-3.6937767e-03
-2.8445272e-02
-4.9079822e-02
-6.4650031e-02
-7.4572450e-02
-7.8644814e-02
-7.7040597e-02
-7.0283444e-02
-5.9203484e-02
-4.4877068e-02
-2.8551189e-02
-1.1554284e-02
4.8024106e-03
1.9324553e-02
3.1023562e-02
3.9182846e-02
4.3393846e-02
4.3560268e-02
3.9873622e-02
3.2765918e-02
2.2846840e-02
1.0833970e-02
-2.5148603e-03
-1.6459145e-02
-3.0318122e-02
-4.3496665e-02
-5.5496471e-02
-6.5916385e-02
-7.4446599e-02
-8.0860938e-02
-8.5009792e-02
-8.6814270e-02
-8.6261091e-02
-8.3398151e-02
-7.8331568e-02
-7.1224942e-02
-6.2300023e-02
-5.1836090e-02
-4.0164746e-02
-2.7658006e-02
-1.4709251e-02
-1.7079989e-03
1.0989470e-02
2.3090024e-02
3.4388532e-02
4.4781159e-02
5.4262295e-02
6.2904605e-02
7.0826468e-02
7.8153742e-02
8.4982723e-02
9.1349412e-02
9.7208645e-02
1.0242529e-01
1.0677806e-01
1.0997480e-01
1.1167709e-01
1.1153200e-01
1.0920858e-01
1.0443504e-01
9.7030710e-02
8.6926871e-02
7.4173005e-02
5.8929196e-02
4.1448835e-02
2.2057338e-02
1.1321730e-03
-2.0912107e-02
-4.3632091e-02
-6.6557337e-02
-8.9187941e-02
-1.1099118e-01
-1.3140097e-01
-1.4982324e-01
-1.6564855e-01
-1.7827170e-01
-1.8711582e-01
-1.9165786e-01
-1.9145233e-01
-1.8615337e-01
-1.7553771e-01
-1.5953187e-01
-1.3824416e-01
-1.1199825e-01
-8.1361389e-02
-4.7159126e-02
-1.0468807e-02
2.7413605e-02
6.5034207e-02
1.0086501e-01
1.3340229e-01
1.6126847e-01
1.8330689e-01
1.9866021e-01
2.0682537e-01
2.0767964e-01
2.0147533e-01
1.8880466e-01
1.7053991e-01
1.4775740e-01
1.2165346e-01
9.3460415e-02
6.4369193e-02
3.5464862e-02
7.6793176e-03
-1.8236679e-02
-4.1722288e-02
-6.2397792e-02
-8.0041165e-02
-9.4554745e-02
-1.0592833e-01
-1.1420515e-01
-1.1945529e-01
-1.2175840e-01
-1.2119463e-01
-1.1784206e-01
-1.1177907e-01
-1.0309150e-01
-9.1884734e-02
-7.8300537e-02
-6.2537979e-02
-4.4876538e-02
-2.5697752e-02
-5.5000007e-03
1.5099574e-02
3.5380281e-02
5.4550938e-02
7.1797828e-02
8.6342282e-02
9.7501650e-02
1.0474698e-01
1.0775072e-01
1.0641878e-01
1.0090328e-01
9.1594404e-02
7.9091130e-02
6.4152536e-02
4.7633996e-02
3.0415458e-02
1.3330643e-02
-2.8945122e-03
-1.7687881e-02
-3.0657946e-02
-4.1600208e-02
-5.0484529e-02
-5.7427112e-02
-6.2652488e-02
-6.6450926e-02
-6.9135574e-02
-7.1002734e-02
-7.2298369e-02
-7.3193593e-02
-7.3770604e-02
-7.4018526e-02
-7.3837125e-02
-7.3046079e-02
-7.1398349e-02
-6.8597406e-02
-6.4318779e-02
-5.8236582e-02
-5.0055427e-02
-3.9547348e-02
-2.6591560e-02
-1.1212503e-02
6.3900898e-03
2.5825042e-02
4.6511167e-02
6.7697258e-02
8.8500013e-02
1.0795819e-01
1.2509925e-01
1.3901160e-01
1.4891275e-01
1.5420383e-01
1.5450377e-01
1.4966148e-01
1.3974925e-01
1.2504402e-01
1.0600469e-01
8.3251934e-02
5.7552310e-02
2.9803077e-02
1.0111186e-03
-2.7739678e-02
-5.5334478e-02
-8.0684994e-02
-1.0279365e-01
-1.2081814e-01
-1.3412947e-01
-1.4235684e-01
-1.4541371e-01
-1.4350135e-01
-1.3708814e-01
-1.2686576e-01
-1.1368594e-01
-9.8484352e-02
-8.2200124e-02
-6.5700027e-02
-4.9715279e-02
-3.4796333e-02
-2.1288321e-02
-9.3274284e-03
1.1432813e-03
1.0341611e-02
1.8601702e-02
2.6321868e-02
3.3909206e-02
4.1725245e-02
5.0037158e-02
5.8979100e-02
6.8527114e-02
7.8489056e-02
8.8509509e-02
9.8089308e-02
1.0661927e-01
1.1342665e-01
1.1783089e-01
1.1920342e-01
1.1702665e-01
1.1094730e-01
1.0082005e-01
8.6737345e-02
6.9041948e-02
4.8320741e-02
2.5379599e-02
1.1999172e-03
-2.3122288e-02
-4.6452405e-02
-6.7703189e-02
-8.5922077e-02
-1.0036918e-01
-1.1057579e-01
-1.1637618e-01
-1.1790927e-01
-1.1559051e-01
-1.1005755e-01
-1.0209534e-01
-9.2548462e-02
-8.2229520e-02
-7.1833359e-02
-6.1867886e-02
-5.2611580e-02
-4.4104704e-02
-3.6175656e-02
-2.8497986e-02
-2.0669626e-02
-1.2304277e-02
-3.1238207e-03
6.9609346e-03
1.7794643e-02
2.8958143e-02
3.9791163e-02
4.9455656e-02
5.7031957e-02
6.1635243e-02
6.2536990e-02
5.9275556e-02
5.1741785e-02
4.0228983e-02
2.5440651e-02
8.4534930e-03
-9.3623405e-03
-2.6458768e-02
-4.1248873e-02
-5.2253370e-02
-5.8237063e-02
-5.8320560e-02
-5.2057874e-02
-3.9475708e-02
-2.1073590e-02
2.2137878e-03
2.9087712e-02
5.7982141e-02
8.7175514e-02
1.1490760e-01
1.3949368e-01
1.5943073e-01
1.7349161e-01
1.8080338e-01
1.8090558e-01
1.7378445e-01
1.5987907e-01
1.4005584e-01
1.1554823e-01
8.7861553e-02
5.8646333e-02
2.9549913e-02
2.0606240e-03
-2.2637490e-02
-4.3780425e-02
-6.1093648e-02
-7.4803982e-02
-8.5590228e-02
-9.4476283e-02
-1.0267730e-01
-1.1141584e-01
-1.2173089e-01
-1.3430609e-01
-1.4934293e-01
-1.6649820e-01
-1.8489507e-01
-2.0320554e-01
-2.1979203e-01
-2.3288895e-01
-2.4080146e-01
-2.4209736e-01
-2.3577047e-01
-2.2135706e-01
-1.9899257e-01
-1.6940151e-01
-1.3382162e-01
-9.3870765e-02
-5.1373566e-02
-8.1704170e-03
3.4064635e-02
7.3971837e-02
1.1059955e-01
1.4343276e-01
1.7235538e-01
1.9755580e-01
2.1939352e-01
2.3824963e-01
2.5438455e-01
2.6782385e-01
2.7828859e-01
2.8518151e-01
2.8763265e-01
2.8460003e-01
2.7501302e-01
2.5794090e-01
2.3276531e-01
1.9933384e-01
1.5807297e-01
1.1004320e-01
5.6927197e-02
9.4991863e-04
-5.5262965e-02
-1.0887614e-01
-1.5706721e-01
-1.9725745e-01
-2.2732532e-01
-2.4577929e-01
-2.5187394e-01
-2.4566139e-01
-2.2797758e-01
-2.0036764e-01
-1.6495945e-01
-1.2429854e-01
-8.1160131e-02
-3.8354434e-02
1.4615519e-03
3.5954412e-02
6.3257435e-02
8.2078583e-02
9.1768024e-02
9.2342550e-02
8.4465855e-02
6.9384288e-02
4.8819431e-02
2.4822758e-02
-3.9707462e-04
-2.4659560e-02
-4.5993945e-02
-6.2801301e-02
-7.3982850e-02
-7.9022855e-02
-7.8018320e-02
-7.1652891e-02
-6.1117561e-02
-4.7985062e-02
-3.4048509e-02
-2.1138537e-02
-1.0936480e-02
-4.8025040e-03
-3.6359241e-03
-7.7805058e-03
-1.6982066e-02
-3.0401160e-02
-4.6680492e-02
-6.4063547e-02
-8.0556307e-02
-9.4118419e-02
-1.0286531e-01
-1.0526004e-01
-1.0027332e-01
-8.7492078e-02
-6.7162401e-02
-4.0160881e-02
-7.8995113e-03
2.7821153e-02
6.4989348e-02
1.0156676e-01
1.3565875e-01
1.6565222e-01
1.9030912e-01
2.0881108e-01
2.2075798e-01
2.2612913e-01
2.2521836e-01
2.1855568e-01
2.0682702e-01
1.9080178e-01
1.7127430e-01
1.4902199e-01
1.2478002e-01
9.9230865e-02
7.3005849e-02
4.6693898e-02
2.0851294e-02
-3.9943280e-03
-2.7351149e-02
-4.8783900e-02
-6.7946434e-02
-8.4620186e-02
-9.8749289e-02
-1.1046224e-01
-1.2007188e-01
-1.2804963e-01
-1.3497395e-01
-1.4145710e-01
-1.4805667e-01
-1.5518053e-01
-1.6299700e-01
-1.7136370e-01
-1.7978931e-01
-1.8743881e-01
-1.9318738e-01
-1.9572201e-01
-1.9368363e-01
-1.8583567e-01
-1.7123898e-01
-1.4940931e-01
-1.2043409e-01
-8.5030593e-02
-4.4535321e-02
-8.2306937e-04
4.3836799e-02
8.6970782e-02
1.2611551e-01
1.5903072e-01
1.8388856e-01
1.9942216e-01
2.0502219e-01
2.0077483e-01
1.8744058e-01
1.6637904e-01
1.3942974e-01
1.0876167e-01
7.6705051e-02
4.5579518e-02
1.7532337e-02
-5.6020370e-03
-2.2413721e-02
-3.1996740e-02
-3.3993767e-02
-2.8604031e-02
-1.6552889e-02
9.7522853e-04
2.2434033e-02
4.6032483e-02
6.9860509e-02
9.2013407e-02
1.1070714e-01
1.2437863e-01
1.3176697e-01
1.3197356e-01
1.2450143e-01
1.0927505e-01
8.6641692e-02
5.7354910e-02
2.2541106e-02
-1.6349225e-02
-5.7604201e-02
-9.9326311e-02
-1.3952020e-01
-1.7618965e-01
-2.0743849e-01
-2.3156868e-01
-2.4716956e-01
-2.5319426e-01
-2.4902095e-01
-2.3449712e-01
-2.0996533e-01
-1.7626922e-01
-1.3473813e-01
-8.7148062e-02
-3.5655451e-02
1.7298488e-02
6.9112053e-02
1.1717065e-01
1.5900839e-01
1.9247124e-01
2.1586780e-01
2.2809293e-01
2.2871103e-01
2.1798872e-01
1.9687194e-01
1.6690854e-01
1.3012256e-01
8.8851416e-02
4.5561420e-02
2.6602874e-03
-3.7673671e-02
-7.3628393e-02
-1.0384816e-01
-1.2747031e-01
-1.4410914e-01
-1.5379488e-01
-1.5688228e-01
-1.5394620e-01
-1.4568100e-01
-1.3281667e-01
-1.1606007e-01
-9.6064916e-02
-7.3430227e-02
-4.8722330e-02
-2.2512091e-02
4.5831972e-03
3.1863480e-02
5.8523623e-02
8.3651417e-02
1.0625003e-01
1.2528599e-01
1.3975987e-01
1.4879339e-01
1.5172368e-01
1.4819352e-01
1.3822477e-01
1.2226249e-01
1.0117967e-01
7.6237535e-02
4.9002128e-02
2.1223295e-02
-5.3129166e-03
-2.8943178e-02
-4.8278611e-02
-6.2330305e-02
-7.0593009e-02
-7.3077699e-02
-7.0290548e-02
-6.3161515e-02
-5.2930773e-02
-4.1006371e-02
-2.8811184e-02
-1.7639063e-02
-8.5377230e-03
-2.2301351e-03
9.2053196e-04
9.0331999e-04
-1.9849943e-03
-7.2112865e-03
-1.4091571e-02
-2.1877618e-02
-2.9834290e-02
-3.7300818e-02
-4.3732316e-02
-4.8720589e-02
-5.1996223e-02
-5.3416534e-02
-5.2944867e-02
-5.0625606e-02
-4.6558020e-02
-4.0872092e-02
-3.3710527e-02
-2.5221254e-02
-1.5562701e-02
-4.9205988e-03
6.4678948e-03
1.8288478e-02
3.0128536e-02
4.1466880e-02
5.1680632e-02
6.0074049e-02
6.5930634e-02
6.8585239e-02
6.7508541e-02
6.2393394e-02
5.3231209e-02
4.0366213e-02
2.4516151e-02
6.7501506e-03
-1.1580750e-02
-2.8957628e-02
-4.3841105e-02
-5.4834169e-02
-6.0838902e-02
-6.1185975e-02
-5.5719425e-02
-4.4825175e-02
-2.9399062e-02
-1.0757615e-02
9.4985710e-03
2.9653701e-02
4.8058774e-02
6.3305068e-02
7.4367536e-02
8.0699942e-02
8.2270153e-02
7.9532002e-02
7.3338109e-02
6.4805278e-02
5.5149951e-02
4.5515265e-02
3.6812725e-02
2.9599809e-02
2.4010080e-02
1.9745277e-02
1.6130450e-02
1.2224554e-02
6.9713451e-03
-6.2996986e-04
-1.1357068e-02
-2.5621608e-02
-4.3369472e-02
-6.4037270e-02
-8.6571340e-02
-1.0950764e-01
-1.3110334e-01
-1.4950525e-01
-1.6293612e-01
-1.6987773e-01
-1.6922896e-01
-1.6041929e-01
-1.4346520e-01
-1.1896555e-01
-8.8041425e-02
-5.2232101e-02
-1.3362913e-02
2.6598544e-02
6.5682948e-02
1.0204539e-01
1.3407014e-01
1.6044995e-01
1.8023716e-01
1.9286490e-01
1.9813951e-01
1.9620939e-01
1.8751862e-01
1.7275342e-01
1.5278697e-01
1.2862487e-01
1.0135196e-01
7.2081369e-02
4.1907369e-02
1.1863822e-02
-1.7109994e-02
-4.4195123e-02
-6.8710105e-02
-9.0120500e-02
-1.0804283e-01
-1.2224539e-01
-1.3264741e-01
-1.3931579e-01
-1.4245745e-01
-1.4240503e-01
-1.3959489e-01
-1.3453681e-01
-1.2777549e-01
-1.1984488e-01
-1.1121761e-01
-1.0225371e-01
-9.3153785e-02
-8.3923294e-02
-7.4355526e-02
-6.4041388e-02
-5.2411276e-02
-3.8808657e-02
-2.2588093e-02
-3.2250344e-03
1.9577675e-02
4.5800943e-02
7.5049530e-02
1.0652823e-01
1.3905705e-01
1.7112514e-01
2.0098067e-01
2.2675200e-01
2.4659298e-01
2.5884105e-01
2.6217337e-01
2.5574415e-01
2.3928713e-01
2.1317050e-01
1.7839594e-01
1.3653886e-01
8.9632603e-02
4.0006520e-02
-9.9055849e-03
-5.7764893e-02
-1.0151160e-01
-1.3951204e-01
-1.7065275e-01
-1.9437365e-01
-2.1064186e-01
-2.1987592e-01
-2.2283450e-01
-2.2048523e-01
-2.1386899e-01
-2.0397480e-01
-1.9163818e-01
-1.7747284e-01
-1.6184064e-01
-1.4486061e-01
-1.2645377e-01
-1.0641668e-01
-8.4513174e-02
-6.0570562e-02
-3.4565656e-02
-6.6882630e-03
2.2625410e-02
5.2691812e-02
8.2610426e-02
1.1132179e-01
1.3768642e-01
1.6057413e-01
1.7895116e-01
1.9195402e-01
1.9894350e-01
1.9953698e-01
1.9362002e-01
1.8134074e-01
1.6309235e-01
1.3949039e-01
1.1135028e-01
7.9666502e-02
4.5590756e-02
1.0403309e-02
-2.4527917e-02
-5.7803589e-02
-8.8064375e-02
-1.1407432e-01
-1.3480990e-01
-1.4954514e-01
-1.5792048e-01
-1.5998220e-01
-1.5618188e-01
-1.4733082e-01
-1.3451178e-01
-1.1895804e-01
-1.0191577e-01
-8.4508629e-02
-6.7622453e-02
-5.1824070e-02
-3.7323012e-02
-2.3980158e-02
-1.1362355e-02
1.1635163e-03
1.4309639e-02
2.8736773e-02
4.4932769e-02
6.3116359e-02
8.3178001e-02
1.0466441e-01
1.2680810e-01
1.4859728e-01
1.6887583e-01
1.8645809e-01
2.0024248e-01
2.0930827e-01
2.1298336e-01
2.1087588e-01
2.0286931e-01
1.8908793e-01
1.6984427e-01
1.4558138e-01
1.1682106e-01
8.4125815e-02
4.8078609e-02
9.2816952e-03
-3.1628057e-02
-7.3952689e-02
-1.1690284e-01
-1.5957086e-01
-2.0091337e-01
-2.3974869e-01
-2.7477360e-01
-3.0460354e-01
-3.2783762e-01
-3.4314686e-01
-3.4937969e-01
-3.4567496e-01
-3.3156945e-01
-3.0708496e-01
-2.7278065e-01
-2.2975977e-01
-1.7962542e-01
-1.2438712e-01
-6.6325640e-02
-7.8295075e-03
4.8778205e-02
1.0140121e-01
1.4830011e-01
1.8817878e-01
2.2022340e-01
2.4409735e-01
2.5989980e-01
2.6809710e-01
2.6943675e-01
2.6485256e-01
2.5536893e-01
2.4201088e-01
2.2572667e-01
2.0732910e-01
1.8746001e-01
1.6657819e-01
1.4496715e-01
1.2275776e-01
9.9962024e-02
7.6516604e-02
5.2334866e-02
2.7364312e-02
1.6434015e-03
-2.4649785e-02
-5.1164016e-02
-7.7361433e-02
-1.0252631e-01
-1.2579562e-01
-1.4620874e-01
-1.6277251e-01
-1.7453653e-01
-1.8067317e-01
-1.8055628e-01
-1.7383234e-01
-1.6047808e-01
-1.4083871e-01
-1.1564165e-01
-8.5980955e-02
-5.3269832e-02
-1.9161072e-02
1.4560599e-02
4.6105990e-02
7.3816706e-02
9.6293731e-02
1.1250434e-01
1.2185403e-01
1.2421436e-01
1.1990398e-01
1.0962748e-01
9.4382942e-02
7.5351946e-02
5.3785617e-02
3.0897933e-02
7.7750825e-03
-1.4692113e-02
-3.5847515e-02
-5.5278307e-02
-7.2793710e-02
-8.8377682e-02
-1.0212257e-01
-1.1415356e-01
-1.2455558e-01
-1.3331335e-01
-1.4027257e-01
-1.4512649e-01
-1.4742938e-01
-1.4663678e-01
-1.4216967e-01
-1.3349665e-01
-1.2022432e-01
-1.0218345e-01
-7.9497598e-02
-5.2622449e-02
-2.2347399e-02
1.0243990e-02
4.3852468e-02
7.7072636e-02
1.0852059e-01
1.3696293e-01
1.6142921e-01
1.8129090e-01
1.9629467e-01
2.0654422e-01
2.1243333e-01
2.1454087e-01
2.1350407e-01
2.0988887e-01
2.0407598e-01
1.9617960e-01
1.8601263e-01
1.7310717e-01
1.5679066e-01
1.3630887e-01
1.1097912e-01
8.0352308e-02
4.4361197e-02
3.4334860e-03
-4.1447720e-02
-8.8747510e-02
-1.3645009e-01
-1.8219162e-01
-2.2344187e-01
-2.5771588e-01
-2.8279424e-01
-2.9692968e-01
-2.9901925e-01
-2.8872476e-01
-2.6652853e-01
-2.3371646e-01
-1.9228663e-01
-1.4478917e-01
-9.4112452e-02
-4.3237636e-02
5.0116629e-03
4.8197513e-02
8.4449009e-02
1.1257772e-01
1.3211660e-01
1.4328223e-01
1.4687055e-01
1.4410353e-01
1.3644810e-01
1.2542954e-01
1.1246035e-01
9.8702815e-02
8.4978330e-02
7.1729633e-02
5.9034648e-02
4.6665043e-02
3.4179046e-02
2.1036167e-02
6.7201895e-03
-9.1433625e-03
-2.6687176e-02
-4.5728264e-02
-6.5726618e-02
-8.5782114e-02
-1.0467477e-01
-1.2095046e-01
-1.3304879e-01
-1.3946325e-01
-1.3891808e-01
-1.3054199e-01
-1.1401676e-01
-8.9678881e-02
-5.8555260e-02
-2.2321266e-02
1.6820652e-02
5.6331077e-02
9.3570721e-02
1.2605484e-01
1.5169244e-01
1.6898068e-01
1.7713289e-01
1.7612963e-01
1.6669307e-01
1.5019235e-01
1.2849302e-01
1.0376638e-01
7.8277242e-02
5.4169616e-02
3.3270156e-02
1.6927026e-02
5.8982521e-03
2.9869274e-04
-3.9059883e-04
2.7473027e-03
8.1874874e-03
1.4126051e-02
1.8668791e-02
2.0029405e-02
1.6719266e-02
7.7100636e-03
-7.4476812e-03
-2.8561922e-02
-5.4796836e-02
-8.4729278e-02
-1.1645792e-01
-1.4775595e-01
-1.7625498e-01
-1.9964445e-01
-2.1586864e-01
-2.2330373e-01
-2.2090000e-01
-2.0827768e-01
-1.8576857e-01
-1.5439906e-01
-1.1581489e-01
-7.2153872e-02
-2.5878334e-02
2.0416846e-02
6.4202864e-02
1.0320383e-01
1.3555431e-01
1.5991364e-01
1.7552932e-01
1.8224874e-01
1.8048287e-01
1.7112821e-01
1.5545591e-01
1.3498014e-01
1.1131932e-01
8.6063870e-02
6.0661724e-02
3.6330825e-02
1.4004561e-02
-5.6880490e-03
-2.2410329e-02
-3.6080220e-02
-4.6814186e-02
-5.4860235e-02
-6.0528001e-02
-6.4124598e-02
-6.5904832e-02
-6.6041956e-02
-6.4620404e-02
-6.1646654e-02
-5.7071311e-02
-5.0816013e-02
-4.2801500e-02
-3.2975772e-02
-2.1342023e-02
-7.9854259e-03
6.9033745e-03
2.3011304e-02
3.9896111e-02
5.6992536e-02
7.3631783e-02
8.9072456e-02
1.0254014e-01
1.1327310e-01
1.2057153e-01
1.2384726e-01
1.2267026e-01
1.1680908e-01
1.0626366e-01
9.1288687e-02
7.2404730e-02
5.0391957e-02
2.6261084e-02
1.1981414e-03
-2.3515711e-02
-4.6602850e-02
-6.6895991e-02
-8.3440842e-02
-9.5582382e-02
-1.0302431e-01
-1.0585470e-01
-1.0453542e-01
-9.9856883e-02
-9.2862168e-02
-8.4746511e-02
-7.6740145e-02
-6.9985605e-02
-6.5422314e-02
-6.3690908e-02
-6.5067585e-02
-6.9435911e-02
-7.6300253e-02
-8.4840827e-02
-9.4005120e-02
-1.0262503e-01
-1.0954528e-01
-1.1374724e-01
-1.1445336e-01
-1.1119984e-01
-1.0387002e-01
-9.2686058e-02
-7.8162318e-02
-6.1028030e-02
-4.2129960e-02
-2.2326835e-02
-2.3875153e-03
1.7095351e-02
3.5765201e-02
5.3526581e-02
7.0531562e-02
8.7129247e-02
1.0378470e-01
1.2097705e-01
1.3908958e-01
1.5830696e-01
1.7853541e-01
1.9935876e-01
2.2003778e-01
2.3955345e-01
2.5668815e-01
2.7013344e-01
2.7860949e-01
2.8098103e-01
2.7635709e-01
2.6416656e-01
2.4420646e-01
2.1666397e-01
1.8211429e-01
1.4149581e-01
9.6063229e-02
4.7319500e-02
-3.0705111e-03
-5.3378186e-02
-1.0191165e-01
-1.4710801e-01
-1.8760880e-01
-2.2231466e-01
-2.5041928e-01
-2.7142546e-01
-2.8514584e-01
-2.9168968e-01
-2.9143568e-01
-2.8499119e-01
-2.7313913e-01
-2.5677517e-01
-2.3683885e-01
-2.1424529e-01
-1.8982671e-01
-1.6429379e-01
-1.3822334e-01
-1.1207292e-01
-8.6217465e-02
-6.1000098e-02
-3.6787605e-02
-1.4019811e-02
6.7586424e-03
2.4894140e-02
3.9652881e-02
5.0281202e-02
5.6089411e-02
5.6546647e-02
5.1372358e-02
4.0610720e-02
2.4677305e-02
4.3720110e-03
-1.9142844e-02
-4.4396778e-02
-6.9693297e-02
-9.3214123e-02
-1.1313765e-01
-1.2776135e-01
-1.3561669e-01
-1.3556643e-01
-1.2687649e-01
-1.0925737e-01
-8.2872278e-02
-4.8311678e-02
-6.5362110e-03
4.1207659e-02
9.3493203e-02
1.4883174e-01
2.0579211e-01
2.6310631e-01
3.1974485e-01
3.7494759e-01
4.2820156e-01
4.7916560e-01
5.2755001e-01
5.7296628e-01
6.1476736e-01
6.5190160e-01
6.8280381e-01
7.0534368e-01
7.1684551e-01
7.1418596e-01
6.9396909e-01
6.5277202e-01
5.8744770e-01
4.9546470e-01
3.7525795e-01
2.2656049e-01
5.0684233e-02
-1.4928214e-01
-3.6838745e-01
-5.9986712e-01
-8.3533911e-01
-1.0651456e+00
-1.2788249e+00
-1.4656861e+00
-1.6154470e+00
-1.7188897e+00
-1.7684876e+00
-1.7589599e+00
-1.6877126e+00
-1.5551370e+00
-1.3647377e+00
-1.1230766e+00
-8.3952575e-01
-5.2583598e-01
-1.9554105e-01
1.3677415e-01
4.5630170e-01
7.4888704e-01
1.0018970e+00
1.2050176e+00
1.3509184e+00
1.4357264e+00
1.4592591e+00
1.4249832e+00
1.3396838e+00
1.2128594e+00
1.0558937e+00
8.8108601e-01
7.0064437e-01
5.2574761e-01
3.6577014e-01
2.2773320e-01
1.1601483e-01
3.2319060e-02
-2.4121325e-02
-5.6152503e-02
-6.8173599e-02
-6.5538144e-02
-5.3945785e-02
-3.8883485e-02
-2.5165594e-02
-1.6606479e-02
-1.5840741e-02
-2.4287876e-02
-4.2242741e-02
-6.9061290e-02
-1.0340359e-01
-1.4349421e-01
-1.8736441e-01
-2.3304915e-01
-2.7872244e-01
-3.2276519e-01
-3.6377036e-01
-4.0050169e-01
-4.3183029e-01
-4.5667630e-01
-4.7397696e-01
-4.8269297e-01
-4.8185445e-01
-4.7063954e-01
-4.4847330e-01
-4.1513136e-01
-3.7083171e-01
-3.1629946e-01
-2.5279283e-01
-1.8208349e-01
-1.0639035e-01
-2.8270852e-02
4.9520647e-02
1.2419433e-01
1.9309096e-01
2.5383823e-01
3.0448471e-01
3.4359988e-01
3.7033164e-01
3.8441749e-01
3.8615216e-01
3.7631951e-01
3.5609939e-01
3.2696061e-01
2.9055090e-01
2.4859383e-01
2.0280052e-01
1.5480032e-01
1.0609067e-01
5.8004281e-02
1.1691764e-02
-3.1881479e-02
-7.1925652e-02
-1.0780710e-01
-1.3902321e-01
-1.6517603e-01
-1.8594764e-01
-2.0107913e-01
-2.1035437e-01
-2.1358974e-01
-2.1063230e-01
-2.0136956e-01
-1.8575325e-01
-1.6383730e-01
-1.3582584e-01
-1.0212400e-01
-6.3382449e-02
-2.0527363e-02
2.5229760e-02
7.2406094e-02
1.1928763e-01
1.6399702e-01
2.0458839e-01
2.3916347e-01
2.6599923e-01
2.8367348e-01
2.9117537e-01
2.8798920e-01
2.7414322e-01
2.5021863e-01
2.1731809e-01
1.7699828e-01
1.3117445e-01
8.2006201e-02
3.1772356e-02
-1.7258626e-02
-6.2957068e-02
-1.0345297e-01
-1.3724268e-01
-1.6327444e-01
-1.8100630e-01
-1.9043052e-01
-1.9206068e-01
-1.8688078e-01
-1.7625921e-01
-1.6183350e-01
-1.4537345e-01
-1.2863219e-01
-1.1319702e-01
-1.0035480e-01
-9.0986775e-02
-8.5505481e-02
-8.3841114e-02
-8.5479077e-02
-8.9544843e-02
-9.4926445e-02
-1.0041933e-01
-1.0487456e-01
-1.0733120e-01
-1.0711614e-01
-1.0389989e-01
-9.7701880e-02
-8.8845860e-02
-7.7872023e-02
-6.5419018e-02
-5.2093277e-02
-3.8345661e-02
-2.4375317e-02
-1.0077954e-02
4.9500379e-03
2.1348970e-02
3.9882538e-02
6.1290919e-02
8.6132728e-02
1.1463882e-01
1.4659794e-01
1.8128960e-01
2.1747462e-01
2.5344819e-01
2.8715304e-01
3.1634206e-01
3.3877283e-01
3.5241207e-01
3.5562794e-01
3.4734977e-01
3.2717837e-01
2.9543546e-01
2.5314716e-01
2.0196309e-01
1.4401853e-01
8.1753878e-02
1.7712857e-02
-4.5653844e-02
-1.0615352e-01
-1.6196644e-01
-2.1170368e-01
-2.5441147e-01
-2.8953222e-01
-3.1683592e-01
-3.3633662e-01
-3.4820898e-01
-3.5271819e-01
-3.5017171e-01
-3.4089542e-01
-3.2523201e-01
-3.0355719e-01
-2.7630815e-01
-2.4401743e-01
-2.0734371e-01
-1.6709176e-01
-1.2421624e-01
-7.9807131e-02
-3.5056875e-02
8.7894989e-03
5.0498008e-02
8.8917573e-02
1.2305171e-01
1.5212041e-01
1.7560329e-01
1.9325826e-01
2.0511397e-01
2.1143870e-01
2.1269157e-01
2.0946347e-01
2.0241501e-01
1.9221662e-01
1.7949516e-01
1.6479107e-01
1.4853093e-01
1.3101952e-01
1.1245231e-01
9.2946116e-02
7.2583026e-02
5.1462072e-02
2.9752635e-02
7.7426610e-03
-1.4126524e-02
-3.5247158e-02
-5.4860171e-02
-7.2100933e-02
-8.6073164e-02
-9.5943104e-02
-1.0104095e-01
-1.0095378e-01
-9.5595784e-02
-8.5246503e-02
-7.0553693e-02
-5.2500962e-02
-3.2342588e-02
-1.1510156e-02
8.5008770e-03
2.6252888e-02
4.0482318e-02
5.0197596e-02
5.4749418e-02
5.3868432e-02
4.7669418e-02
3.6624481e-02
2.1511126e-02
3.3437193e-03
-1.6702884e-02
-3.7371155e-02
-5.7396913e-02
-7.5581765e-02
-9.0859821e-02
-1.0235590e-01
-1.0943237e-01
-1.1172234e-01
-1.0914766e-01
-1.0192109e-01
-9.0532195e-02
-7.5716492e-02
-5.8407840e-02
-3.9674672e-02
-2.0642010e-02
-2.4028805e-03
1.4074658e-02
2.8035885e-02
3.9012824e-02
4.6872889e-02
5.1834998e-02
5.4448238e-02
5.5531873e-02
5.6080216e-02
5.7141154e-02
5.9681476e-02
6.4454627e-02
7.1887049e-02
8.1998498e-02
9.4368986e-02
1.0815878e-01
1.2217854e-01
1.3499724e-01
1.4507098e-01
1.5087618e-01
1.5103551e-01
1.4442925e-01
1.3028744e-01
1.0825988e-01
7.8461973e-02
4.1496193e-02
-1.5512732e-03
-4.9140043e-02
-9.9333492e-02
-1.4988599e-01
-1.9835713e-01
-2.4224756e-01
-2.7914924e-01
-3.0690074e-01
-3.2373641e-01
-3.2841585e-01
-3.2032075e-01
-2.9950877e-01
-2.6671828e-01
-2.2332134e-01
-1.7122641e-01
-1.1273779e-01
-5.0386439e-02
1.3248530e-02
7.5707544e-02
1.3479119e-01
1.8866235e-01
2.3590325e-01
2.7552506e-01
3.0693375e-01
3.2986162e-01
3.4427927e-01
3.5030458e-01
3.4812331e-01
3.3793281e-01
3.1991564e-01
2.9424612e-01
2.6112764e-01
2.2085470e-01
1.7388979e-01
1.2094311e-01
6.3041421e-02
1.5714943e-03
-6.1714858e-02
-1.2474189e-01
-1.8519744e-01
-2.4065971e-01
-2.8875079e-01
-3.2730161e-01
-3.5451209e-01
-3.6909064e-01
-3.7035898e-01
-3.5831232e-01
-3.3362953e-01
-2.9763361e-01
-2.5220768e-01
-1.9967466e-01
-1.4265191e-01
-8.3893191e-02
-2.6130783e-02
2.8070868e-02
7.6441270e-02
1.1710370e-01
1.4864561e-01
1.7015925e-01
1.8125492e-01
1.8205081e-01
1.7314391e-01
1.5556587e-01
1.3072644e-01
1.0034696e-01
6.6386660e-02
3.0963880e-02
-3.7269859e-03
-3.5504152e-02
-6.2293893e-02
-8.2232285e-02
-9.3770290e-02
-9.5776876e-02
-8.7632509e-02
-6.9303323e-02
-4.1385661e-02
-5.1119853e-03
3.7688025e-02
8.4673828e-02
1.3312620e-01
1.8011854e-01
2.2271480e-01
2.5817714e-01
2.8416359e-01
2.9889742e-01
3.0129208e-01
2.9101958e-01
2.6851435e-01
2.3491058e-01
1.9191914e-01
1.4165873e-01
8.6463185e-02
2.8689124e-02
-2.9453823e-02
-8.6033383e-02
-1.3947440e-01
-1.8858302e-01
-2.3251748e-01
-2.7071554e-01
-3.0279458e-01
-3.2844371e-01
-3.4732812e-01
-3.5902417e-01
-3.6299979e-01
-3.5864737e-01
-3.4536723e-01
-3.2269034e-01
-2.9042160e-01
-2.4878035e-01
-1.9851402e-01
-1.4096276e-01
-7.8058170e-02
-1.2247804e-02
5.3652073e-02
1.1666095e-01
1.7387192e-01
2.2269301e-01
2.6106137e-01
2.8760415e-01
3.0172875e-01
3.0363544e-01
2.9425461e-01
2.7511821e-01
2.4818034e-01
2.1560676e-01
1.7955693e-01
1.4198407e-01
1.0447722e-01
6.8163226e-02
3.3678046e-02
1.2072459e-03
-2.9412949e-02
-5.8549447e-02
-8.6601726e-02
-1.1383083e-01
-1.4021185e-01
-1.6533090e-01
-1.8834203e-01
-2.0799305e-01
-2.2272039e-01
-2.3080348e-01
-2.3055893e-01
-2.2054910e-01
-1.9977816e-01
-1.6785211e-01
-1.2508456e-01
-7.2537083e-02
-1.1991304e-02
5.4142017e-02
1.2296495e-01
1.9127033e-01
2.5573991e-01
3.1314845e-01
3.6056007e-01
3.9550491e-01
4.1612504e-01
4.2128122e-01
4.1061411e-01
3.8455628e-01
3.4429419e-01
2.9168307e-01
2.2912122e-01
1.5939175e-01
8.5481472e-02
1.0388021e-02
-6.3069294e-02
-1.3241623e-01
-1.9564937e-01
-2.5130804e-01
-2.9848891e-01
-3.3680797e-01
-3.6632047e-01
-3.8741180e-01
-4.0067341e-01
-4.0677830e-01
-4.0636987e-01
-3.9997553e-01
-3.8795305e-01
-3.7047406e-01
-3.4754484e-01
-3.1906097e-01
-2.8488848e-01
-2.4496184e-01
-1.9938707e-01
-1.4853704e-01
-9.3125639e-02
-3.4246650e-02
2.6634400e-02
8.7742198e-02
1.4710546e-01
2.0271013e-01
2.5267036e-01
2.9539074e-01
3.2969481e-01
3.5490121e-01
3.7083891e-01
3.7780363e-01
3.7646691e-01
3.6775564e-01
3.5272086e-01
3.3241210e-01
3.0777046e-01
2.7955056e-01
2.4827906e-01
2.1425409e-01
1.7758494e-01
1.3826678e-01
9.6279683e-02
5.1698682e-02
4.7998890e-03
-4.3852283e-02
-9.3350254e-02
-1.4243067e-01
-1.8950871e-01
-2.3275818e-01
-2.7023044e-01
-2.9999980e-01
-3.2031870e-01
-3.2976546e-01
-3.2737032e-01
-3.1271063e-01
-2.8597074e-01
-2.4796516e-01
-2.0012465e-01
-1.4444572e-01
-8.3404870e-02
-1.9840235e-02
4.3195449e-02
1.0260525e-01
1.5543386e-01
1.9905771e-01
2.3136534e-01
2.5091240e-01
2.5703589e-01
2.4991429e-01
2.3056267e-01
2.0075708e-01
1.6288905e-01
1.1976023e-01
7.4335744e-02
2.9481165e-02
-1.2288504e-02
-4.9018999e-02
-7.9461033e-02
-1.0313156e-01
-1.2028608e-01
-1.3180774e-01
-1.3902920e-01
-1.4350988e-01
-1.4679531e-01
-1.5018616e-01
-1.5454314e-01
-1.6015059e-01
-1.6665512e-01
-1.7308839e-01
-1.7797427e-01
-1.7951101e-01
-1.7580797e-01
-1.6514735e-01
-1.4623770e-01
-1.1842799e-01
-8.1857241e-02
-3.7521432e-02
1.2752957e-02
6.6430556e-02
1.2047405e-01
1.7161454e-01
2.1665442e-01
2.5276822e-01
2.7776848e-01
2.9030812e-01
2.8999803e-01
2.7742903e-01
2.5409845e-01
2.2225277e-01
1.8466489e-01
1.4436947e-01
1.0438186e-01
6.7428213e-02
3.5713053e-02
1.0747134e-02
-6.7487374e-03
-1.6857234e-02
-2.0398092e-02
-1.8792933e-02
-1.3879326e-02
-7.6964291e-03
-2.2657086e-03
6.1181937e-04
-4.7549199e-04
-6.4274040e-03
-1.7563705e-02
-3.3613966e-02
-5.3763557e-02
-7.6749304e-02
-1.0099392e-01
-1.2476544e-01
-1.4634666e-01
-1.6419910e-01
-1.7710698e-01
-1.8428772e-01
-1.8545843e-01
-1.8085102e-01
-1.7117410e-01
-1.5752539e-01
-1.4126512e-01
-1.2386562e-01
-1.0675533e-01
-9.1174656e-02
-7.8057867e-02
-6.7950647e-02
-6.0968030e-02
-5.6793318e-02
-5.4715508e-02
-5.3700482e-02
-5.2489370e-02
-4.9715805e-02
-4.4032321e-02
-3.4234959e-02
-1.9374456e-02
1.1567056e-03
2.7568697e-02
5.9652111e-02
9.6785702e-02
1.3796743e-01
1.8186134e-01
2.2685401e-01
2.7111673e-01
3.1267341e-01
3.4947715e-01
3.7949885e-01
4.0082904e-01
4.1178910e-01
4.1104465e-01
3.9771059e-01
3.7143619e-01
3.3245830e-01
2.8161271e-01
2.2029887e-01
1.5039967e-01
7.4165599e-02
-5.9224413e-03
-8.7295070e-02
-1.6742540e-01
-2.4393718e-01
-3.1468356e-01
-3.7779574e-01
-4.3170522e-01
-4.7514573e-01
-5.0714166e-01
-5.2698945e-01
-5.3423882e-01
-5.2868019e-01
-5.1034361e-01
-4.7951191e-01
-4.3674647e-01
-3.8292066e-01
-3.1925250e-01
-2.4732661e-01
-1.6909482e-01
-8.6846856e-02
-3.1456957e-03
7.9272949e-02
1.5763231e-01
2.2926863e-01
2.9179487e-01
3.4325758e-01
3.8226760e-01
4.0808629e-01
4.2065454e-01
4.2056051e-01
4.0895105e-01
3.8739871e-01
3.5774064e-01
3.2190879e-01
2.8177197e-01
2.3900845e-01
1.9502258e-01
1.5091095e-01
1.0747648e-01
6.5282159e-02
2.4731121e-02
-1.3843269e-02
-5.0094467e-02
-8.3600932e-02
-1.1383422e-01
-1.4016002e-01
-1.6187099e-01
-1.7824769e-01
-1.8864111e-01
-1.9256663e-01
-1.8979581e-01
-1.8043122e-01
-1.6495169e-01
-1.4421937e-01
-1.1944545e-01
-9.2116419e-02
-6.3888766e-02
-3.6464100e-02
-1.1459214e-02
9.7145594e-03
2.5950366e-02
3.6514165e-02
4.1077537e-02
3.9714987e-02
3.2870477e-02
2.1301239e-02
6.0078172e-03
-1.1841623e-02
-3.0986434e-02
-5.0143351e-02
-6.8067929e-02
-8.3606320e-02
-9.5738147e-02
-1.0361244e-01
-1.0657841e-01
-1.0421165e-01
-9.6335210e-02
-8.3034591e-02
-6.4664938e-02
-4.1847704e-02
-1.5452586e-02
1.3438889e-02
4.3588634e-02
7.3672417e-02
1.0235888e-01
1.2838989e-01
1.5065520e-01
1.6825531e-01
1.8054772e-01
1.8717436e-01
1.8806988e-01
1.8345209e-01
1.7379554e-01
1.5978945e-01
1.4228134e-01
1.2220893e-01
1.0052471e-01
7.8119061e-02
5.5748772e-02
3.3979089e-02
1.3147639e-02
-6.6425951e-03
-2.5497938e-02
-4.3678508e-02
-6.1520141e-02
-7.9344981e-02
-9.7373774e-02
-1.1565318e-01
-1.3400954e-01
-1.5203608e-01
-1.6911434e-01
-1.8446577e-01
-1.9722611e-01
-2.0653355e-01
-2.1162058e-01
-2.1189816e-01
-2.0702198e-01
-1.9693302e-01
-1.8186889e-01
-1.6234575e-01
-1.3911224e-01
-1.1307861e-01
-8.5226383e-02
-5.6508207e-02
-2.7750942e-02
4.2336434e-04
2.7646029e-02
5.3811581e-02
7.9046530e-02
1.0364114e-01
1.2795413e-01
1.5230401e-01
1.7686114e-01
2.0155370e-01
2.2599886e-01
2.4946941e-01
2.7090380e-01
2.8896348e-01
3.0213634e-01
3.0887889e-01
3.0778417e-01
2.9775764e-01
2.7817932e-01
2.4902987e-01
2.1095975e-01
1.6528740e-01
1.1392064e-01
5.9205517e-02
3.7157432e-03
-4.9994595e-02
-9.9644003e-02
-1.4344648e-01
-1.8027115e-01
-2.0971566e-01
-2.3208462e-01
-2.4827800e-01
-2.5960583e-01
-2.6755424e-01
-2.7353397e-01
-2.7864535e-01
-2.8349132e-01
-2.8806417e-01
-2.9172163e-01
-2.9325687e-01
-2.9105436e-01
-2.8331252e-01
-2.6830458e-01
-2.4464372e-01
-2.1151742e-01
-1.6885954e-01
-1.1743628e-01
-5.8832787e-02
4.6588796e-03
7.0234853e-02
1.3482898e-01
1.9538151e-01
2.4909307e-01
2.9363727e-01
3.2731446e-01
3.4913700e-01
3.5884431e-01
3.5685336e-01
3.4415651e-01
3.2218239e-01
2.9263709e-01
2.5734327e-01
2.1809440e-01
1.7653867e-01
1.3410230e-01
9.1954614e-02
5.1010635e-02
1.1962246e-02
-2.4672762e-02
-5.8494636e-02
-8.9168893e-02
-1.1638600e-01
-1.3983993e-01
-1.5922777e-01
-1.7426889e-01
-1.8473879e-01
-1.9051103e-01
-1.9159799e-01
-1.8818038e-01
-1.8061686e-01
-1.6942955e-01
-1.5526639e-01
-1.3884494e-01
-1.2088440e-01
-1.0203433e-01
-8.2810188e-02
-6.3546640e-02
-4.4377863e-02
-2.5249554e-02
-5.9614527e-03
1.3765847e-02
3.4208923e-02
5.5554615e-02
7.7818603e-02
1.0077934e-01
1.2393591e-01
1.4649613e-01
1.6739913e-01
1.8537357e-01
1.9902917e-01
2.0697422e-01
2.0794738e-01
2.0094949e-01
1.8536104e-01
1.6103301e-01
1.2834159e-01
8.8201293e-02
4.2035454e-02
-8.2930002e-03
-6.0583893e-02
-1.1242706e-01
-1.6134533e-01
-2.0494354e-01
-2.4105367e-01
-2.6786636e-01
-2.8403998e-01
-2.8878038e-01
-2.8188739e-01
-2.6376580e-01
-2.3540115e-01
-1.9830112e-01
-1.5440443e-01
-1.0595984e-01
-5.5380295e-02
-5.0820534e-03
4.2676240e-02
8.5936700e-02
1.2315107e-01
1.5324473e-01
1.7563325e-01
1.9019605e-01
1.9721694e-01
1.9730397e-01
1.9130137e-01
1.8020439e-01
1.6508332e-01
1.4701881e-01
1.2704793e-01
1.0612042e-01
8.5065151e-02
6.4566817e-02
4.5152473e-02
2.7186869e-02
1.0876556e-02
-3.7164573e-03
-1.6650850e-02
-2.8072751e-02
-3.8175700e-02
-4.7157352e-02
-5.5176783e-02
-6.2316908e-02
-6.8557428e-02
-7.3763586e-02
-7.7693923e-02
-8.0027024e-02
-8.0404180e-02
-7.8482732e-02
-7.3993561e-02
-6.6795608e-02
-5.6920310e-02
-4.4599824e-02
-3.0275140e-02
-1.4583323e-02
1.6742064e-03
1.7578929e-02
3.2154434e-02
4.4434467e-02
5.3536925e-02
5.8740187e-02
5.9555967e-02
5.5790217e-02
4.7582049e-02
3.5412172e-02
2.0076938e-02
2.6298218e-03
-1.5703384e-02
-3.3627001e-02
-4.9885814e-02
-6.3372743e-02
-7.3222535e-02
-7.8880825e-02
-8.0140733e-02
-7.7143187e-02
-7.0340985e-02
-6.0430173e-02
-4.8256726e-02
-3.4711665e-02
-2.0631148e-02
-6.7175373e-03
6.5071483e-03
1.8710546e-02
2.9723964e-02
3.9489351e-02
4.7992725e-02
5.5200380e-02
6.1012985e-02
6.5247524e-02
6.7649848e-02
6.7934500e-02
6.5844595e-02
6.1221856e-02
5.4074076e-02
4.4625719e-02
3.3339250e-02
2.0900631e-02
8.1696938e-03
-3.8976783e-03
-1.4344528e-02
-2.2311712e-02
-2.7127430e-02
-2.8376609e-02
-2.5943712e-02
-2.0026912e-02
-1.1124268e-02
6.2172604e-06
1.2409467e-02
2.5013650e-02
3.6720167e-02
4.6494574e-02
5.3450364e-02
5.6918709e-02
5.6498347e-02
5.2080891e-02
4.3848750e-02
3.2246035e-02
1.7926660e-02
1.6871202e-03
-1.5606815e-02
-3.3090034e-02
-4.9956273e-02
-6.5498914e-02
-7.9132886e-02
-9.0400512e-02
-9.8966689e-02
-1.0460878e-01
-1.0720500e-01
-1.0672340e-01
-1.0321291e-01
-9.6797599e-02
-8.7674386e-02
-7.6113565e-02
-6.2460354e-02
-4.7135843e-02
-3.0635897e-02
-1.3526179e-02
3.5694596e-03
1.9990287e-02
3.5071653e-02
4.8189449e-02
5.8813037e-02
6.6560172e-02
7.1244330e-02
7.2903916e-02
7.1805438e-02
6.8418205e-02
6.3364262e-02
5.7351823e-02
5.1102328e-02
4.5280887e-02
4.0438565e-02
3.6972948e-02
3.5110283e-02
3.4908247e-02
3.6274517e-02
3.8994482e-02
4.2762117e-02
4.7209802e-02
5.1934437e-02
5.6518377e-02
6.0545460e-02
6.3614146e-02
6.5350374e-02
6.5421594e-02
6.3551565e-02
5.9534407e-02
5.3246479e-02
4.4655255e-02
3.3824537e-02
2.0914848e-02
6.1776701e-03
-1.0057270e-02
-2.7401418e-02
-4.5432341e-02
-6.3722004e-02
-8.1864650e-02
-9.9499120e-02
-1.1632053e-01
-1.3207848e-01
-1.4656227e-01
-1.5957627e-01
-1.7091056e-01
-1.8031295e-01
-1.8747015e-01
-1.9200513e-01
-1.9349432e-01
-1.9150248e-01
-1.8562839e-01
-1.7555194e-01
-1.6107392e-01
-1.4214145e-01
-1.1885440e-01
-9.1453401e-02
-6.0294614e-02
-2.5820685e-02
1.1463109e-02
5.1001383e-02
9.2187525e-02
1.3434918e-01
1.7672265e-01
2.1842122e-01
2.5840576e-01
2.9546792e-01
3.2823604e-01
3.5521117e-01
3.7483694e-01
3.8560177e-01
3.8616663e-01
3.7550607e-01
3.5304574e-01
3.1877820e-01
2.7333936e-01
2.1803165e-01
1.5478364e-01
8.6043249e-02
1.4610941e-02
-5.6569522e-02
-1.2463641e-01
-1.8702185e-01
-2.4162406e-01
-2.8692221e-01
-3.2202528e-01
-3.4665564e-01
-3.6107566e-01
-3.6597254e-01
-3.6232001e-01
-3.5123550e-01
-3.3384865e-01
-3.1119361e-01
-2.8413388e-01
-2.5332520e-01
-2.1921800e-01
-1.8209733e-01
-1.4215445e-01
-9.9580632e-02
-5.4670310e-02
-7.9184153e-03
3.9904002e-02
8.7709379e-02
1.3409765e-01
1.7740766e-01
2.1581249e-01
2.4744895e-01
2.7056782e-01
2.8368920e-01
2.8574826e-01
2.7621826e-01
2.5520010e-01
2.2346892e-01
1.8247032e-01
1.3426140e-01
8.1397405e-02
2.6771325e-02
-2.6581117e-02
-7.5694909e-02
-1.1788979e-01
-1.5096577e-01
-1.7336127e-01
-1.8425741e-01
-1.8361781e-01
-1.7216032e-01
-1.5126499e-01
-1.2282934e-01
-8.9088356e-02
-5.2419653e-02
-1.5154193e-02
2.0590196e-02
5.3040472e-02
8.0857894e-02
1.0318199e-01
1.1962915e-01
1.3024994e-01
1.3545319e-01
1.3590769e-01
1.3243351e-01
1.2589457e-01
1.1710395e-01
1.0675153e-01
9.5360255e-02
8.3273204e-02
7.0668712e-02
5.7598457e-02
4.4041088e-02
2.9962616e-02
1.5373829e-02
3.7537783e-04
-1.4816695e-02
-2.9868881e-02
-4.4352217e-02
-5.7786616e-02
-6.9703282e-02
-7.9717167e-02
-8.7596841e-02
-9.3317048e-02
-9.7081779e-02
-9.9311963e-02
-1.0059846e-01
-1.0162608e-01
-1.0307781e-01
-1.0553104e-01
-1.0935877e-01
-1.1464858e-01
-1.2115041e-01
-1.2826098e-01
-1.3504945e-01
-1.4032471e-01
-1.4274113e-01
-1.4093462e-01
-1.3367721e-01
-1.2003494e-01
-9.9511957e-02
-7.2162508e-02
-3.8653809e-02
-2.6663999e-04
4.1172271e-02
8.3423396e-02
1.2402141e-01
1.6049624e-01
1.9060236e-01
2.1252797e-01
2.2505843e-01
2.2767505e-01
2.2058105e-01
2.0465698e-01
1.8135619e-01
1.5255614e-01
1.2038381e-01
8.7034512e-02
5.4602015e-02
2.4934441e-02
-4.7468973e-04
-2.0555343e-02
-3.4689307e-02
-4.2701799e-02
-4.4823966e-02
-4.1635249e-02
-3.3993293e-02
-2.2956864e-02
-9.7064637e-03
4.5318788e-03
1.8553601e-02
3.1229334e-02
4.1545583e-02
4.8636270e-02
5.1809296e-02
5.0569933e-02
4.4641118e-02
3.3980727e-02
1.8795859e-02
-4.4767446e-04
-2.3024919e-02
-4.7965270e-02
-7.4083075e-02
-1.0002614e-01
-1.2434142e-01
-1.4555639e-01
-1.6227271e-01
-1.7326671e-01
-1.7758926e-01
-1.7465630e-01
-1.6432115e-01
-1.4691950e-01
-1.2327843e-01
-9.4683349e-02
-6.2799996e-02
-2.9553740e-02
3.0252168e-03
3.2975855e-02
5.8579789e-02
7.8512621e-02
9.1953778e-02
9.8641329e-02
9.8866869e-02
9.3414539e-02
8.3455082e-02
7.0409827e-02
5.5800915e-02
4.1103800e-02
2.7616443e-02
1.6356707e-02
7.9956233e-03
2.8300358e-03
7.9430508e-04
1.5072147e-03
4.3465339e-03
8.5403979e-03
1.3263359e-02
1.7726449e-02
2.1253645e-02
2.3339952e-02
2.3688596e-02
2.2227282e-02
1.9105909e-02
1.4679195e-02
9.4766479e-03
4.1605219e-03
-5.2849163e-04
-3.8374175e-03
-5.0768427e-03
-3.7019000e-03
6.0924483e-04
7.8900906e-03
1.7845530e-02
2.9846225e-02
4.2962174e-02
5.6034140e-02
6.7776526e-02
7.6901321e-02
8.2249982e-02
8.2918613e-02
7.8362291e-02
6.8466834e-02
5.3579838e-02
3.4496477e-02
1.2399139e-02
-1.1245363e-02
-3.4821223e-02
-5.6716076e-02
-7.5471905e-02
-8.9917133e-02
-9.9266612e-02
-1.0318082e-01
-1.0177950e-01
-9.5609300e-02
-8.5569689e-02
-7.2807292e-02
-5.8591960e-02
-4.4189040e-02
-3.0740974e-02
-1.9169701e-02
-1.0109573e-02
-3.8775524e-03
-4.8273864e-04
3.2829000e-04
-1.0013376e-03
-3.9272143e-03
-7.8937701e-03
-1.2412083e-02
-1.7113928e-02
-2.1775146e-02
-2.6306723e-02
-3.0717348e-02
-3.5056492e-02
-3.9351096e-02
-4.3550322e-02
-4.7490725e-02
-5.0888893e-02
-5.3361664e-02
-5.4467931e-02
-5.3762859e-02
-5.0855136e-02
-4.5458907e-02
-3.7433059e-02
-2.6801539e-02
-1.3751043e-02
1.3929403e-03
1.8205746e-02
3.6209957e-02
5.4919906e-02
7.3877262e-02
9.2672968e-02
1.1095342e-01
1.2841220e-01
1.4477217e-01
1.5976458e-01
1.7311170e-01
1.8451684e-01
1.9366317e-01
2.0022067e-01
2.0385952e-01
2.0426731e-01
2.0116691e-01
1.9433230e-01
1.8360037e-01
1.6887849e-01
1.5014736e-01
1.2745917e-01
1.0093156e-01
7.0738649e-02
3.7101965e-02
2.8502829e-04
-3.9405000e-02
-8.1606536e-02
-1.2588378e-01
-1.7170030e-01
-2.1839036e-01
-2.6513326e-01
-3.1093493e-01
-3.5461906e-01
-3.9482917e-01
-4.3004336e-01
-4.5860499e-01
-4.7877291e-01
-4.8879404e-01
-4.8699859e-01
-4.7191500e-01
-4.4239842e-01
-3.9776382e-01
-3.3791251e-01
-2.6343953e-01
-1.7570946e-01
-7.6889887e-02
3.0066016e-02
1.4149435e-01
2.5315723e-01
3.6044141e-01
4.5861217e-01
5.4310709e-01
6.0984702e-01
6.5553607e-01
6.7792007e-01
6.7597526e-01
6.5000396e-01
6.0162331e-01
5.3364452e-01
4.4985265e-01
3.5470978e-01
2.5301502e-01
1.4956035e-01
4.8819718e-02
-4.5300445e-02
-1.2963348e-01
-2.0184358e-01
-2.6044080e-01
-3.0473108e-01
-3.3471718e-01
-3.5096905e-01
-3.5448227e-01
-3.4654056e-01
-3.2859430e-01
-3.0216326e-01
-2.6876814e-01
-2.2989191e-01
-1.8696808e-01
-1.4138856e-01
-9.4522228e-02
-4.7734288e-02
-2.3980622e-03
4.0107815e-02
7.8420864e-02
1.1123517e-01
1.3735655e-01
1.5576485e-01
1.6567519e-01
1.6659097e-01
1.5834365e-01
1.4111559e-01
1.1544399e-01
8.2205871e-02
4.2586094e-02
-1.9679573e-03
-4.9801198e-02
-9.9111514e-02
-1.4801320e-01
-1.9460081e-01
-2.3701286e-01
-2.7349670e-01
-3.0247614e-01
-3.2262095e-01
-3.3291315e-01
-3.3270260e-01
-3.2174450e-01
-3.0021305e-01
-2.6868793e-01
-2.2811192e-01
-1.7972182e-01
-1.2496001e-01
-6.5378498e-02
-2.5490561e-03
6.2009254e-02
1.2687779e-01
1.9075840e-01
2.5246738e-01
3.1090885e-01
3.6503688e-01
4.1381663e-01
4.5619345e-01
4.9107621e-01
5.1733952e-01
5.3384849e-01
5.3950834e-01
5.3333829e-01
5.1456514e-01
4.8272835e-01
4.3778590e-01
3.8020720e-01
3.1103820e-01
2.3192443e-01
1.4508102e-01
5.3205222e-02
-4.0665574e-02
-1.3333790e-01
-2.2166783e-01
-3.0276220e-01
-3.7415032e-01
-4.3390743e-01
-4.8072143e-01
-5.1390409e-01
-5.3335503e-01
-5.3948987e-01
-5.3314431e-01
-5.1546638e-01
-4.8780848e-01
-4.5163029e-01
-4.0842040e-01
-3.5964146e-01
-3.0670072e-01
-2.5094473e-01
-1.9367289e-01
-1.3615995e-01
-7.9674325e-02
-2.5479567e-02
2.5189815e-02
7.1180619e-02
1.1149758e-01
1.4539460e-01
1.7246526e-01
1.9271392e-01
2.0658854e-01
2.1496197e-01
2.1905695e-01
2.2031969e-01
2.2025604e-01
2.2025047e-01
2.2139232e-01
2.2433248e-01
2.2918924e-01
2.3551449e-01
2.4232432e-01
2.4819153e-01
2.5139212e-01
2.5009211e-01
2.4255698e-01
2.2736280e-01
2.0358754e-01
1.7096171e-01
1.2995988e-01
8.1819791e-02
2.8484066e-02
-2.7531537e-02
-8.3330439e-02
-1.3586847e-01
-1.8220387e-01
-2.1973814e-01
-2.4642369e-01
-2.6091898e-01
-2.6267952e-01
-2.5198141e-01
-2.2988089e-01
-1.9811755e-01
-1.5897130e-01
-1.1508484e-01
-6.9265898e-02
-2.4285345e-02
1.7312403e-02
5.3371737e-02
8.2248829e-02
1.0288714e-01
1.1484222e-01
1.1825762e-01
1.1379739e-01
1.0254301e-01
8.5864854e-02
6.5280958e-02
4.2318340e-02
1.8392195e-02
-5.2851797e-03
-2.7759453e-02
-4.8352745e-02
-6.6649454e-02
-8.2456486e-02
-9.5746811e-02
-1.0659575e-01
-1.1511833e-01
-1.2141380e-01
-1.2552147e-01
-1.2739116e-01
-1.2687180e-01
-1.2372092e-01
-1.1763576e-01
-1.0830344e-01
-9.5464603e-02
-7.8982934e-02
-5.8911319e-02
-3.5544253e-02
-9.4460483e-03
1.8553525e-02
4.7399916e-02
7.5888949e-02
1.0276940e-01
1.2686114e-01
1.4717227e-01
1.6299503e-01
1.7396186e-01
1.8005039e-01
1.8153803e-01
1.7891776e-01
1.7279298e-01
1.6377037e-01
1.5236732e-01
1.3894632e-01
1.2368469e-01
1.0658280e-01
8.7509060e-02
6.6275120e-02
4.2730847e-02
1.6865238e-02
-1.1102890e-02
-4.0660582e-02
-7.0975930e-02
-1.0092036e-01
-1.2913870e-01
-1.5415997e-01
-1.7453498e-01
-1.8898121e-01
-1.9651470e-01
-1.9655073e-01
-1.8896133e-01
-1.7408464e-01
-1.5268864e-01
-1.2589737e-01
-9.5091673e-02
-6.1798568e-02
-2.7582641e-02
6.0498436e-03
3.7727486e-02
6.6267871e-02
9.0708966e-02
1.1032002e-01
1.2459666e-01
1.3324683e-01
1.3617389e-01
1.3346153e-01
1.2536212e-01
1.1228889e-01
9.4810744e-02
7.3648713e-02
4.9671471e-02
2.3886632e-02
-2.5762697e-03
-2.8494768e-02
-5.2597092e-02
-7.3621593e-02
-9.0390873e-02
-1.0189631e-01
-1.0738493e-01
-1.0643814e-01
-9.9030902e-02
-8.5562123e-02
-6.6849339e-02
-4.4085280e-02
-1.8758482e-02
7.4550425e-03
3.2818685e-02
5.5668765e-02
7.4542908e-02
8.8292481e-02
9.6169462e-02
9.7879515e-02
9.3595532e-02
8.3929717e-02
6.9866540e-02
5.2662524e-02
3.3721779e-02
1.4459182e-02
-3.8343897e-03
-2.0109812e-02
-3.3647679e-02
-4.4107456e-02
-5.1532083e-02
-5.6305267e-02
-5.9063283e-02
-6.0570396e-02
-6.1575205e-02
-6.2670671e-02
-6.4180776e-02
-6.6091828e-02
-6.8038611e-02
-6.9347334e-02
-6.9129292e-02
-6.6411966e-02
-6.0289108e-02
-5.0069730e-02
-3.5407481e-02
-1.6395050e-02
6.3883909e-03
3.1884691e-02
5.8621754e-02
8.4831841e-02
1.0861193e-01
1.2810924e-01
1.4171096e-01
1.4821566e-01
1.4696468e-01
1.3791711e-01
1.2166036e-01
9.9357917e-02
7.2642905e-02
4.3469657e-02
1.3937592e-02
-1.3896754e-02
-3.8201967e-02
-5.7530677e-02
-7.0940092e-02
-7.8063168e-02
-7.9123850e-02
-7.4894472e-02
-6.6599128e-02
-5.5773757e-02
-4.4099845e-02
-3.3231534e-02
-2.4634477e-02
-1.9450615e-02
-1.8398845e-02
-2.1718171e-02
-2.9156261e-02
-4.0002105e-02
-5.3157540e-02
-6.7239805e-02
-8.0705875e-02
-9.1988328e-02
-9.9631741e-02
-1.0241849e-01
-9.9473791e-02
-9.0341500e-02
-7.5024708e-02
-5.3987779e-02
-2.8120373e-02
1.3321455e-03
3.2864467e-02
6.4824546e-02
9.5535440e-02
1.2341687e-01
1.4709687e-01
1.6550355e-01
1.7792794e-01
1.8405148e-01
1.8393431e-01
1.7796470e-01
1.6677470e-01
1.5113412e-01
1.3184028e-01
1.0962295e-01
8.5080641e-02
5.8657328e-02
3.0661307e-02
1.3209003e-03
-2.9133965e-02
-6.0380453e-02
-9.1920244e-02
-1.2302233e-01
-1.5270245e-01
-1.7974446e-01
-2.0276341e-01
-2.2030497e-01
-2.3097130e-01
-2.3355893e-01
-2.2719338e-01
-2.1144602e-01
-1.8642167e-01
-1.5280786e-01
-1.1187975e-01
-6.5456384e-02
-1.5807309e-02
3.4488128e-02
8.2721252e-02
1.2626057e-01
1.6276423e-01
1.9037381e-01
2.0786491e-01
2.1473546e-01
2.1122220e-01
1.9824574e-01
1.7729364e-01
1.5025728e-01
1.1924273e-01
8.6377944e-02
5.3637252e-02
2.2699775e-02
-5.1487330e-03
-2.9068121e-02
-4.8672534e-02
-6.4000504e-02
-7.5452693e-02
-8.3704247e-02
-8.9598748e-02
-9.4030818e-02
-9.7825590e-02
-1.0162540e-01
-1.0579561e-01
-1.1036118e-01
-1.1498277e-01
-1.1897656e-01
-1.2137662e-01
-1.2103428e-01
-1.1674603e-01
-1.0739863e-01
-9.2118035e-02
-7.0406561e-02
-4.2251834e-02
-8.1926292e-03
3.0670024e-02
7.2721810e-02
1.1594157e-01
1.5805470e-01
1.9671717e-01
2.2971061e-01
2.5512824e-01
2.7153219e-01
2.7806491e-01
2.7450214e-01
2.6124178e-01
2.3923080e-01
2.0983939e-01
1.7469760e-01
1.3551432e-01
9.3902788e-02
5.1237757e-02
8.5662352e-03
-3.3415671e-02
-7.4319883e-02
-1.1396989e-01
-1.5227237e-01
-1.8908277e-01
-2.2408967e-01
-2.5673680e-01
-2.8619376e-01
-3.1137965e-01
-3.3103724e-01
-3.4384987e-01
-3.4858701e-01
-3.4425973e-01
-3.3026538e-01
-3.0650138e-01
-2.7343223e-01
-2.3209870e-01
-1.8406438e-01
-1.3130207e-01
-7.6030753e-02
-2.0521252e-02
3.3106029e-02
8.3066893e-02
1.2805894e-01
1.6734663e-01
2.0077206e-01
2.2868885e-01
2.5182909e-01
2.7112354e-01
2.8750070e-01
3.0169115e-01
3.1406309e-01
3.2451223e-01
3.3242326e-01
3.3671119e-01
3.3593999e-01
3.2850614e-01
3.1286646e-01
2.8778395e-01
2.5256172e-01
2.0723396e-01
1.5268586e-01
9.0680824e-02
2.3783741e-02
-4.4819139e-02
-1.1158971e-01
-1.7296967e-01
-2.2573533e-01
-2.6732926e-01
-2.9612327e-01
-3.1157641e-01
-3.1426682e-01
-3.0579321e-01
-2.8855838e-01
-2.6546329e-01
-2.3955238e-01
-2.1365690e-01
-1.9008110e-01
-1.7036769e-01
-1.5516575e-01
-1.4421063e-01
-1.3641253e-01
-1.3003978e-01
-1.2297406e-01
-1.1300770e-01
-9.8149305e-02
-7.6903649e-02
-4.8494065e-02
-1.3001724e-02
2.8594579e-02
7.4481989e-02
1.2217100e-01
1.6872578e-01
2.1103914e-01
2.4612087e-01
2.7136993e-01
2.8480537e-01
2.8523818e-01
2.7237401e-01
2.4684355e-01
2.1016214e-01
1.6462333e-01
1.1313414e-01
5.9003532e-02
5.6989212e-03
-4.3412035e-02
-8.5314951e-02
-1.1757647e-01
-1.3852499e-01
-1.4736649e-01
-1.4422432e-01
-1.3010013e-01
-1.0676059e-01
-7.6561041e-02
-4.2222914e-02
-6.5875093e-03
2.7627457e-02
5.8041363e-02
8.2771443e-02
1.0052699e-01
1.1063435e-01
1.1300033e-01
1.0802818e-01
9.6503607e-02
7.9468254e-02
5.8096714e-02
3.3590235e-02
7.0967732e-03
-2.0337775e-02
-4.7787512e-02
-7.4438984e-02
-9.9567236e-02
-1.2250643e-01
-1.4262551e-01
-1.5931717e-01
-1.7200478e-01
-1.8016761e-01
-1.8338057e-01
-1.8136035e-01
-1.7400859e-01
-1.6144342e-01
-1.4401341e-01
-1.2229111e-01
-9.7045576e-02
-6.9195428e-02
-3.9746518e-02
-9.7203189e-03
1.9919180e-02
4.8332147e-02
7.4856096e-02
9.9040055e-02
1.2065602e-01
1.3968612e-01
1.5628621e-01
1.7072863e-01
1.8332894e-01
1.9436382e-01
2.0399090e-01
2.1218256e-01
2.1868468e-01
2.2300680e-01
2.2444551e-01
2.2213936e-01
2.1515090e-01
2.0256874e-01
1.8361936e-01
1.5777586e-01
1.2485122e-01
8.5066202e-02
3.9085977e-02
-1.1977480e-02
-6.6598359e-02
-1.2290380e-01
-1.7876966e-01
-2.3193745e-01
-2.8014400e-01
-3.2125666e-01
-3.5340709e-01
-3.7511561e-01
-3.8539522e-01
-3.8382391e-01
-3.7057606e-01
-3.4640831e-01
-3.1260003e-01
-2.7085286e-01
-2.2315813e-01
-1.7164468e-01
-1.1842206e-01
-6.5434106e-02
-1.4336044e-02
3.3593771e-02
7.7499317e-02
1.1694510e-01
1.5186801e-01
1.8249027e-01
2.0920642e-01
2.3246065e-01
2.5263170e-01
2.6994135e-01
2.8439905e-01
2.9578876e-01
3.0369569e-01
3.0756422e-01
3.0677535e-01
3.0073281e-01
2.8894831e-01
2.7111788e-01
2.4718258e-01
2.1736886e-01
1.8220615e-01
1.4252071e-01
9.9405831e-02
5.4169774e-02
8.2645361e-03
-3.6799392e-02
-7.9546291e-02
-1.1863016e-01
-1.5292408e-01
-1.8159515e-01
-2.0415572e-01
-2.2048426e-01
-2.3081399e-01
-2.3569149e-01
-2.3591004e-01
-2.3242323e-01
-2.2624558e-01
-2.1834940e-01
-2.0956932e-01
-2.0052643e-01
-1.9158205e-01
-1.8282707e-01
-1.7410774e-01
-1.6508313e-01
-1.5530390e-01
-1.4429911e-01
-1.3165778e-01
-1.1709443e-01
-1.0049111e-01
-8.1911244e-02
-6.1584348e-02
-3.9865314e-02
-1.7176631e-02
6.0545650e-03
2.9452687e-02
5.2734139e-02
7.5727054e-02
9.8368665e-02
1.2068092e-01
1.4272729e-01
1.6455666e-01
1.8614266e-01
2.0732791e-01
2.2778237e-01
2.4698367e-01
2.6422500e-01
2.7865248e-01
2.8932830e-01
2.9531172e-01
2.9574699e-01
2.8994716e-01
2.7746333e-01
2.5813096e-01
2.3208759e-01
1.9976088e-01
1.6183089e-01
1.1917426e-01
7.2799893e-02
2.3785855e-02
-2.6773193e-02
-7.7799946e-02
-1.2824570e-01
-1.7708073e-01
-2.2327154e-01
-2.6575596e-01
-3.0342769e-01
-3.3514071e-01
-3.5974038e-01
-3.7612344e-01
-3.8332197e-01
-3.8060040e-01
-3.6755129e-01
-3.4417565e-01
-3.1093652e-01
-2.6877824e-01
-2.1910746e-01
-1.6373617e-01
-1.0479054e-01
-4.4592659e-02
1.4475895e-02
7.0117885e-02
1.2025965e-01
1.6317331e-01
1.9757126e-01
2.2266674e-01
2.3819925e-01
2.4442670e-01
2.4208726e-01
2.3233295e-01
2.1663697e-01
1.9667790e-01
1.7420642e-01
1.5090291e-01
1.2823830e-01
1.0735252e-01
8.8965167e-02
7.3330025e-02
6.0239474e-02
4.9079635e-02
3.8931842e-02
2.8711537e-02
1.7330677e-02
3.8646824e-03
-1.2297878e-02
-3.1343482e-02
-5.2975088e-02
-7.6414736e-02
-1.0046708e-01
-1.2363544e-01
-1.4427465e-01
-1.6076020e-01
-1.7165256e-01
-1.7583821e-01
-1.7263386e-01
-1.6184567e-01
-1.4378050e-01
-1.1921108e-01
-8.9300691e-02
-5.5496034e-02
-1.9398738e-02
1.7371810e-02
5.3309729e-02
8.7132741e-02
1.1785787e-01
1.4483463e-01
1.6773396e-01
1.8649699e-01
2.0125170e-01
2.1220813e-01
2.1954552e-01
2.2330678e-01
2.2331710e-01
2.1914217e-01
2.1009688e-01
1.9530841e-01
1.7382957e-01
1.4479005e-01
1.0756686e-01
6.1951813e-02
8.2945327e-03
-5.2396645e-02
-1.1840890e-01
-1.8734255e-01
-2.5619570e-01
-3.2151376e-01
-3.7959496e-01
-4.2673727e-01
-4.5950896e-01
-4.7502357e-01
-4.7119853e-01
-4.4697529e-01
-4.0247887e-01
-3.3909774e-01
-2.5947072e-01
-1.6737461e-01
-6.7512348e-02
3.4790420e-02
1.3396268e-01
2.2460814e-01
3.0192583e-01
3.6208413e-01
4.0250605e-01
4.2203469e-01
4.2096381e-01
4.0093527e-01
3.6472058e-01
3.1591502e-01
2.5858032e-01
1.9687474e-01
1.3470953e-01
7.5466140e-02
2.1799007e-02
-2.4464652e-02
-6.2331684e-02
-9.1571680e-02
-1.1258836e-01
-1.2625497e-01
-1.3373341e-01
-1.3629560e-01
-1.3516354e-01
-1.3138233e-01
-1.2573612e-01
-1.1871185e-01
-1.1051057e-01
-1.0109954e-01
-9.0293957e-02
-7.7853380e-02
-6.3578008e-02
-4.7391312e-02
-2.9398478e-02
-9.9135185e-03
1.0548066e-02
3.1309195e-02
5.1596472e-02
7.0619391e-02
8.7650090e-02
1.0209068e-01
1.1351793e-01
1.2170013e-01
1.2658725e-01
1.2828085e-01
1.2699277e-01
1.2300007e-01
1.1660172e-01
1.0807985e-01
9.7668179e-02
8.5529649e-02
7.1744742e-02
5.6311306e-02
3.9156503e-02
2.0161638e-02
-8.0033304e-04
-2.3817568e-02
-4.8888582e-02
-7.5875661e-02
-1.0446864e-01
-1.3416232e-01
-1.6424877e-01
-1.9382565e-01
-2.2182113e-01
-2.4703463e-01
-2.6819133e-01
-2.8400772e-01
-2.9326605e-01
-2.9489493e-01
-2.8805176e-01
-2.7220078e-01
-2.4718035e-01
-2.1325325e-01
-1.7113412e-01
-1.2198814e-01
-6.7394993e-02
-9.2746918e-03
5.0222852e-02
1.0885617e-01
1.6444489e-01
2.1502059e-01
2.5895890e-01
2.9507677e-01
3.2268268e-01
3.4157427e-01
3.5198645e-01
3.5449975e-01
3.4992275e-01
3.3916438e-01
3.2311252e-01
3.0253420e-01
2.7800924e-01
2.4990455e-01
2.1839033e-01
1.8349442e-01
1.4518667e-01
1.0348100e-01
5.8540364e-02
1.0768046e-02
-3.9129678e-02
-9.0120970e-02
-1.4087159e-01
-1.8981245e-01
-2.3524272e-01
-2.7545297e-01
-3.0885001e-01
-3.3406665e-01
-3.5004558e-01
-3.5609328e-01
-3.5190559e-01
-3.3756912e-01
-3.1354400e-01
-2.8063429e-01
-2.3995165e-01
-1.9287623e-01
-1.4101489e-01
-8.6154469e-02
-3.0207044e-02
2.4854666e-02
7.7071877e-02
1.2458297e-01
1.6571212e-01
1.9905771e-01
2.2357247e-01
2.3862624e-01
2.4404259e-01
2.4010357e-01
2.2752030e-01
2.0737156e-01
1.8101619e-01
1.4998787e-01
1.1588369e-01
8.0258743e-02
4.4538720e-02
9.9597971e-03
-2.2458883e-02
-5.1910713e-02
-7.7772086e-02
-9.9559907e-02
-1.1689013e-01
-1.2944956e-01
-1.3698881e-01
-1.3933850e-01
-1.3644488e-01
-1.2841595e-01
-1.1556623e-01
-9.8447926e-02
-7.7859146e-02
-5.4822601e-02
-3.0532174e-02
-6.2687530e-03
1.6707242e-02
3.7272699e-02
5.4549698e-02
6.7986614e-02
7.7400122e-02
8.2973726e-02
8.5215494e-02
8.4882598e-02
8.2883032e-02
8.0165598e-02
7.7608240e-02
7.5913356e-02
7.5518360e-02
7.6530316e-02
7.8693096e-02
8.1393195e-02
8.3706129e-02
8.4481045e-02
8.2457883e-02
7.6409010e-02
6.5294125e-02
4.8413021e-02
2.5537494e-02
-2.9961906e-03
-3.6248718e-02
-7.2700937e-02
-1.1033931e-01
-1.4679674e-01
-1.7953519e-01
-2.0605218e-01
-2.2409129e-01
-2.3183850e-01
-2.2808748e-01
-2.1235988e-01
-1.8496880e-01
-1.4701918e-01
-1.0034482e-01
-4.7388622e-02
8.9628910e-03
6.5576753e-02
1.1928664e-01
1.6710502e-01
2.0641740e-01
2.3514410e-01
2.5185904e-01
2.5585926e-01
2.4718252e-01
2.2657293e-01
1.9539964e-01
1.5553941e-01
1.0923769e-01
5.8962953e-02
7.2657060e-03
-4.3350914e-02
-9.0545384e-02
-1.3223501e-01
-1.6667483e-01
-1.9251725e-01
-2.0885238e-01
-2.1522974e-01
-2.1166294e-01
-1.9861990e-01
-1.7700014e-01
-1.4809969e-01
-1.1356025e-01
-7.5298732e-02
-3.5414868e-02
3.9211421e-03
4.0593966e-02
7.2671613e-02
9.8525965e-02
1.1693502e-01
1.2715871e-01
1.2898343e-01
1.2273381e-01
1.0925224e-01
8.9847148e-02
6.6210861e-02
4.0308678e-02
1.4244233e-02
-9.8907189e-03
-3.0172070e-02
-4.4994161e-02
-5.3204397e-02
-5.4209137e-02
-4.8037990e-02
-3.5355924e-02
-1.7417916e-02
4.0322229e-03
2.6910469e-02
4.8974763e-02
6.8023261e-02
8.2090031e-02
8.9620980e-02
8.9615817e-02
8.1725189e-02
6.6294817e-02
4.4351109e-02
1.7526763e-02
-1.2069350e-02
-4.2027589e-02
-6.9842872e-02
-9.3131351e-02
-1.0983813e-01
-1.1841588e-01
-1.1795702e-01
-1.0826818e-01
-8.9882230e-02
-6.4009475e-02
-3.2433699e-02
2.6371488e-03
3.8751200e-02
7.3405930e-02
1.0423594e-01
1.2917953e-01
1.4661245e-01
1.5544103e-01
1.5514996e-01
1.4580398e-01
1.2800844e-01
1.0283807e-01
7.1745282e-02
3.6458313e-02
-1.1236391e-03
-3.9033026e-02
-7.5331101e-02
-1.0819837e-01
-1.3601878e-01
-1.5745795e-01
-1.7153340e-01
-1.7767274e-01
-1.7575480e-01
-1.6612862e-01
-1.4960465e-01
-1.2741236e-01
-1.0112043e-01
-7.2520698e-02
-4.3484146e-02
-1.5803341e-02
8.9609173e-03
2.9610412e-02
4.5401344e-02
5.6084878e-02
6.1891068e-02
6.3459609e-02
6.1728662e-02
5.7797595e-02
5.2781279e-02
4.7674092e-02
4.3240812e-02
3.9947753e-02
3.7940409e-02
3.7065650e-02
3.6930571e-02
3.6987676e-02
3.6635492e-02
3.5322661e-02
3.2642301e-02
2.8404088e-02
2.2675077e-02
1.5785356e-02
8.2991753e-03
9.5552773e-04
-5.4148613e-03
-9.9861728e-03
-1.2035856e-02
-1.1033226e-02
-6.7091933e-03
8.9937695e-04
1.1435349e-02
2.4239621e-02
3.8400831e-02
5.2830301e-02
6.6352223e-02
7.7798078e-02
8.6095950e-02
9.0348151e-02
8.9893516e-02
8.4353077e-02
7.3658928e-02
5.8066040e-02
3.8146007e-02
1.4761264e-02
-1.0980906e-02
-3.7793311e-02
-6.4288905e-02
-8.9070014e-02
-1.1081943e-01
-1.2838572e-01
-1.4085565e-01
-1.4760842e-01
-1.4834877e-01
-1.4311818e-01
-1.3228488e-01
-1.1651377e-01
-9.6718327e-02
-7.3997926e-02
-4.9564840e-02
-2.4665665e-02
-5.0163434e-04
2.1846952e-02
4.1485347e-02
5.7750281e-02
7.0231256e-02
7.8765490e-02
8.3409402e-02
8.4392616e-02
8.2062296e-02
7.6826807e-02
6.9108033e-02
5.9309939e-02
4.7806954e-02
3.4950887e-02
2.1091252e-02
6.6016977e-03
-8.0955551e-03
-2.2515316e-02
-3.6111573e-02
-4.8299283e-02
-5.8493982e-02
-6.6162917e-02
-7.0878977e-02
-7.2368453e-02
-7.0544735e-02
-6.5521831e-02
-5.7604660e-02
-4.7257465e-02
-3.5056252e-02
-2.1633422e-02
-7.6219704e-03
6.3953979e-03
1.9927958e-02
3.2605157e-02
4.4187415e-02
5.4557953e-02
6.3697540e-02
7.1647157e-02
7.8464984e-02
8.4184454e-02
8.8780164e-02
9.2148323e-02
9.4106718e-02
9.4415411e-02
9.2814972e-02
8.9076156e-02
8.3053566e-02
7.4734826e-02
6.4275856e-02
5.2013274e-02
3.8448501e-02
2.4204308e-02
9.9611303e-03
-3.6150874e-03
-1.5940848e-02
-2.6568483e-02
-3.5218851e-02
-4.1792251e-02
-4.6360900e-02
-4.9148865e-02
-5.0505214e-02
-5.0873913e-02
-5.0761464e-02
-5.0702046e-02
-5.1220306e-02
-5.2792947e-02
-5.5810955e-02
-6.0544520e-02
-6.7112751e-02
-7.5460079e-02
-8.5340539e-02
-9.6310377e-02
-1.0772981e-01
-1.1877621e-01
-1.2847225e-01
-1.3573240e-01
-1.3942923e-01
-1.3847841e-01
-1.3193783e-01
-1.1911331e-01
-9.9659937e-02
-7.3666900e-02
-4.1713731e-02
-4.8885442e-03
3.5238580e-02
7.6690269e-02
1.1720316e-01
1.5438827e-01
1.8591678e-01
2.0971334e-01
2.2413763e-01
2.2813616e-01
2.2134855e-01
2.0415609e-01
1.7766535e-01
1.4362637e-01
1.0429318e-01
6.2241056e-02
2.0159125e-02
-1.9362278e-02
-5.4031047e-02
-8.2022503e-02
-1.0210408e-01
-1.1370501e-01
-1.1692551e-01
-1.1248486e-01
-1.0161382e-01
-8.5902372e-02
-6.7119809e-02
-4.7027600e-02
-2.7206256e-02
-8.9154781e-03
6.9975059e-03
2.0132791e-02
3.0515333e-02
3.8523165e-02
4.4780878e-02
5.0035959e-02
5.5034869e-02
6.0412709e-02
6.6606405e-02
7.3797353e-02
8.1885499e-02
9.0493063e-02
9.8993265e-02
1.0655791e-01
1.1221814e-01
1.1493417e-01
1.1367153e-01
1.0748176e-01
9.5584354e-02
7.7446188e-02
5.2853367e-02
2.1969320e-02
-1.4628007e-02
-5.5936404e-02
-1.0055123e-01
-1.4672004e-01
-1.9242886e-01
-2.3551660e-01
-2.7381031e-01
-3.0527029e-01
-3.2813171e-01
-3.4103018e-01
-3.4310124e-01
-3.3404588e-01
-3.1415601e-01
-2.8429520e-01
-2.4583276e-01
-2.0053355e-01
-1.5041111e-01
-9.7557750e-02
-4.3970159e-02
8.6071054e-03
5.8799389e-02
1.0566560e-01
1.4870145e-01
1.8778492e-01
2.2307396e-01
2.5487266e-01
2.8348636e-01
3.0908791e-01
3.3161493e-01
3.5071126e-01
3.6571888e-01
3.7571993e-01
3.7962385e-01
3.7629058e-01
3.6467610e-01
3.4398372e-01
3.1380316e-01
2.7422037e-01
2.2588320e-01
1.7001155e-01
1.0834609e-01
4.3037098e-02
-2.3515286e-02
-8.8849573e-02
-1.5063403e-01
-2.0683362e-01
-2.5583134e-01
-2.9649256e-01
-3.2817222e-01
-3.5067416e-01
-3.6417655e-01
-3.6913780e-01
-3.6619585e-01
-3.5607234e-01
-3.3949312e-01
-3.1713504e-01
-2.8960481e-01
-2.5744998e-01
-2.2119610e-01
-1.8140064e-01
-1.3871184e-01
-9.3920448e-02
-4.7992870e-02
-2.0763263e-03
4.2529273e-02
8.4433032e-02
1.2224253e-01
1.5466966e-01
1.8063803e-01
1.9937675e-01
2.1048907e-01
2.1398893e-01
2.1030320e-01
2.0024058e-01
1.8493001e-01
1.6573414e-01
1.4414616e-01
1.2168089e-01
9.9771707e-02
7.9682919e-02
6.2443497e-02
4.8804927e-02
3.9222922e-02
3.3860184e-02
3.2604838e-02
3.5098295e-02
4.0767655e-02
4.8860194e-02
5.8479156e-02
6.8620270e-02
7.8208420e-02
8.6134734e-02
9.1295580e-02
9.2635053e-02
8.9191350e-02
8.0146489e-02
6.4879011e-02
4.3019408e-02
1.4506400e-02
-2.0360946e-02
-6.0882722e-02
-1.0593690e-01
-1.5398298e-01
-2.0309407e-01
-2.5101908e-01
-2.9527511e-01
-3.3326858e-01
-3.6244090e-01
-3.8043220e-01
-3.8525347e-01
-3.7545487e-01
-3.5027538e-01
-3.0975797e-01
-2.5481588e-01
-1.8723886e-01
-1.0963268e-01
-2.5290541e-02
6.1998245e-02
1.4818839e-01
2.2924545e-01
3.0141224e-01
3.6144898e-01
4.0682669e-01
4.3586113e-01
4.4778164e-01
4.4273568e-01
4.2173440e-01
3.8654801e-01
3.3956124e-01
2.8360010e-01
2.2174155e-01
1.5711879e-01
9.2735462e-02
3.1300976e-02
-2.4902539e-02
-7.4114809e-02
-1.1514968e-01
-1.4740471e-01
-1.7083109e-01
-1.8586950e-01
-1.9335906e-01
-1.9442740e-01
-1.9036991e-01
-1.8252764e-01
-1.7217418e-01
-1.6042085e-01
-1.4814663e-01
-1.3595584e-01
-1.2416453e-01
-1.1281503e-01
-1.0171669e-01
-9.0508559e-02
-7.8738352e-02
-6.5951677e-02
-5.1784931e-02
-3.6053958e-02
-1.8828186e-02
-4.7907555e-04
1.8306483e-02
3.6553089e-02
5.3064279e-02
6.6525610e-02
7.5634005e-02
7.9240575e-02
7.6492279e-02
6.6957901e-02
5.0725532e-02
2.8461109e-02
1.4196300e-03
-2.8596884e-02
-5.9336227e-02
-8.8242692e-02
-1.1264218e-01
-1.2995051e-01
-1.3788868e-01
-1.3468894e-01
-1.1927580e-01
-9.1406647e-02
-5.1758050e-02
-1.9462132e-03
5.5526322e-02
1.1740057e-01
1.7986339e-01
2.3880996e-01
2.9014656e-01
3.3010807e-01
3.5556229e-01
3.6427297e-01
3.5509600e-01
3.2808707e-01
2.8450725e-01
2.2672370e-01
1.5801511e-01
8.2303082e-02
3.8382091e-03
-7.3126557e-02
-1.4464372e-01
-2.0733418e-01
-2.5858709e-01
-2.9668625e-01
-3.2085956e-01
-3.3125306e-01
-3.2883664e-01
-3.1525335e-01
-2.9262850e-01
-2.6335801e-01
-2.2989602e-01
-1.9456108e-01
-1.5937728e-01
-1.2596140e-01
-9.5460930e-02
-6.8541392e-02
-4.5416163e-02
-2.5909296e-02
-9.5398246e-03
4.3843544e-03
1.6674055e-02
2.8176110e-02
3.9704952e-02
5.1989568e-02
6.5634723e-02
8.1093764e-02
9.8648718e-02
1.1839248e-01
1.4020958e-01
1.6375639e-01
1.8844588e-01
2.1344376e-01
2.3768134e-01
2.5988813e-01
2.7864599e-01
2.9246570e-01
2.9988457e-01
2.9957955e-01
2.9048543e-01
2.7190550e-01
2.4360232e-01
2.0585803e-01
1.5949607e-01
1.0585876e-01
4.6739420e-02
-1.5726907e-02
-7.9205328e-02
-1.4132233e-01
-1.9982998e-01
-2.5275470e-01
-2.9851313e-01
-3.3598248e-01
-3.6452078e-01
-3.8394045e-01
-3.9444522e-01
-3.9654285e-01
-3.9094667e-01
-3.7847796e-01
-3.5997956e-01
-3.3624874e-01
-3.0799320e-01
-2.7581031e-01
-2.4018787e-01
-2.0152352e-01
-1.6015933e-01
-1.1642633e-01
-7.0692668e-02
-2.3408313e-02
2.4860667e-02
7.3414892e-02
1.2142734e-01
1.6797485e-01
2.1209321e-01
2.5284787e-01
2.8940820e-01
3.2111233e-01
3.4751109e-01
3.6838263e-01
3.8371416e-01
3.9365297e-01
3.9843546e-01
3.9830688e-01
3.9344642e-01
3.8391080e-01
3.6960761e-01
3.5030439e-01
3.2567387e-01
2.9536939e-01
2.5911964e-01
2.1682986e-01
1.6867540e-01
1.1517371e-01
5.7221622e-02
-3.9109418e-03
-6.6633720e-02
-1.2913194e-01
-1.8949608e-01
-2.4587158e-01
-2.9660999e-01
-3.4040095e-01
-3.7636601e-01
-4.0410117e-01
-4.2366340e-01
-4.3550452e-01
-4.4036247e-01
-4.3912470e-01
-4.3268160e-01
-4.2178881e-01
-4.0695651e-01
-3.8838038e-01
-3.6592413e-01
-3.3915848e-01
-3.0745553e-01
-2.7013035e-01
-2.2661312e-01
-1.7662851e-01
-1.2035550e-01
-5.8542110e-02
7.4455896e-03
7.5653242e-02
1.4365000e-01
2.0871383e-01
2.6806939e-01
3.1914805e-01
3.5983583e-01
3.8867907e-01
4.0502462e-01
4.0907953e-01
4.0188337e-01
3.8519568e-01
3.6131121e-01
3.3282360e-01
3.0236312e-01
2.7233589e-01
2.4469185e-01
2.2074737e-01
2.0108292e-01
1.8552760e-01
1.7323077e-01
1.6280970e-01
1.5255311e-01
1.4065484e-01
1.2544897e-01
1.0561837e-01
8.0352719e-02
4.9439611e-02
1.3281522e-02
-2.7157999e-02
-7.0466712e-02
-1.1493611e-01
-1.5873305e-01
-2.0007076e-01
-2.3736297e-01
-2.6934795e-01
-2.9517296e-01
-3.1443208e-01
-3.2715466e-01
-3.3374576e-01
-3.3488563e-01
-3.3140072e-01
-3.2412387e-01
-3.1376348e-01
-3.0080075e-01
-2.8542955e-01
-2.6754756e-01
-2.4679983e-01
-2.2266895e-01
-1.9459861e-01
-1.6213180e-01
-1.2504241e-01
-8.3440475e-02
-3.7837044e-02
1.0837968e-02
6.1264849e-02
1.1180580e-01
1.6061201e-01
2.0575622e-01
2.4537854e-01
2.7783197e-01
3.0181420e-01
3.1647424e-01
3.2148387e-01
3.1706756e-01
3.0398813e-01
2.8349037e-01
2.5720843e-01
2.2704481e-01
1.9502958e-01
1.6316930e-01
1.3329632e-01
1.0693059e-01
8.5165412e-02
6.8586282e-02
5.7229747e-02
5.0586768e-02
4.7652971e-02
4.7024261e-02
4.7031265e-02
4.5901185e-02
4.1932113e-02
3.3663126e-02
2.0023188e-02
4.4322390e-04
-2.5080417e-02
-5.5976446e-02
-9.1141112e-02
-1.2902514e-01
-1.6775473e-01
-2.0527490e-01
-2.3950275e-01
-2.6847794e-01
-2.9049954e-01
-3.0424058e-01
-3.0883479e-01
-3.0393034e-01
-2.8970657e-01
-2.6685149e-01
-2.3650045e-01
-2.0014018e-01
-1.5948473e-01
-1.1633340e-01
-7.2424327e-02
-2.9300255e-02
1.1797109e-02
4.9991123e-02
8.4785477e-02
1.1603008e-01
1.4384313e-01
1.6850098e-01
1.9031291e-01
2.0950073e-01
2.2610184e-01
2.3990901e-01
2.5045367e-01
2.5703423e-01
2.5878647e-01
2.5478874e-01
2.4419048e-01
2.2634970e-01
2.0096289e-01
1.6817139e-01
1.2862897e-01
8.3518763e-02
3.4512348e-02
-1.6328715e-02
-6.6700398e-02
-1.1423638e-01
-1.5669878e-01
-1.9215544e-01
-2.1912211e-01
-2.3665499e-01
-2.4438751e-01
-2.4251407e-01
-2.3172873e-01
-2.1313014e-01
-1.8810554e-01
-1.5820676e-01
-1.2503039e-01
-9.0110897e-02
-5.4831664e-02
-2.0357810e-02
1.2405011e-02
4.2821458e-02
7.0505639e-02
9.5272246e-02
1.1706783e-01
1.3589274e-01
1.5172491e-01
1.6445721e-01
1.7385884e-01
1.7956821e-01
1.8111863e-01
1.7799268e-01
1.6969758e-01
1.5585259e-01
1.3627851e-01
1.1107729e-01
8.0689565e-02
4.5918866e-02
7.9162059e-03
-3.1875572e-02
-7.1812211e-02
-1.1016239e-01
-1.4523154e-01
-1.7547967e-01
-1.9962067e-01
-2.1669605e-01
-2.2612114e-01
-2.2770474e-01
-2.2164315e-01
-2.0848934e-01
-1.8909920e-01
-1.6455997e-01
-1.3610750e-01
-1.0503958e-01
-7.2632195e-02
-4.0064484e-02
-8.3579033e-03
2.1666382e-02
4.9410266e-02
7.4501657e-02
9.6778096e-02
1.1625162e-01
1.3305726e-01
1.4739078e-01
1.5944400e-01
1.6934651e-01
1.7712081e-01
1.8265571e-01
1.8570045e-01
1.8588009e-01
1.8272999e-01
1.7574560e-01
1.6444340e-01
1.4842867e-01
1.2746579e-01
1.0154527e-01
7.0941750e-02
3.6255877e-02
-1.5667847e-03
-4.1247300e-02
-8.1220719e-02
-1.1972018e-01
-1.5489197e-01
-1.8493019e-01
-2.0821639e-01
-2.2345024e-01
-2.2975823e-01
-2.2677060e-01
-2.1465941e-01
-1.9413478e-01
-1.6639961e-01
-1.3306693e-01
-9.6045659e-02
-5.7402697e-02
-1.9211144e-02
1.6602902e-02
4.8400527e-02
7.4943197e-02
9.5467782e-02
1.0971653e-01
1.1791967e-01
1.2073304e-01
1.1913826e-01
1.1431684e-01
1.0751281e-01
9.9898016e-02
9.2453779e-02
8.5879296e-02
8.0534333e-02
7.6419441e-02
7.3193243e-02
7.0223579e-02
6.6667918e-02
6.1577355e-02
5.4016456e-02
4.3188347e-02
2.8552242e-02
9.9203729e-03
-1.2477269e-02
-3.7969607e-02
-6.5468327e-02
-9.3539453e-02
-1.2051677e-01
-1.4464525e-01
-1.6423899e-01
-1.7783688e-01
-1.8433997e-01
-1.8311535e-01
-1.7405458e-01
-1.5757885e-01
-1.3459060e-01
-1.0637876e-01
-7.4491373e-02
-4.0593490e-02
-6.3291522e-03
2.6796195e-02
5.7502501e-02
8.4787853e-02
1.0794925e-01
1.2657523e-01
1.4051397e-01
1.4982064e-01
1.5469130e-01
1.5539361e-01
1.5220701e-01
1.4538350e-01
1.3513598e-01
1.2165562e-01
1.0515323e-01
8.5914266e-02
6.4353772e-02
4.1057716e-02
1.6799873e-02
-7.4721072e-03
-3.0683476e-02
-5.1709221e-02
-6.9472826e-02
-8.3053710e-02
-9.1787370e-02
-9.5343275e-02
-9.3769639e-02
-8.7499392e-02
-7.7316592e-02
-6.4286820e-02
-4.9658807e-02
-3.4747196e-02
-2.0807888e-02
-8.9181158e-03
1.2650780e-04
5.8865598e-03
8.3159615e-03
7.7566709e-03
4.8907256e-03
6.5412307e-04
-3.8787021e-03
-7.6269932e-03
-9.6363893e-03
-9.1954872e-03
-5.9220270e-03
1.9065353e-04
8.7709292e-03
1.9109099e-02
3.0234858e-02
4.1021792e-02
5.0305565e-02
5.7002150e-02
6.0214878e-02
5.9322293e-02
5.4040990e-02
4.4458635e-02
3.1033589e-02
1.4559939e-02
-3.9001049e-03
-2.3111215e-02
-4.1779133e-02
-5.8672831e-02
-7.2740929e-02
-8.3207885e-02
-8.9637896e-02
-9.1959820e-02
-9.0452423e-02
-8.5693932e-02
-7.8483142e-02
-6.9741739e-02
-6.0409013e-02
-5.1339863e-02
-4.3214797e-02
-3.6468175e-02
-3.1239771e-02
-2.7354850e-02
-2.4337438e-02
-2.1458849e-02
-1.7819424e-02
-1.2457415e-02
-4.4753861e-03
6.8286495e-03
2.1841033e-02
4.0539868e-02
6.2444379e-02
8.6615049e-02
1.1170668e-01
1.3607052e-01
1.5789660e-01
1.7538226e-01
1.8690795e-01
1.9119892e-01
1.8745218e-01
1.7541402e-01
1.5540121e-01
1.2826663e-01
9.5316768e-02
5.8193565e-02
1.8736117e-02
-2.1161063e-02
-5.9678467e-02
-9.5179291e-02
-1.2628700e-01
-1.5192939e-01
-1.7135015e-01
-1.8409334e-01
-1.8996976e-01
-1.8901514e-01
-1.8144823e-01
-1.6763411e-01
-1.4805566e-01
-1.2329431e-01
-9.4019444e-02
-6.0984550e-02
-2.5027849e-02
1.2924201e-02
5.1851791e-02
9.0637073e-02
1.2806305e-01
1.6281970e-01
1.9352092e-01
2.1873564e-01
2.3703611e-01
2.4706457e-01
2.4761589e-01
2.3773010e-01
2.1678709e-01
1.8459575e-01
1.4146984e-01
8.8282065e-02
2.6486667e-02
-4.1898039e-02
-1.1435214e-01
-1.8796143e-01
-2.5956418e-01
-3.2592719e-01
-3.8393695e-01
-4.3078915e-01
-4.6416050e-01
-4.8235013e-01
-4.8438222e-01
-4.7006414e-01
-4.3999535e-01
-3.9552348e-01
-3.3864659e-01
-2.7186534e-01
-1.9799402e-01
-1.1994612e-01
-4.0515739e-02
3.7819693e-02
1.1305070e-01
1.8372263e-01
2.4894956e-01
3.0835750e-01
3.6196814e-01
4.1004054e-01
4.5289273e-01
4.9072793e-01
5.2348997e-01
5.5076882e-01
5.7177004e-01
5.8535317e-01
5.9013572e-01
5.8465149e-01
5.6754440e-01
5.3777235e-01
4.9479336e-01
4.3870765e-01
3.7033464e-01
2.9121143e-01
2.0350820e-01
1.0986792e-01
1.3190797e-02
-8.3605606e-02
-1.7781489e-01
-2.6712736e-01
-3.4975049e-01
-4.2445328e-01
-4.9053519e-01
-5.4773003e-01
-5.9606521e-01
-6.3570140e-01
-6.6677956e-01
-6.8929824e-01
-7.0303819e-01
-7.0754388e-01
-7.0216367e-01
-6.8614304e-01
-6.5875876e-01
-6.1947672e-01
-5.6811259e-01
-5.0497213e-01
-4.3094697e-01
-3.4754470e-01
-2.5683899e-01
-1.6133685e-01
-6.3774206e-02
3.3134500e-02
1.2695497e-01
2.1575690e-01
2.9826435e-01
3.7390713e-01
4.4276523e-01
5.0541572e-01
5.6270401e-01
6.1546994e-01
6.6426404e-01
7.0909191e-01
7.4922365e-01
7.8309946e-01
8.0835339e-01
8.2196415e-01
8.2052754e-01
8.0062897e-01
7.5927895e-01
6.9436270e-01
6.0504819e-01
4.9209805e-01
3.5803746e-01
2.0714411e-01
4.5245088e-02
-1.2066875e-01
-2.8297208e-01
-4.3401489e-01
-5.6673745e-01
-6.7521903e-01
-7.5510386e-01
-8.0386858e-01
-8.2091699e-01
-8.0750876e-01
-7.6654582e-01
-7.0225138e-01
-6.1978207e-01
-5.2481350e-01
-4.2313631e-01
-3.2029385e-01
-2.2128407e-01
-1.3033765e-01
-5.0774914e-02
1.5062964e-02
6.5817054e-02
1.0105976e-01
1.2120453e-01
1.2739169e-01
1.2136422e-01
1.0534246e-01
8.1902238e-02
5.3856639e-02
2.4139273e-02
-4.3142275e-03
-2.8689932e-02
-4.6426502e-02
-5.5352022e-02
-5.3821125e-02
-4.0842071e-02
-1.6179937e-02
1.9579277e-02
6.5017360e-02
1.1793519e-01
1.7547008e-01
2.3427500e-01
2.9074807e-01
3.4129437e-01
3.8259740e-01
4.1187503e-01
4.2709483e-01
4.2712737e-01
4.1182305e-01
3.8200645e-01
3.3939015e-01
2.8641618e-01
2.2603940e-01
1.6147320e-01
9.5923067e-02
3.2335567e-02
-2.6812724e-02
-7.9667369e-02
-1.2507806e-01
-1.6260720e-01
-1.9247007e-01
-2.1541778e-01
-2.3257894e-01
-2.4527814e-01
-2.5485169e-01
-2.6248166e-01
-2.6906586e-01
-2.7513545e-01
-2.8082326e-01
-2.8587938e-01
-2.8972610e-01
-2.9154270e-01
-2.9036875e-01
-2.8521461e-01
-2.7516919e-01
-2.5949689e-01
-2.3771755e-01
-2.0966331e-01
-1.7550760e-01
-1.3576328e-01
-9.1251427e-02
-4.3046306e-02
7.5956357e-03
5.9313632e-02
1.1071852e-01
1.6045862e-01
2.0726993e-01
2.5000864e-01
2.8766851e-01
3.1938822e-01
3.4445377e-01
3.6230005e-01
3.7251385e-01
3.7483968e-01
3.6918884e-01
3.5565110e-01
3.3450648e-01
3.0623346e-01
2.7150970e-01
2.3120111e-01
1.8633653e-01
1.3806656e-01
8.7609353e-02
3.6190170e-02
-1.5015443e-02
-6.4926512e-02
-1.1258505e-01
-1.5716758e-01
-1.9798161e-01
-2.3445008e-01
-2.6608766e-01
-2.9247364e-01
-3.1322543e-01
-3.2797652e-01
-3.3636272e-01
-3.3802060e-01
-3.3260166e-01
-3.1980293e-01
-2.9941193e-01
-2.7136213e-01
-2.3579408e-01
-1.9311758e-01
-1.4406854e-01
-8.9751758e-02
-3.1658573e-02
2.8351738e-02
8.8113861e-02
1.4526226e-01
1.9737374e-01
2.4213298e-01
2.7750278e-01
3.0187993e-01
3.1421950e-01
3.1411495e-01
3.0182685e-01
2.7825841e-01
2.4488143e-01
2.0362130e-01
1.5671367e-01
1.0654664e-01
5.5502352e-02
5.8096841e-03
-4.0582356e-02
-8.2102954e-02
-1.1762417e-01
-1.4648866e-01
-1.6849938e-01
-1.8387228e-01
-1.9315617e-01
-1.9712736e-01
-1.9667053e-01
-1.9265945e-01
-1.8585085e-01
-1.7680295e-01
-1.6582604e-01
-1.5296918e-01
-1.3804188e-01
-1.2066641e-01
-1.0035353e-01
-7.6594476e-02
-4.8962290e-02
-1.7214610e-02
1.8612425e-02
5.8130813e-02
1.0055814e-01
1.4471224e-01
1.8904533e-01
2.3171667e-01
2.7070067e-01
3.0392359e-01
3.2941738e-01
3.4547497e-01
3.5079019e-01
3.4456823e-01
3.2659686e-01
2.9727266e-01
2.5758042e-01
2.0902807e-01
1.5354389e-01
9.3345992e-02
3.0795416e-02
-3.1754754e-02
-9.2101394e-02
-1.4831122e-01
-1.9880778e-01
-2.4241971e-01
-2.7839001e-01
-3.0635012e-01
-3.2626565e-01
-3.3836304e-01
-3.4304912e-01
-3.4083660e-01
-3.3228585e-01
-3.1796934e-01
-2.9845895e-01
-2.7433242e-01
-2.4619144e-01
-2.1468213e-01
-1.8050853e-01
-1.4443219e-01
-1.0725508e-01
-6.9787391e-02
-3.2804080e-02
3.0042472e-03
3.7078538e-02
6.9027000e-02
9.8639969e-02
1.2587849e-01
1.5083754e-01
1.7369077e-01
1.9462633e-01
2.1378277e-01
2.3119207e-01
2.4673474e-01
2.6011119e-01
2.7083266e-01
2.7823449e-01
2.8151392e-01
2.7979301e-01
2.7220391e-01
2.5798965e-01
2.3660951e-01
2.0783707e-01
1.7183996e-01
1.2923249e-01
8.1094790e-02
2.8954387e-02
-2.5270041e-02
-7.9359966e-02
-1.3091783e-01
-1.7751044e-01
-2.1682647e-01
-2.4683834e-01
-2.6595692e-01
-2.7316695e-01
-2.6813030e-01
-2.5124482e-01
-2.2364870e-01
-1.8716407e-01
-1.4418054e-01
-9.7486655e-02
-5.0064406e-02
-4.8656797e-03
3.5408385e-02
6.8505078e-02
9.2777102e-02
1.0728545e-01
1.1184036e-01
1.0697846e-01
9.3879595e-02
7.4231905e-02
5.0057555e-02
2.3516104e-02
-3.2941668e-03
-2.8514739e-02
-5.0665091e-02
-6.8726743e-02
-8.2167257e-02
-9.0906200e-02
-9.5232060e-02
-9.5684826e-02
-9.2922585e-02
-8.7591405e-02
-8.0216368e-02
-7.1128326e-02
-6.0435607e-02
-4.8042547e-02
-3.3708834e-02
-1.7137604e-02
1.9224208e-03
2.3574886e-02
4.7686176e-02
7.3819265e-02
1.0120091e-01
1.2872912e-01
1.5502205e-01
1.7850354e-01
1.9751586e-01
2.1044957e-01
2.1587924e-01
2.1269370e-01
2.0020848e-01
1.7824976e-01
1.4720209e-01
1.0801588e-01
6.2173084e-02
1.1612550e-02
-4.1380815e-02
-9.4315020e-02
-1.4464740e-01
-1.8994590e-01
-2.2804200e-01
-2.5716245e-01
-2.7602871e-01
-2.8391670e-01
-2.8067432e-01
-2.6669967e-01
-2.4288496e-01
-2.1053272e-01
-1.7125059e-01
-1.2683308e-01
-7.9139939e-02
-2.9981787e-02
1.8976919e-02
6.6288927e-02
1.1076279e-01
1.5146652e-01
1.8769951e-01
2.1894189e-01
2.4479416e-01
2.6491985e-01
2.7900087e-01
2.8671145e-01
2.8771345e-01
2.8167348e-01
2.6829962e-01
2.4739272e-01
2.1890565e-01
1.8300340e-01
1.4011812e-01
9.0992924e-02
3.6708773e-02
-2.1310973e-02
-8.1321469e-02
-1.4130293e-01
-1.9903012e-01
-2.5216033e-01
-2.9833521e-01
-3.3529279e-01
-3.6098738e-01
-3.7371511e-01
-3.7224073e-01
-3.5591768e-01
-3.2479029e-01
-2.7966614e-01
-2.2214720e-01
-1.5461111e-01
-8.0137306e-02
-2.3770023e-03
7.4629381e-02
1.4667872e-01
2.0966292e-01
2.5984224e-01
2.9411620e-01
3.1027235e-01
3.0719102e-01
2.8498438e-01
2.4505106e-01
1.9003384e-01
1.2367469e-01
5.0569231e-02
-2.4168088e-02
-9.5304948e-02
-1.5792101e-01
-2.0781865e-01
-2.4186495e-01
-2.5822474e-01
-2.5646069e-01
-2.3749453e-01
-2.0344066e-01
-1.5733876e-01
-1.0282261e-01
-4.3767487e-02
1.6044505e-02
7.3208684e-02
1.2490899e-01
1.6904344e-01
2.0426234e-01
2.2992844e-01
2.4601771e-01
2.5298306e-01
2.5160350e-01
2.4283795e-01
2.2769980e-01
2.0716395e-01
1.8211370e-01
1.5332826e-01
1.2150464e-01
8.7302670e-02
5.1398698e-02
1.4533832e-02
-2.2455800e-02
-5.8634591e-02
-9.2990188e-02
-1.2447811e-01
-1.5207915e-01
-1.7486060e-01
-1.9203455e-01
-2.0300752e-01
-2.0741611e-01
-2.0514398e-01
-1.9631894e-01
-1.8129204e-01
-1.6060325e-01
-1.3493940e-01
-1.0509149e-01
-7.1918658e-02
-3.6325190e-02
7.4725518e-04
3.8315105e-02
7.5342669e-02
1.1073359e-01
1.4332994e-01
1.7192312e-01
1.9527874e-01
2.1217580e-01
2.2145929e-01
2.2210416e-01
2.1328833e-01
1.9447109e-01
1.6547106e-01
1.2653634e-01
7.8397266e-02
2.2292834e-02
-4.0036754e-02
-1.0639542e-01
-1.7421520e-01
-2.4067649e-01
-3.0285810e-01
-3.5790623e-01
-4.0320705e-01
-4.3654685e-01
-4.5624447e-01
-4.6124315e-01
-4.5115224e-01
-4.2623381e-01
-3.8733626e-01
-3.3578501e-01
-2.7324653e-01
-2.0158681e-01
-1.2274548e-01
-3.8642771e-02
4.8871754e-02
1.3802816e-01
2.2710988e-01
3.1440444e-01
3.9814603e-01
4.7646546e-01
5.4736174e-01
6.0870697e-01
6.5829220e-01
6.9391595e-01
7.1351008e-01
7.1529262e-01
6.9793336e-01
6.6071627e-01
6.0368094e-01
5.2772396e-01
4.3464259e-01
3.2710739e-01
2.0855832e-01
8.3027705e-02
-4.5095867e-02
-1.7133871e-01
-2.9141697e-01
-4.0148256e-01
-4.9831382e-01
-5.7943657e-01
-6.4317348e-01
-6.8862846e-01
-7.1561775e-01
-7.2456212e-01
-7.1635655e-01
-6.9223424e-01
-6.5364078e-01
-6.0213027e-01
-5.3929154e-01
-4.6670823e-01
-3.8595335e-01
-2.9861424e-01
-2.0633860e-01
-1.1088791e-01
-1.4182539e-02
8.1675907e-02
1.7441606e-01
2.6164792e-01
3.4095334e-01
4.1000844e-01
4.6672305e-01
5.0937831e-01
5.3674314e-01
5.4815487e-01
5.4355548e-01
5.2348202e-01
4.8901634e-01
4.4170459e-01
3.8346005e-01
3.1646242e-01
2.4306388e-01
1.6570814e-01
8.6864012e-02
8.9715972e-03
-6.5604373e-02
-1.3462134e-01
-1.9601344e-01
-2.4795811e-01
-2.8895419e-01
-3.1790483e-01
-3.3419471e-01
-3.3774870e-01
-3.2905848e-01
-3.0916648e-01
-2.7960281e-01
-2.4228005e-01
-1.9935847e-01
-1.5309734e-01
-1.0570657e-01
-5.9209736e-02
-1.5327701e-02
2.4608253e-02
5.9706035e-02
8.9520419e-02
1.1401831e-01
1.3350516e-01
1.4851983e-01
1.5970942e-01
1.6769953e-01
1.7297770e-01
1.7580601e-01
1.7617511e-01
1.7380617e-01
1.6820164e-01
1.5873837e-01
1.4478976e-01
1.2585843e-01
1.0169976e-01
7.2419324e-02
3.8532253e-02
9.7805932e-04
-3.8908955e-02
-7.9468474e-02
-1.1881352e-01
-1.5495148e-01
-1.8591896e-01
-2.0992306e-01
-2.2548040e-01
-2.3154233e-01
-2.2759295e-01
-2.1370631e-01
-1.9055290e-01
-1.5935223e-01
-1.2177563e-01
-7.9810119e-02
-3.5598893e-02
8.7237952e-03
5.1185653e-02
9.0102089e-02
1.2416332e-01
1.5247588e-01
1.7455689e-01
1.9028568e-01
1.9982385e-01
2.0351914e-01
2.0180880e-01
1.9513541e-01
1.8388460e-01
1.6835008e-01
1.4872849e-01
1.2514243e-01
9.7686891e-02
6.6491638e-02
3.1790379e-02
-6.0132456e-03
-4.6292625e-02
-8.8167006e-02
-1.3049900e-01
-1.7192393e-01
-2.1090941e-01
-2.4583923e-01
-2.7511309e-01
-2.9725307e-01
-3.1100757e-01
-3.1544315e-01
-3.1001483e-01
-2.9460677e-01
-2.6953792e-01
-2.3553023e-01
-1.9364135e-01
-1.4517005e-01
-9.1549402e-02
-3.4246925e-02
2.5311730e-02
8.5785396e-02
1.4592435e-01
2.0454603e-01
2.6048888e-01
3.1255795e-01
3.5947831e-01
3.9987099e-01
4.3226195e-01
4.5512732e-01
4.6697301e-01
4.6644256e-01
4.5244377e-01
4.2428191e-01
3.8178468e-01
3.2540363e-01
2.5627827e-01
1.7625187e-01
8.7831481e-02
-5.9115772e-03
-1.0149847e-01
-1.9524689e-01
-2.8350418e-01
-3.6288479e-01
-4.3048631e-01
-4.8406074e-01
-5.2212419e-01
-5.4399583e-01
-5.4976664e-01
-5.4020766e-01
-5.1663479e-01
-4.8074889e-01
-4.3446886e-01
-3.7977341e-01
-3.1856504e-01
-2.5256784e-01
-1.8326600e-01
-1.1188552e-01
-3.9416652e-02
3.3328713e-02
1.0563416e-01
1.7678303e-01
2.4596528e-01
3.1220239e-01
3.7430228e-01
4.3085165e-01
4.8024862e-01
5.2077371e-01
5.5069236e-01
5.6837706e-01
5.7243375e-01
5.6181748e-01
5.3592679e-01
4.9467148e-01
4.3851261e-01
3.6847424e-01
2.8612745e-01
1.9354897e-01
9.3257954e-02
-1.1864488e-02
-1.1867004e-01
-2.2385010e-01
-3.2405310e-01
-4.1600967e-01
-4.9666205e-01
-5.6329326e-01
-6.1365071e-01
-6.4605648e-01
-6.5949421e-01
-6.5366295e-01
-6.2899096e-01
-5.8660790e-01
-5.2827763e-01
-4.5629736e-01
-3.7337092e-01
-2.8246605e-01
-1.8666672e-01
-8.9030656e-02
7.5396715e-03
1.0040647e-01
1.8728075e-01
2.6627558e-01
3.3592482e-01
3.9516759e-01
4.4330461e-01
4.7993669e-01
5.0489801e-01
5.1819654e-01
5.1997210e-01
5.1047837e-01
4.9008980e-01
4.5932830e-01
4.1890074e-01
3.6973577e-01
3.1300849e-01
2.5014250e-01
1.8278185e-01
1.1273241e-01
4.1880763e-02
-2.7894933e-02
-9.4806911e-02
-1.5722205e-01
-2.1370376e-01
-2.6303201e-01
-3.0420573e-01
-3.3643500e-01
-3.5913190e-01
-3.7190845e-01
-3.7458606e-01
-3.6721716e-01
-3.5011482e-01
-3.2388402e-01
-2.8944590e-01
-2.4804598e-01
-2.0123785e-01
-1.5083701e-01
-9.8844174e-02
-4.7342985e-02
1.6188048e-03
4.6152846e-02
8.4646022e-02
1.1585681e-01
1.3898250e-01
1.5369120e-01
1.6011723e-01
1.5882264e-01
1.5072998e-01
1.3703320e-01
1.1909544e-01
9.8343770e-02
7.6171748e-02
5.3858726e-02
3.2511849e-02
1.3033978e-02
-3.8818598e-03
-1.7734181e-02
-2.8178210e-02
-3.4985847e-02
-3.8012653e-02
-3.7180696e-02
-3.2480535e-02
-2.3990529e-02
-1.1907966e-02
3.4161222e-03
2.1448019e-02
4.1456956e-02
6.2520649e-02
8.3551193e-02
1.0333778e-01
1.2060142e-01
1.3405795e-01
1.4248765e-01
1.4481089e-01
1.4016880e-01
1.2800659e-01
1.0815462e-01
8.0899639e-02
4.7035729e-02
7.8837562e-03
-3.4730241e-02
-7.8543326e-02
-1.2097184e-01
-1.5927229e-01
-1.9073868e-01
-2.1292216e-01
-2.2385343e-01
-2.2224509e-01
-2.0765149e-01
-1.8056669e-01
-1.4244557e-01
-9.5639372e-02
-4.3245487e-02
1.1118326e-02
6.3594299e-02
1.1039215e-01
1.4809465e-01
1.7393419e-01
1.8601664e-01
1.8347355e-01
1.6652940e-01
1.3647906e-01
9.5578430e-02
4.6859650e-02
-6.1123304e-03
-5.9520037e-02
-1.0958633e-01
-1.5285483e-01
-1.8643524e-01
-2.0819551e-01
-2.1688873e-01
-2.1220766e-01
-1.9476497e-01
-1.6600259e-01
-1.2803982e-01
-8.3475798e-02
-3.5165069e-02
1.4012961e-02
6.1369786e-02
1.0458908e-01
1.4185812e-01
1.7194128e-01
1.9419559e-01
2.0853397e-01
2.1534443e-01
2.1537508e-01
2.0959727e-01
1.9906181e-01
1.8476575e-01
1.6754646e-01
1.4801601e-01
1.2654335e-01
1.0328540e-01
7.8260406e-02
5.1449657e-02
2.2908532e-02
-7.1333490e-03
-3.8199707e-02
-6.9534439e-02
-1.0011361e-01
-1.2870328e-01
-1.5395831e-01
-1.7455124e-01
-1.8931414e-01
-1.9737333e-01
-1.9825767e-01
-1.9196641e-01
-1.7898848e-01
-1.6027101e-01
-1.3714050e-01
-1.1118591e-01
-8.4117561e-02
-5.7618023e-02
-3.3200192e-02
-1.2086523e-02
4.8784576e-03
1.7272842e-02
2.5095025e-02
2.8717457e-02
2.8806311e-02
2.6220861e-02
2.1907241e-02
1.6800101e-02
1.1743429e-02
7.4383728e-03
4.4211301e-03
3.0685200e-03
3.6242434e-03
6.2360597e-03
1.0993390e-02
1.7955845e-02
2.7165592e-02
3.8639992e-02
5.2345129e-02
6.8154942e-02
8.5803641e-02
1.0484033e-01
1.2459473e-01
1.4416238e-01
1.6241735e-01
1.7805844e-01
1.8969050e-01
1.9593565e-01
1.9556348e-01
1.8762585e-01
1.7158091e-01
1.4739094e-01
1.1558020e-01
7.7242345e-02
3.3992730e-02
-1.2132470e-02
-5.8822744e-02
-1.0367292e-01
-1.4437876e-01
-1.7892716e-01
-2.0575844e-01
-2.2388275e-01
-2.3294054e-01
-2.3320572e-01
-2.2553538e-01
-2.1127384e-01
-1.9212001e-01
-1.6996947e-01
-1.4674407e-01
-1.2422334e-01
-1.0389183e-01
-8.6815959e-02
-7.3562842e-02
-6.4170832e-02
-5.8176734e-02
-5.4697249e-02
-5.2555110e-02
-5.0435050e-02
-4.7051047e-02
-4.1303621e-02
-3.2405237e-02
-1.9955453e-02
-3.9560634e-03
1.5231848e-02
3.6976219e-02
6.0487847e-02
8.4937380e-02
1.0955462e-01
1.3369417e-01
1.5685924e-01
1.7868477e-01
1.9888992e-01
2.1721493e-01
2.3335792e-01
2.4692371e-01
2.5739373e-01
2.6412202e-01
2.6635877e-01
2.6329941e-01
2.5415464e-01
2.3823524e-01
2.1504496e-01
1.8437273e-01
1.4637324e-01
1.0162365e-01
5.1146037e-02
-3.6104185e-03
-6.0827720e-02
-1.1841308e-01
-1.7411954e-01
-2.2568126e-01
-2.7095069e-01
-3.0802709e-01
-3.3536892e-01
-3.5188508e-01
-3.5700087e-01
-3.5069452e-01
-3.3350125e-01
-3.0648360e-01
-2.7116951e-01
-2.2946116e-01
-1.8351912e-01
-1.3562816e-01
-8.8053892e-02
-4.2902161e-02
-1.9943173e-03
3.3230675e-02
6.1780950e-02
8.3141812e-02
9.7273609e-02
1.0458220e-01
1.0586765e-01
1.0225679e-01
9.5123624e-02
8.6000178e-02
7.6479140e-02
6.8110725e-02
6.2298339e-02
6.0199060e-02
6.2635358e-02
7.0024747e-02
8.2334620e-02
9.9069335e-02
1.1929418e-01
1.4169661e-01
1.6468105e-01
1.8649142e-01
2.0535375e-01
2.1962911e-01
2.2796451e-01
2.2942694e-01
2.2360599e-01
2.1067135e-01
1.9137528e-01
1.6699423e-01
1.3921017e-01
1.0993906e-01
