-5.3109887e-03
-6.8892906e-03
-8.4443053e-03
-9.9304953e-03
-1.1310319e-02
-1.2540732e-02
-1.3561435e-02
-1.4299054e-02
-1.4671502e-02
-1.4595697e-02
-1.4009124e-02
-1.2869354e-02
-1.1157849e-02
-8.8979758e-03
-6.1483208e-03
-2.9852005e-03
5.1747269e-04
4.2770705e-03
8.1696104e-03
1.2041877e-02
1.5771854e-02
1.9312622e-02
2.2623777e-02
2.5576964e-02
2.7933230e-02
2.9379894e-02
2.9682587e-02
2.8791279e-02
2.6752097e-02
2.3602783e-02
1.9408136e-02
1.4370338e-02
8.8116216e-03
3.0653591e-03
-2.5817886e-03
-7.9034780e-03
-1.2727715e-02
-1.7009008e-02
-2.0868443e-02
-2.4460758e-02
-2.7801235e-02
-3.0689769e-02
-3.2825629e-02
-3.3948219e-02
-3.3846988e-02
-3.2311598e-02
-2.9068761e-02
-2.3851278e-02
-1.6582748e-02
-7.6119130e-03
2.1183214e-03
1.1312675e-02
1.8793430e-02
2.3765921e-02
2.5804256e-02
2.4788243e-02
2.0988847e-02
1.5039403e-02
7.7926549e-03
2.1553334e-04
-6.8153540e-03
-1.2685092e-02
-1.7027831e-02
-1.9618939e-02
-2.0433344e-02
-1.9771579e-02
-1.8041689e-02
-1.5454339e-02
-1.2006406e-02
-7.7326665e-03
-2.8999435e-03
2.1818529e-03
7.4348593e-03
1.3040112e-02
1.9189154e-02
2.5817272e-02
3.2535031e-02
3.8664311e-02
4.3477026e-02
4.6406106e-02
4.7111516e-02
4.5632479e-02
4.2331063e-02
3.7672919e-02
3.2042790e-02
2.5581019e-02
1.8226244e-02
9.9348165e-03
8.8953624e-04
-8.6234063e-03
-1.8379953e-02
-2.7968258e-02
-3.6676202e-02
-4.3783624e-02
-4.8946033e-02
-5.2330692e-02
-5.4330845e-02
-5.5183535e-02
-5.4875251e-02
-5.3471088e-02
-5.1301948e-02
-4.8604780e-02
-4.5200910e-02
-4.0563721e-02
-3.4237529e-02
-2.6199103e-02
-1.6751488e-02
-6.2218436e-03
5.1969979e-03
1.7257402e-02
2.9487723e-02
4.1348043e-02
5.2308645e-02
6.1860370e-02
6.9577874e-02
7.5153688e-02
7.8329328e-02
7.8859309e-02
7.6711134e-02
7.1999234e-02
6.4654502e-02
5.4352200e-02
4.0658486e-02
2.3359015e-02
2.8371041e-03
-1.9663733e-02
-4.2163547e-02
-6.2522608e-02
-7.8939775e-02
-9.0206773e-02
-9.5706142e-02
-9.5321446e-02
-8.9471043e-02
-7.8978977e-02
-6.4907840e-02
-4.8572460e-02
-3.1526676e-02
-1.5245625e-02
-6.5502297e-04
1.1892682e-02
2.2290805e-02
3.0419685e-02
3.6174174e-02
3.9769334e-02
4.1820726e-02
4.3110422e-02
4.4183172e-02
4.5068946e-02
4.5494045e-02
4.5157793e-02
4.3821415e-02
4.1237680e-02
3.7145300e-02
3.1617245e-02
2.5209775e-02
1.8715756e-02
1.2823159e-02
7.8744079e-03
3.9472257e-03
1.0112955e-03
-1.0303965e-03
-2.5047330e-03
-4.1138128e-03
-6.6452341e-03
-1.0624705e-02
-1.6136512e-02
-2.2868142e-02
-3.0410807e-02
-3.8321880e-02
-4.5888417e-02
-5.2001037e-02
-5.5432224e-02
-5.5272569e-02
-5.1169080e-02
-4.3511734e-02
-3.3460462e-02
-2.2669198e-02
-1.2789066e-02
-4.9493983e-03
4.7823991e-04
3.8858721e-03
6.1486203e-03
8.1817463e-03
1.0694459e-02
1.4076479e-02
1.8384841e-02
2.3297198e-02
2.8134271e-02
3.2138177e-02
3.4723211e-02
3.5703437e-02
3.5350440e-02
3.4112790e-02
3.2280237e-02
2.9785695e-02
2.6227783e-02
2.0928378e-02
1.3099349e-02
2.3031759e-03
-1.1123220e-02
-2.5917547e-02
-4.0207967e-02
-5.2159229e-02
-6.0458159e-02
-6.4428935e-02
-6.3817070e-02
-5.8639217e-02
-4.9223742e-02
-3.6273872e-02
-2.0823292e-02
-3.9309324e-03
1.3464604e-02
3.0417187e-02
4.5936904e-02
5.9147563e-02
6.9601482e-02
7.7251582e-02
8.2029058e-02
8.3557644e-02
8.1248981e-02
7.4754602e-02
6.4196669e-02
4.9989869e-02
3.2732187e-02
1.3439829e-02
-6.1791233e-03
-2.4206039e-02
-3.9358926e-02
-5.1198336e-02
-5.9796710e-02
-6.5364327e-02
-6.8145158e-02
-6.8471954e-02
-6.6782954e-02
-6.3547848e-02
-5.9048567e-02
-5.3303205e-02
-4.6160667e-02
-3.7460139e-02
-2.7211452e-02
-1.5604231e-02
-3.0649434e-03
9.6382701e-03
2.1469224e-02
3.1404220e-02
3.8844644e-02
4.3692881e-02
4.6067288e-02
4.6069993e-02
4.3824634e-02
3.9748824e-02
3.4566884e-02
2.8953549e-02
2.3252639e-02
1.7592978e-02
1.2185547e-02
7.2581686e-03
2.8436531e-03
-1.1970396e-03
-5.0089910e-03
-8.5896699e-03
-1.1852447e-02
-1.4751377e-02
-1.7322636e-02
-1.9640496e-02
-2.1686593e-02
-2.3351830e-02
-2.4483153e-02
-2.5044482e-02
-2.5275326e-02
-2.5368357e-02
-2.5106839e-02
-2.3960091e-02
-2.1530398e-02
-1.7865702e-02
-1.3233097e-02
-7.8109994e-03
-1.7145342e-03
4.7221274e-03
1.0823651e-02
1.5855858e-02
1.9296743e-02
2.0944616e-02
2.0842926e-02
1.9182408e-02
1.6462955e-02
1.3503312e-02
1.1125383e-02
9.7744422e-03
9.3360568e-03
9.3707169e-03
9.5538725e-03
9.9508408e-03
1.0821242e-02
1.2227988e-02
1.4002865e-02
1.5914415e-02
1.7773579e-02
1.9369120e-02
2.0343131e-02
2.0274634e-02
1.8919648e-02
1.6386266e-02
1.2924286e-02
8.6305593e-03
3.5821915e-03
-1.9477840e-03
-7.5268871e-03
-1.2825722e-02
-1.7764809e-02
-2.2356861e-02
-2.6540033e-02
-3.0005986e-02
-3.2227158e-02
-3.2846568e-02
-3.1975771e-02
-3.0043943e-02
-2.7362632e-02
-2.4090296e-02
-2.0513004e-02
-1.7021605e-02
-1.3896764e-02
-1.1106125e-02
-8.3613384e-03
-5.4274604e-03
-2.2752020e-03
1.0185726e-03
4.3784343e-03
7.5630692e-03
1.0109907e-02
1.1597378e-02
1.1817286e-02
1.0915488e-02
9.4178897e-03
8.0098279e-03
7.2832510e-03
7.6172626e-03
9.2414299e-03
1.2165048e-02
1.6044391e-02
2.0324140e-02
2.4480450e-02
2.8133612e-02
3.0941716e-02
3.2536177e-02
3.2588338e-02
3.0868838e-02
2.7357749e-02
2.2161855e-02
1.5374027e-02
7.1793444e-03
-2.0102455e-03
-1.1569432e-02
-2.0835570e-02
-2.9176008e-02
-3.6019980e-02
-4.1061617e-02
-4.4303371e-02
-4.5904236e-02
-4.5992299e-02
-4.4636765e-02
-4.1965589e-02
-3.8111455e-02
-3.3132537e-02
-2.6988894e-02
-1.9555970e-02
-1.0806315e-02
-1.0064236e-03
9.2837628e-03
1.9421714e-02
2.8808592e-02
3.6976232e-02
4.3784648e-02
4.9365186e-02
5.3885367e-02
5.7356212e-02
5.9558289e-02
6.0173142e-02
5.8838691e-02
5.5183083e-02
4.8962870e-02
4.0235215e-02
2.9485032e-02
1.7421349e-02
4.6938442e-03
-8.2200291e-03
-2.1032538e-02
-3.3548380e-02
-4.5615480e-02
-5.7064580e-02
-6.7639743e-02
-7.6921744e-02
-8.4190956e-02
-8.8523569e-02
-8.9079611e-02
-8.5436566e-02
-7.7724726e-02
-6.6376668e-02
-5.1940773e-02
-3.5241299e-02
-1.7753631e-02
-1.4750161e-03
1.1998667e-02
2.2125354e-02
2.9315766e-02
3.4407232e-02
3.8091423e-02
4.0755347e-02
4.2731073e-02
4.4526956e-02
4.6674353e-02
4.9495918e-02
5.3079614e-02
5.7272243e-02
6.1756234e-02
6.6027122e-02
6.9286479e-02
7.0586412e-02
6.9120634e-02
6.4528030e-02
5.6923609e-02
4.6631577e-02
3.3985640e-02
1.9361273e-02
3.4657055e-03
-1.2634265e-02
-2.7980207e-02
-4.2014721e-02
-5.4354492e-02
-6.4469606e-02
-7.1814906e-02
-7.6152476e-02
-7.7623086e-02
-7.6608042e-02
-7.3445996e-02
-6.8382606e-02
-6.1743273e-02
-5.3917158e-02
-4.5265523e-02
-3.6132121e-02
-2.6956513e-02
-1.8192451e-02
-1.0108741e-02
-2.8068215e-03
3.8319250e-03
1.0078899e-02
1.6053350e-02
2.1667680e-02
2.6775449e-02
3.1373035e-02
3.5676689e-02
3.9941615e-02
4.4241083e-02
4.8397777e-02
5.2105750e-02
5.4918318e-02
5.6132032e-02
5.4945899e-02
5.0810593e-02
4.3714430e-02
3.4177233e-02
2.3125466e-02
1.1771170e-02
1.2475122e-03
-7.7509518e-03
-1.5020559e-02
-2.0618657e-02
-2.4666973e-02
-2.7402477e-02
-2.9185355e-02
-3.0450219e-02
-3.1641467e-02
-3.3145625e-02
-3.5230554e-02
-3.7815032e-02
-4.0444964e-02
-4.2594824e-02
-4.3885430e-02
-4.4003012e-02
-4.2440108e-02
-3.8619494e-02
-3.2292738e-02
-2.3736013e-02
-1.3643779e-02
-2.6711756e-03
8.8129189e-03
2.0469929e-02
3.1700823e-02
4.1698371e-02
4.9885718e-02
5.6180004e-02
6.0787689e-02
6.3808352e-02
6.5026696e-02
6.4097389e-02
6.0681415e-02
5.4424088e-02
4.5054000e-02
3.2660475e-02
1.8076426e-02
2.8641256e-03
-1.1261800e-02
-2.3130515e-02
-3.2366977e-02
-3.9047344e-02
-4.3347706e-02
-4.5448887e-02
-4.5620426e-02
-4.4360012e-02
-4.2301567e-02
-3.9992858e-02
-3.7731163e-02
-3.5571842e-02
-3.3409866e-02
-3.0989115e-02
-2.8061716e-02
-2.4568916e-02
-2.0645539e-02
-1.6443380e-02
-1.1877867e-02
-6.6332334e-03
-3.3091737e-04
7.1970751e-03
1.5657443e-02
2.4454605e-02
3.2939258e-02
4.0493680e-02
4.6535701e-02
5.0494488e-02
5.1950387e-02
5.0839778e-02
4.7520302e-02
4.2548979e-02
3.6302057e-02
2.8815456e-02
1.9979540e-02
9.9704571e-03
-6.4247195e-04
-1.1205289e-02
-2.1162063e-02
-3.0029303e-02
-3.7295867e-02
-4.2562946e-02
-4.5825529e-02
-4.7360165e-02
-4.7367723e-02
-4.5729844e-02
-4.2160511e-02
-3.6613810e-02
-2.9466077e-02
-2.1447772e-02
-1.3334675e-02
-5.6445128e-03
1.3538037e-03
7.5361949e-03
1.2889238e-02
1.7504058e-02
2.1568121e-02
2.5395775e-02
2.9292633e-02
3.3295565e-02
3.7228026e-02
4.0746398e-02
4.3244993e-02
4.4072146e-02
4.2937921e-02
4.0119085e-02
3.6160294e-02
3.1417832e-02
2.5960766e-02
1.9702252e-02
1.2565201e-02
4.4849704e-03
-4.5651825e-03
-1.4372184e-02
-2.4426685e-02
-3.3989973e-02
-4.2282544e-02
-4.8736627e-02
-5.3108841e-02
-5.5383649e-02
-5.5492125e-02
-5.3325553e-02
-4.9022893e-02
-4.3064101e-02
-3.6105985e-02
-2.8611330e-02
-2.0732548e-02
-1.2564441e-02
-4.3096533e-03
3.7809242e-03
1.1613306e-02
1.9221746e-02
2.6506465e-02
3.3193840e-02
3.9030049e-02
4.3899422e-02
4.7677512e-02
5.0140688e-02
5.0980358e-02
4.9793749e-02
4.6357784e-02
4.0868660e-02
3.3844589e-02
2.5902468e-02
1.7570279e-02
9.3057558e-03
1.5260908e-03
-5.4657490e-03
-1.1618583e-02
-1.7201395e-02
-2.2516989e-02
-2.7603558e-02
-3.2220705e-02
-3.6077541e-02
-3.9097276e-02
-4.1316550e-02
-4.2690398e-02
-4.3130022e-02
-4.2656770e-02
-4.1399326e-02
-3.9332339e-02
-3.6292002e-02
-3.2247503e-02
-2.7388495e-02
-2.2059840e-02
-1.6581569e-02
-1.1127146e-02
-5.6817637e-03
-1.1014729e-04
5.6689125e-03
1.1754891e-02
1.8330570e-02
2.5474734e-02
3.3027874e-02
4.0674594e-02
4.8124291e-02
5.5078675e-02
6.1122553e-02
6.5729783e-02
6.8289989e-02
6.8258795e-02
6.5377584e-02
5.9785733e-02
5.1858488e-02
4.2013076e-02
3.0770449e-02
1.8729584e-02
6.4772720e-03
-5.4988233e-03
-1.6898398e-02
-2.7431806e-02
-3.6687491e-02
-4.4271305e-02
-5.0076070e-02
-5.4420310e-02
-5.7762518e-02
-6.0295720e-02
-6.1763740e-02
-6.1657088e-02
-5.9665896e-02
-5.5871389e-02
-5.0671523e-02
-4.4676366e-02
-3.8623000e-02
-3.3155256e-02
-2.8397115e-02
-2.3788100e-02
-1.8400135e-02
-1.1529126e-02
-3.0430299e-03
6.8036302e-03
1.7582304e-02
2.8756158e-02
3.9731776e-02
4.9909358e-02
5.8737656e-02
6.5688355e-02
7.0326847e-02
7.2381339e-02
7.1703254e-02
6.8367386e-02
6.2678529e-02
5.5029407e-02
4.5810681e-02
3.5338792e-02
2.3868046e-02
1.1677626e-02
-8.1424574e-04
-1.3119012e-02
-2.4850196e-02
-3.5623151e-02
-4.4939575e-02
-5.2270727e-02
-5.7277675e-02
-5.9946766e-02
-6.0365595e-02
-5.8515833e-02
-5.4396770e-02
-4.8379177e-02
-4.1389233e-02
-3.4486126e-02
-2.8278502e-02
-2.2857061e-02
-1.8172296e-02
-1.4216201e-02
-1.0856526e-02
-7.7944264e-03
-4.6904902e-03
-1.3533899e-03
2.2810928e-03
6.4361770e-03
1.1482991e-02
1.7743152e-02
2.5295416e-02
3.3757755e-02
4.2353558e-02
5.0176496e-02
5.6457996e-02
6.0679976e-02
6.2506714e-02
6.1710017e-02
5.8115421e-02
5.1706440e-02
4.2758739e-02
3.1930602e-02
2.0317474e-02
9.1339779e-03
-7.2792074e-04
-8.9210428e-03
-1.5594010e-02
-2.0997593e-02
-2.5114668e-02
-2.7756995e-02
-2.9084060e-02
-2.9768221e-02
-3.0532591e-02
-3.1790384e-02
-3.3545118e-02
-3.5476598e-02
-3.7134696e-02
-3.8007494e-02
-3.7643851e-02
-3.5825029e-02
-3.2596386e-02
-2.8060529e-02
-2.2197806e-02
-1.5054800e-02
-6.8868481e-03
1.8460012e-03
1.0445599e-02
1.8091636e-02
2.4135596e-02
2.8433878e-02
3.1244862e-02
3.2738879e-02
3.2799065e-02
3.1265284e-02
2.8361124e-02
2.4656887e-02
2.0583153e-02
1.6239114e-02
1.1486184e-02
6.1313602e-03
8.2609183e-05
-6.6182544e-03
-1.3811301e-02
-2.1237074e-02
-2.8409701e-02
-3.4530434e-02
-3.8647148e-02
-4.0024367e-02
-3.8468768e-02
-3.4229361e-02
-2.7896392e-02
-2.0480251e-02
-1.3159391e-02
-6.8266365e-03
-1.9178666e-03
1.3488372e-03
2.8048376e-03
2.5039462e-03
9.3740208e-04
-8.7396904e-04
-1.6295870e-03
-2.2653124e-04
3.8158363e-03
1.0173813e-02
1.8082542e-02
2.6764141e-02
3.5511287e-02
4.3706731e-02
5.0874291e-02
5.6664829e-02
6.0681742e-02
6.2462876e-02
6.1660603e-02
5.8082538e-02
5.1774595e-02
4.3184855e-02
3.3195241e-02
2.2822790e-02
1.2799735e-02
3.5319866e-03
-4.8068735e-03
-1.2271189e-02
-1.9174599e-02
-2.5999329e-02
-3.2972119e-02
-3.9901516e-02
-4.6496757e-02
-5.2626724e-02
-5.8259570e-02
-6.3184175e-02
-6.6988458e-02
-6.9292636e-02
-6.9829877e-02
-6.8307610e-02
-6.4345294e-02
-5.7782680e-02
-4.8850416e-02
-3.7984647e-02
-2.5669077e-02
-1.2329829e-02
1.5333662e-03
1.5097213e-02
2.7255054e-02
3.6986609e-02
4.3821429e-02
4.7886623e-02
4.9572665e-02
4.9213876e-02
4.7045504e-02
4.3479738e-02
3.9124857e-02
3.4453564e-02
2.9579381e-02
2.4381452e-02
1.8869368e-02
1.3210941e-02
7.5200635e-03
1.8607201e-03
-3.5837061e-03
-8.3165818e-03
-1.1671154e-02
-1.3229209e-02
-1.3075508e-02
-1.1701718e-02
-9.6246615e-03
-7.2369651e-03
-4.9472776e-03
-3.2076843e-03
-2.3629811e-03
-2.4720287e-03
-3.3848884e-03
-4.9553852e-03
-7.0824217e-03
-9.5333325e-03
-1.1765754e-02
-1.3087259e-02
-1.2914283e-02
-1.1002821e-02
-7.6289994e-03
-3.2885467e-03
1.7690167e-03
7.6005963e-03
1.4242494e-02
2.1389117e-02
2.8436895e-02
3.4669643e-02
3.9378051e-02
4.1846423e-02
4.1363749e-02
3.7563100e-02
3.0737654e-02
2.1865881e-02
1.2271507e-02
3.0792380e-03
-4.9246281e-03
-1.1164305e-02
-1.5300530e-02
-1.7436873e-02
-1.8227880e-02
-1.8572862e-02
-1.9241197e-02
-2.0721236e-02
-2.3252783e-02
-2.6862768e-02
-3.1259104e-02
-3.5892214e-02
-4.0171939e-02
-4.3657542e-02
-4.6127430e-02
-4.7391998e-02
-4.7135733e-02
-4.4938140e-02
-4.0432026e-02
-3.3516970e-02
-2.4459831e-02
-1.3948098e-02
-3.0079942e-03
7.2514026e-03
1.5970345e-02
2.2766438e-02
2.7603520e-02
3.0610341e-02
3.1961772e-02
3.1782645e-02
3.0355106e-02
2.8344753e-02
2.6679699e-02
2.6102684e-02
2.6906549e-02
2.9197127e-02
3.3007575e-02
3.8065885e-02
4.3628470e-02
4.8522564e-02
5.1453261e-02
5.1378795e-02
4.7714691e-02
4.0264693e-02
2.9172595e-02
1.5149748e-02
-4.4706595e-04
-1.5966983e-02
-3.0107906e-02
-4.2203707e-02
-5.1816905e-02
-5.8464701e-02
-6.1782844e-02
-6.1742019e-02
-5.8653934e-02
-5.2892939e-02
-4.4836105e-02
-3.5092072e-02
-2.4505598e-02
-1.3837891e-02
-3.4911433e-03
6.3728954e-03
1.5496806e-02
2.3238142e-02
2.8682574e-02
3.1219171e-02
3.0862586e-02
2.8134050e-02
2.3728869e-02
1.8201201e-02
1.1996978e-02
5.6774153e-03
3.1300780e-05
-4.1908348e-03
-6.6540104e-03
-7.3627500e-03
-6.4409502e-03
-4.1110007e-03
-8.0611610e-04
2.8315208e-03
6.2268038e-03
9.0681847e-03
1.1274586e-02
1.2770752e-02
1.3281006e-02
1.2445261e-02
1.0069867e-02
6.3121775e-03
1.5795845e-03
-3.7179138e-03
-9.1452821e-03
-1.4158229e-02
-1.8171507e-02
-2.0874086e-02
-2.2460831e-02
-2.3315885e-02
-2.3735087e-02
-2.3998399e-02
-2.4363014e-02
-2.4903078e-02
-2.5458650e-02
-2.5732554e-02
-2.5270448e-02
-2.3578947e-02
-2.0418620e-02
-1.5760477e-02
-9.5710504e-03
-1.7724388e-03
7.5349887e-03
1.7871390e-02
2.8517107e-02
3.8681338e-02
4.7580595e-02
5.4441428e-02
5.8548885e-02
5.9571423e-02
5.7720585e-02
5.3545119e-02
4.7609347e-02
4.0285398e-02
3.1861453e-02
2.2738819e-02
1.3461744e-02
4.4951987e-03
-3.9931791e-03
-1.2043702e-02
-1.9684896e-02
-2.6736757e-02
-3.2953593e-02
-3.8324354e-02
-4.2921564e-02
-4.6684303e-02
-4.9486479e-02
-5.1272860e-02
-5.1980808e-02
-5.1312612e-02
-4.8849608e-02
-4.4274345e-02
-3.7477442e-02
-2.8629201e-02
-1.8014268e-02
-5.9586357e-03
6.9958389e-03
1.9941888e-02
3.1732446e-02
4.1425049e-02
4.8527386e-02
5.2857882e-02
5.4216703e-02
5.2307197e-02
4.7151284e-02
3.9351469e-02
2.9931234e-02
1.9952208e-02
1.0168697e-02
1.0476966e-03
-7.0478127e-03
-1.3794777e-02
-1.9086232e-02
-2.3140256e-02
-2.6192386e-02
-2.8233841e-02
-2.9103759e-02
-2.8785664e-02
-2.7473750e-02
-2.5238543e-02
-2.1965501e-02
-1.7706333e-02
-1.2942759e-02
-8.4009290e-03
-4.5197984e-03
-1.2176190e-03
1.8918096e-03
5.0921655e-03
8.3670394e-03
1.1631354e-02
1.4901963e-02
1.8234587e-02
2.1552446e-02
2.4499844e-02
2.6585584e-02
2.7451636e-02
2.6973744e-02
2.5124073e-02
2.1897576e-02
1.7422810e-02
1.1980315e-02
6.0903408e-03
5.6862106e-04
-3.7056448e-03
-6.1157935e-03
-6.6239763e-03
-5.7893208e-03
-4.4588786e-03
-3.4456512e-03
-3.3119839e-03
-4.3542192e-03
-6.6304015e-03
-1.0028466e-02
-1.4379140e-02
-1.9439319e-02
-2.4846517e-02
-2.9992039e-02
-3.4052540e-02
-3.6333273e-02
-3.6446884e-02
-3.4250589e-02
-2.9757531e-02
-2.3178455e-02
-1.4983393e-02
-5.8492469e-03
3.3825344e-03
1.1864443e-02
1.8893501e-02
2.3950678e-02
2.6788960e-02
2.7448054e-02
2.6279350e-02
2.3898456e-02
2.0954046e-02
1.7992973e-02
1.5439261e-02
1.3625717e-02
1.2752494e-02
1.2784531e-02
1.3502603e-02
1.4660991e-02
1.6107217e-02
1.7588635e-02
1.8473473e-02
1.7908430e-02
1.5276743e-02
1.0581566e-02
4.3520073e-03
-2.7192155e-03
-9.9042003e-03
-1.6525141e-02
-2.2109366e-02
-2.6517879e-02
-2.9891807e-02
-3.2368114e-02
-3.3798934e-02
-3.3679647e-02
-3.1575447e-02
-2.7629389e-02
-2.2487474e-02
-1.6880494e-02
-1.1261757e-02
-5.8039844e-03
-6.2418031e-04
4.1177794e-03
8.1738648e-03
1.1252486e-02
1.3139648e-02
1.3827648e-02
1.3535840e-02
1.2559956e-02
1.1289865e-02
1.0249595e-02
9.8670600e-03
1.0204920e-02
1.1025681e-02
1.2170538e-02
1.3620278e-02
1.5309526e-02
1.7088374e-02
1.8678662e-02
1.9751281e-02
2.0037530e-02
1.9310377e-02
1.7482992e-02
1.4875300e-02
1.2326113e-02
1.0757352e-02
1.0585305e-02
1.1565061e-02
1.2972046e-02
1.3921610e-02
1.3622295e-02
1.1580609e-02
7.6847612e-03
2.0364456e-03
-5.1432437e-03
-1.3607290e-02
-2.3211823e-02
-3.3801640e-02
-4.4947475e-02
-5.5813903e-02
-6.5390645e-02
-7.2738216e-02
-7.7065147e-02
-7.7852601e-02
-7.4774083e-02
-6.7602456e-02
-5.6453226e-02
-4.2042202e-02
-2.5606437e-02
-8.5983393e-03
7.5280375e-03
2.1580021e-02
3.2924333e-02
4.1538802e-02
4.7851612e-02
5.2332303e-02
5.5197862e-02
5.6601778e-02
5.6903022e-02
5.6610801e-02
5.6094636e-02
5.5538288e-02
5.5055054e-02
5.4616228e-02
5.4012487e-02
5.2808094e-02
5.0304849e-02
4.5705205e-02
3.8457885e-02
2.8644024e-02
1.6879593e-02
3.8433904e-03
-9.9700230e-03
-2.4106710e-02
-3.7721207e-02
-4.9538959e-02
-5.8472616e-02
-6.4132365e-02
-6.6703164e-02
-6.6508600e-02
-6.3911485e-02
-5.9477237e-02
-5.4005618e-02
-4.8299604e-02
-4.2765938e-02
-3.7296248e-02
-3.1436819e-02
-2.4693272e-02
-1.6876631e-02
-8.0933075e-03
1.4814834e-03
1.1696674e-02
2.2255597e-02
3.2469629e-02
4.1373812e-02
4.8058653e-02
5.2015789e-02
5.3283245e-02
5.2238639e-02
4.9466805e-02
4.5653556e-02
4.1333122e-02
3.6736750e-02
3.1877302e-02
2.6817084e-02
2.1765489e-02
1.6929445e-02
1.2276109e-02
7.4106718e-03
1.8412780e-03
-4.6859009e-03
-1.2076556e-02
-2.0041988e-02
-2.8380381e-02
-3.6904215e-02
-4.5149653e-02
-5.2402252e-02
-5.8037239e-02
-6.1606533e-02
-6.2647144e-02
-6.0887662e-02
-5.6564203e-02
-5.0380615e-02
-4.3283170e-02
-3.6085269e-02
-2.9204512e-02
-2.2662637e-02
-1.6285278e-02
-9.9271911e-03
-3.4180689e-03
3.5288392e-03
1.1213320e-02
1.9701866e-02
2.8698768e-02
3.7794627e-02
4.6702193e-02
5.5246266e-02
6.3245451e-02
7.0429289e-02
7.6430204e-02
8.0733171e-02
8.2779097e-02
8.2061132e-02
7.8062694e-02
7.0468127e-02
5.9449094e-02
4.5623881e-02
2.9733359e-02
1.2495202e-02
-5.0277088e-03
-2.1328525e-02
-3.5031922e-02
-4.5478610e-02
-5.2830754e-02
-5.7691988e-02
-6.0687832e-02
-6.2265408e-02
-6.2696330e-02
-6.2116068e-02
-6.0448564e-02
-5.7556727e-02
-5.3529328e-02
-4.8773545e-02
-4.3799520e-02
-3.8717282e-02
-3.3111353e-02
-2.6474339e-02
-1.8703924e-02
-1.0272423e-02
-1.8570874e-03
6.1471118e-03
1.3763624e-02
2.1180845e-02
2.8476515e-02
3.5595098e-02
4.2294699e-02
4.8139332e-02
5.2623815e-02
5.5273802e-02
5.5734923e-02
5.3777857e-02
4.9395691e-02
4.2894200e-02
3.4753990e-02
2.5499028e-02
1.5568312e-02
5.2566728e-03
-5.2434211e-03
-1.5803605e-02
-2.6258778e-02
-3.6357384e-02
-4.5704707e-02
-5.3737396e-02
-5.9817868e-02
-6.3291638e-02
-6.3673994e-02
-6.0879886e-02
-5.5294299e-02
-4.7703079e-02
-3.8990178e-02
-2.9800602e-02
-2.0377889e-02
-1.0710129e-02
-8.5667269e-04
8.9844940e-03
1.8607872e-02
2.7875866e-02
3.6625363e-02
4.4683490e-02
5.2081260e-02
5.8936957e-02
6.5164310e-02
7.0326048e-02
7.3737677e-02
7.4908827e-02
7.3765646e-02
7.0459492e-02
6.5141534e-02
5.7905838e-02
4.8803319e-02
3.7792982e-02
2.4829595e-02
1.0038900e-02
-6.1165184e-03
-2.2792698e-02
-3.9036766e-02
-5.3959626e-02
-6.6756089e-02
-7.6747012e-02
-8.3315277e-02
-8.6019058e-02
-8.4824440e-02
-8.0184428e-02
-7.2949823e-02
-6.4095388e-02
-5.4432646e-02
-4.4482447e-02
-3.4686505e-02
-2.5638961e-02
-1.7887900e-02
-1.1604815e-02
-6.4345905e-03
-1.7235875e-03
3.1147442e-03
8.5434728e-03
1.4907636e-02
2.2373068e-02
3.0852174e-02
3.9935721e-02
4.8926775e-02
5.6967108e-02
6.3277314e-02
6.7271005e-02
6.8535949e-02
6.6889028e-02
6.2416935e-02
5.5420849e-02
4.6110265e-02
3.4477885e-02
2.0697628e-02
5.4267695e-03
-1.0263552e-02
-2.5229570e-02
-3.8516348e-02
-4.9272836e-02
-5.6731656e-02
-6.0410557e-02
-6.0383613e-02
-5.7300277e-02
-5.2004077e-02
-4.5189066e-02
-3.7334335e-02
-2.8911170e-02
-2.0508636e-02
-1.2657160e-02
-5.6453781e-03
6.5499189e-04
6.6657073e-03
1.2658163e-02
1.8648950e-02
2.4598816e-02
3.0476346e-02
3.6008980e-02
4.0471984e-02
4.3037714e-02
4.3419714e-02
4.2051873e-02
3.9623742e-02
3.6708384e-02
3.3695413e-02
3.0696287e-02
2.7609824e-02
2.4185699e-02
1.9967274e-02
1.4342992e-02
6.7011130e-03
-3.1991475e-03
-1.4949803e-02
-2.7563333e-02
-3.9649725e-02
-4.9719510e-02
-5.6544427e-02
-5.9524986e-02
-5.8883026e-02
-5.5374782e-02
-4.9815591e-02
-4.2822576e-02
-3.4861154e-02
-2.6290120e-02
-1.7388807e-02
-8.5660686e-03
-3.1388388e-04
7.0182191e-03
1.3227395e-02
1.8214687e-02
2.1997312e-02
2.4712090e-02
2.6451809e-02
2.7103413e-02
2.6454049e-02
2.4488221e-02
2.1645534e-02
1.8586778e-02
1.5720040e-02
1.3087786e-02
1.0610288e-02
8.4286735e-03
6.8876464e-03
6.2505749e-03
6.5185413e-03
7.3931177e-03
8.5017222e-03
9.5842830e-03
1.0440030e-02
1.0801673e-02
1.0222868e-02
8.2351384e-03
4.6319241e-03
-4.2514639e-04
-6.5099116e-03
-1.3129519e-02
-1.9657289e-02
-2.5202864e-02
-2.8908935e-02
-3.0442886e-02
-3.0021479e-02
-2.7859244e-02
-2.3864988e-02
-1.7998747e-02
-1.0706966e-02
-2.7876568e-03
5.0927642e-03
1.2382633e-02
1.8361692e-02
2.2276985e-02
2.3742081e-02
2.2974468e-02
2.0507910e-02
1.6733871e-02
1.1865198e-02
6.2217621e-03
4.8083057e-04
-4.4177742e-03
-7.6261923e-03
-8.8163733e-03
-8.3994749e-03
-7.1683424e-03
-5.7387924e-03
-4.2635867e-03
-2.5884674e-03
-6.2956630e-04
1.5410739e-03
3.7549563e-03
5.7635575e-03
7.2904281e-03
8.1476426e-03
8.4246468e-03
8.4457313e-03
8.4648620e-03
8.4344346e-03
8.1420105e-03
7.5617702e-03
6.7867947e-03
5.6699270e-03
3.7351735e-03
4.5166219e-04
-4.3424274e-03
-1.0275772e-02
-1.6538706e-02
-2.2196498e-02
-2.6674802e-02
-2.9870747e-02
-3.1918804e-02
-3.2972442e-02
-3.3108943e-02
-3.2381594e-02
-3.0788433e-02
-2.8167437e-02
-2.4306946e-02
-1.9336187e-02
-1.3850472e-02
-8.4422947e-03
-3.2987935e-03
1.7378892e-03
6.8687293e-03
1.2192063e-02
1.7830155e-02
2.3982907e-02
3.0858382e-02
3.8480303e-02
4.6500020e-02
5.4298921e-02
6.1174076e-02
6.6418411e-02
6.9349746e-02
6.9469084e-02
6.6615363e-02
6.0826642e-02
5.2296643e-02
4.1442232e-02
2.8762264e-02
1.4745222e-02
-2.4568766e-06
-1.4569551e-02
-2.7863738e-02
-3.8994061e-02
-4.7483811e-02
-5.3216324e-02
-5.6228450e-02
-5.6742376e-02
-5.5388070e-02
-5.3123130e-02
-5.0881048e-02
-4.9254542e-02
-4.8453157e-02
-4.8305034e-02
-4.8203393e-02
-4.7350989e-02
-4.5071950e-02
-4.0961081e-02
-3.4971938e-02
-2.7460741e-02
-1.9100875e-02
-1.0516328e-02
-1.9952321e-03
6.4836978e-03
1.5075356e-02
2.3786864e-02
3.2266335e-02
3.9747150e-02
4.5360868e-02
4.8633001e-02
4.9576021e-02
4.8583147e-02
4.6231613e-02
4.2988567e-02
3.9077329e-02
3.4521520e-02
2.9361464e-02
2.3717939e-02
1.7635061e-02
1.1057740e-02
4.0745770e-03
-2.7020984e-03
-8.3061454e-03
-1.2113146e-02
-1.4167510e-02
-1.4926300e-02
-1.4755865e-02
-1.3764027e-02
-1.2089844e-02
-1.0155758e-02
-8.5896776e-03
-7.8665247e-03
-8.0477934e-03
-8.7972627e-03
-9.6021597e-03
-9.9855520e-03
-9.5483867e-03
-8.1241624e-03
-5.8906914e-03
-3.2611412e-03
-7.0269201e-04
1.5956407e-03
3.8007549e-03
6.0884485e-03
8.3677006e-03
1.0365527e-02
1.1959259e-02
1.3246742e-02
1.4352768e-02
1.5332533e-02
1.6157772e-02
1.6737112e-02
1.6833450e-02
1.6001438e-02
1.3731012e-02
9.7190073e-03
4.1968492e-03
-2.0601025e-03
-8.0904188e-03
-1.3149910e-02
-1.6983257e-02
-1.9765705e-02
-2.1865295e-02
-2.3656108e-02
-2.5523987e-02
-2.7980083e-02
-3.1486368e-02
-3.6110016e-02
-4.1410447e-02
-4.6755441e-02
-5.1691567e-02
-5.5845406e-02
-5.8686019e-02
-5.9522779e-02
-5.7709522e-02
-5.2834545e-02
-4.4656782e-02
-3.2980756e-02
-1.7701486e-02
9.2931965e-04
2.2149720e-02
4.4862717e-02
6.7737673e-02
8.9302794e-02
1.0815677e-01
1.2315019e-01
1.3356457e-01
1.3910453e-01
1.3975293e-01
1.3558404e-01
1.2661876e-01
1.1297535e-01
9.5071463e-02
7.3606038e-02
4.9293929e-02
2.2695609e-02
-5.5572449e-03
-3.4536980e-02
-6.2993162e-02
-8.9578185e-02
-1.1312572e-01
-1.3246593e-01
-1.4608902e-01
-1.5236971e-01
-1.5046453e-01
-1.4096168e-01
-1.2561274e-01
-1.0673769e-01
-8.6634362e-02
-6.7084151e-02
-4.9198957e-02
-3.3488079e-02
-1.9949215e-02
-8.1204475e-03
2.6355082e-03
1.2721573e-02
2.2283574e-02
3.1545119e-02
4.1062874e-02
5.1443045e-02
6.2829132e-02
7.4696190e-02
8.5944429e-02
9.5289386e-02
1.0158219e-01
1.0381980e-01
1.0115070e-01
9.3081523e-02
7.9782918e-02
6.2030285e-02
4.0847570e-02
1.7426934e-02
-6.5182820e-03
-2.8552212e-02
-4.6227819e-02
-5.8091516e-02
-6.4001611e-02
-6.4796498e-02
-6.1722916e-02
-5.6057079e-02
-4.8871820e-02
-4.0988173e-02
-3.3186113e-02
-2.6156908e-02
-2.0260226e-02
-1.5498693e-02
-1.1733574e-02
-8.7978315e-03
-6.2991335e-03
-3.6958606e-03
-6.3264553e-04
3.0343337e-03
7.3734986e-03
1.2373689e-02
1.7791210e-02
2.3137348e-02
2.7823246e-02
3.1290281e-02
3.3168513e-02
3.3294811e-02
3.1659243e-02
2.8385192e-02
2.3739456e-02
1.8208858e-02
1.2350831e-02
6.5605116e-03
9.9833374e-04
-4.3721947e-03
-9.5831518e-03
-1.4545172e-02
-1.9100369e-02
-2.3117190e-02
-2.6562420e-02
-2.9471095e-02
-3.1846963e-02
-3.3435634e-02
-3.3659826e-02
-3.1903134e-02
-2.7800003e-02
-2.1401501e-02
-1.3151238e-02
-3.8194819e-03
5.5607395e-03
1.4013927e-02
2.0915349e-02
2.5921383e-02
2.8707620e-02
2.9023555e-02
2.7023349e-02
2.3276998e-02
1.8602347e-02
1.3814460e-02
9.3831609e-03
5.4240541e-03
1.8801471e-03
-1.3638010e-03
-4.5004579e-03
-7.8346298e-03
-1.1531968e-02
-1.5360948e-02
-1.8729852e-02
-2.1000716e-02
-2.1808494e-02
-2.1078179e-02
-1.8936887e-02
-1.5649196e-02
-1.1594199e-02
-7.2251475e-03
-2.9527012e-03
8.7105292e-04
3.9754522e-03
6.1424471e-03
7.1711734e-03
7.0840664e-03
6.2495149e-03
5.2924345e-03
4.8321699e-03
5.2243209e-03
6.6496417e-03
9.2493873e-03
1.3029803e-02
1.7692545e-02
2.2673243e-02
2.7361483e-02
3.1198658e-02
3.3731479e-02
3.4605514e-02
3.3549756e-02
3.0487461e-02
2.5560370e-02
1.9140827e-02
1.1852281e-02
4.5039671e-03
-2.0337606e-03
-7.0455224e-03
-1.0161016e-02
-1.1543852e-02
-1.1880701e-02
-1.2016798e-02
-1.2622523e-02
-1.4029733e-02
-1.6303190e-02
-1.9493439e-02
-2.3791487e-02
-2.9389416e-02
-3.6068892e-02
-4.3106695e-02
-4.9624191e-02
-5.4884008e-02
-5.8323814e-02
-5.9385994e-02
-5.7573872e-02
-5.2656524e-02
-4.4615175e-02
-3.3582618e-02
-1.9940005e-02
-4.5622663e-03
1.1061550e-02
2.5217077e-02
3.6604056e-02
4.4717149e-02
4.9712582e-02
5.2032564e-02
5.2088073e-02
5.0190843e-02
4.6851015e-02
4.2841655e-02
3.8805684e-02
3.4939685e-02
3.1123562e-02
2.7360888e-02
2.3869542e-02
2.0780840e-02
1.7962213e-02
1.5143545e-02
1.2204609e-02
9.2302789e-03
6.3509112e-03
3.5622427e-03
6.8545062e-04
-2.3618727e-03
-5.3920968e-03
-8.0255711e-03
-9.8725609e-03
-1.0778484e-02
-1.0859846e-02
-1.0396681e-02
-9.7336197e-03
-9.2035319e-03
-9.0744952e-03
-9.4283130e-03
-1.0179137e-02
-1.1293493e-02
-1.2968715e-02
-1.5490760e-02
-1.8855704e-02
-2.2695917e-02
-2.6485423e-02
-2.9782437e-02
-3.2358595e-02
-3.4019061e-02
-3.4419452e-02
-3.3067233e-02
-2.9530323e-02
-2.3724371e-02
-1.5895943e-02
-6.5884740e-03
3.1804699e-03
1.2011418e-02
1.8719669e-02
2.2852811e-02
2.4558247e-02
2.4178274e-02
2.1978172e-02
1.8131270e-02
1.2974025e-02
7.1700132e-03
1.6678100e-03
-2.5594933e-03
-4.8669028e-03
-5.0501757e-03
-3.2132956e-03
4.5934006e-04
5.6292480e-03
1.1542746e-02
1.7238781e-02
2.2063621e-02
2.5877163e-02
2.8686967e-02
3.0267709e-02
3.0278301e-02
2.8480041e-02
2.4900688e-02
1.9917584e-02
1.4148662e-02
8.2208442e-03
2.5147155e-03
-2.7505024e-03
-7.3296543e-03
-1.1076200e-02
-1.4033377e-02
-1.6307703e-02
-1.7915484e-02
-1.8844189e-02
-1.9173400e-02
-1.9032436e-02
-1.8536461e-02
-1.7693235e-02
-1.6455978e-02
-1.4922406e-02
-1.3350458e-02
-1.2010962e-02
-1.1056724e-02
-1.0676686e-02
-1.1246277e-02
-1.3028553e-02
-1.5794070e-02
-1.8724969e-02
-2.0763555e-02
-2.1154517e-02
-1.9682726e-02
-1.6574534e-02
-1.2173390e-02
-6.7317896e-03
-5.0364965e-04
6.0626785e-03
1.2358354e-02
1.8034084e-02
2.3125786e-02
2.7697615e-02
3.1624429e-02
3.4693645e-02
3.6894571e-02
3.8427568e-02
3.9387752e-02
3.9614913e-02
3.8811760e-02
3.6833015e-02
3.3748360e-02
2.9530168e-02
2.3862743e-02
1.6468645e-02
7.6621185e-03
-1.7130563e-03
-1.0854710e-02
-1.9291308e-02
-2.6797819e-02
-3.3151745e-02
-3.8040811e-02
-4.1231549e-02
-4.2788121e-02
-4.3113887e-02
-4.2664028e-02
-4.1654187e-02
-4.0042016e-02
-3.7719435e-02
-3.4691262e-02
-3.1006216e-02
-2.6698515e-02
-2.1847446e-02
-1.6601279e-02
-1.1080052e-02
-5.1433923e-03
1.5421034e-03
9.1094007e-03
1.7270098e-02
2.5443800e-02
3.3019469e-02
3.9473608e-02
4.4470400e-02
4.7828335e-02
4.9318060e-02
4.8703612e-02
4.5888416e-02
4.1011342e-02
3.4454917e-02
2.6668731e-02
1.8075032e-02
9.1342986e-03
3.6030241e-04
-7.8366144e-03
-1.5201510e-02
-2.1485649e-02
-2.6462833e-02
-2.9964307e-02
-3.1844920e-02
-3.2045377e-02
-3.0610477e-02
-2.7613835e-02
-2.3053596e-02
-1.7002474e-02
-9.9170421e-03
-2.5886557e-03
4.2454624e-03
1.0247632e-02
1.5349843e-02
1.9433007e-02
2.2367205e-02
2.4083543e-02
2.4497756e-02
2.3465930e-02
2.0852192e-02
1.6645067e-02
1.0919904e-02
3.7951737e-03
-4.5820375e-03
-1.3998562e-02
-2.3990641e-02
-3.3815307e-02
-4.2627948e-02
-4.9721764e-02
-5.4605012e-02
-5.6853981e-02
-5.6053523e-02
-5.1841742e-02
-4.4121286e-02
-3.3348466e-02
-2.0560960e-02
-7.0609298e-03
6.1368393e-03
1.8479671e-02
2.9537190e-02
3.8770626e-02
4.5679032e-02
5.0109313e-02
5.2251854e-02
5.2438635e-02
5.1101502e-02
4.8766550e-02
4.6013276e-02
4.3311500e-02
4.0862320e-02
3.8558265e-02
3.6018962e-02
3.2821821e-02
2.8678791e-02
2.3396902e-02
1.6742799e-02
8.4193653e-03
-1.6091959e-03
-1.2847782e-02
-2.4364678e-02
-3.5069401e-02
-4.4006708e-02
-5.0533380e-02
-5.4399677e-02
-5.5645420e-02
-5.4428681e-02
-5.0982124e-02
-4.5528417e-02
-3.8254129e-02
-2.9451436e-02
-1.9740581e-02
-1.0084050e-02
-1.3871538e-03
5.8150909e-03
1.1328393e-02
1.5098274e-02
1.7083141e-02
1.7412152e-02
1.6512102e-02
1.5022679e-02
1.3585361e-02
1.2703163e-02
1.2833577e-02
1.4364144e-02
1.7349292e-02
2.1264478e-02
2.5143707e-02
2.8057677e-02
2.9307972e-02
2.8416266e-02
2.5164337e-02
1.9593141e-02
1.2037343e-02
3.0767828e-03
-6.6038925e-03
-1.6406756e-02
-2.5945663e-02
-3.4854411e-02
-4.2587727e-02
-4.8483024e-02
-5.1987480e-02
-5.2805687e-02
-5.0871730e-02
-4.6391769e-02
-3.9828364e-02
-3.1767751e-02
-2.2746373e-02
-1.3074449e-02
-3.0009780e-03
6.9722065e-03
1.5985523e-02
2.3053379e-02
2.7585730e-02
2.9677190e-02
2.9968610e-02
2.9199163e-02
2.7848748e-02
2.6240062e-02
2.4719457e-02
2.3638388e-02
2.3203941e-02
2.3441609e-02
2.4271267e-02
2.5487765e-02
2.6883925e-02
2.8324301e-02
2.9625859e-02
3.0563917e-02
3.0886058e-02
3.0295337e-02
2.8423905e-02
2.4817048e-02
1.9055590e-02
1.1011884e-02
1.1468760e-03
-9.5015682e-03
-1.9618282e-02
-2.7978055e-02
-3.3804666e-02
-3.6800843e-02
-3.7067452e-02
-3.5184537e-02
-3.2162307e-02
-2.9082305e-02
-2.6587881e-02
-2.4784073e-02
-2.3543794e-02
-2.2757625e-02
-2.2444163e-02
-2.2586976e-02
-2.2911260e-02
-2.2940085e-02
-2.2264214e-02
-2.0738432e-02
-1.8294490e-02
-1.4743759e-02
-9.9322474e-03
-3.9509390e-03
2.8990542e-03
1.0306060e-02
1.7927451e-02
2.5270615e-02
3.1703882e-02
3.6579800e-02
3.9547393e-02
4.0648296e-02
4.0090969e-02
3.8048787e-02
3.4598851e-02
2.9884955e-02
2.4187794e-02
1.7747721e-02
1.0625460e-02
2.7916184e-03
-5.6246591e-03
-1.4273940e-02
-2.2666233e-02
-3.0322907e-02
-3.6890980e-02
-4.1902561e-02
-4.4656296e-02
-4.4526934e-02
-4.1371651e-02
-3.5668748e-02
-2.8194764e-02
-1.9785647e-02
-1.1357965e-02
-3.8081003e-03
2.1936802e-03
6.4024451e-03
9.0065815e-03
1.0481292e-02
1.1329199e-02
1.1803827e-02
1.2036317e-02
1.2279632e-02
1.2901066e-02
1.4272588e-02
1.6678050e-02
2.0317440e-02
2.5223731e-02
3.1033936e-02
3.6874490e-02
4.1647312e-02
4.4571829e-02
4.5322120e-02
4.3798341e-02
3.9907347e-02
3.3469813e-02
2.4491465e-02
1.3500433e-02
1.4613786e-03
-1.0641070e-02
-2.2027918e-02
-3.1965226e-02
-3.9697597e-02
-4.4639175e-02
-4.6637452e-02
-4.6020952e-02
-4.3262370e-02
-3.8742052e-02
-3.2831120e-02
-2.6068345e-02
-1.9207519e-02
-1.3042016e-02
-8.2120516e-03
-5.0325827e-03
-3.4780617e-03
-3.3370555e-03
-4.2452631e-03
-5.7147488e-03
-7.2196352e-03
-8.3527142e-03
-8.9700646e-03
-9.0551480e-03
-8.5326135e-03
-7.2263222e-03
-4.9651536e-03
-1.7304814e-03
2.3444588e-03
7.0436772e-03
1.2183034e-02
1.7613353e-02
2.3103598e-02
2.8287346e-02
3.2621731e-02
3.5510415e-02
3.6490639e-02
3.5330390e-02
3.2137099e-02
2.7339661e-02
2.1586298e-02
1.5576851e-02
9.8882119e-03
4.9367551e-03
9.2444882e-04
-2.1018471e-03
-4.0718300e-03
-4.8546590e-03
-4.3802426e-03
-2.7654656e-03
-2.5780045e-04
2.7676973e-03
5.6775203e-03
7.6215101e-03
7.8379434e-03
6.0584937e-03
2.5322567e-03
-2.2822829e-03
-7.9035537e-03
-1.3889715e-02
-1.9861359e-02
-2.5626700e-02
-3.1282750e-02
-3.7066037e-02
-4.3050121e-02
-4.8905145e-02
-5.4039561e-02
-5.7821821e-02
-5.9593809e-02
-5.8745133e-02
-5.4795101e-02
-4.7554948e-02
-3.7327092e-02
-2.4912441e-02
-1.1475447e-02
1.7620454e-03
1.3787412e-02
2.3959495e-02
3.2113141e-02
3.8446106e-02
4.3357088e-02
4.7256949e-02
5.0399454e-02
5.2887816e-02
5.4776577e-02
5.6243065e-02
5.7564309e-02
5.8890369e-02
6.0156175e-02
6.1121522e-02
6.1379603e-02
6.0340700e-02
5.7420087e-02
5.2189791e-02
4.4331591e-02
3.3810643e-02
2.0972683e-02
6.3332671e-03
-9.4463116e-03
-2.5317383e-02
-3.9817712e-02
-5.1497514e-02
-5.9364062e-02
-6.3126325e-02
-6.3181418e-02
-6.0248624e-02
-5.5104242e-02
-4.8606398e-02
-4.1818076e-02
-3.5910104e-02
-3.1746943e-02
-2.9684541e-02
-2.9614484e-02
-3.1076184e-02
-3.3390809e-02
-3.5655251e-02
-3.6879454e-02
-3.6259727e-02
-3.3379180e-02
-2.8272908e-02
-2.1164609e-02
-1.2188334e-02
-1.4656266e-03
1.0533103e-02
2.2776775e-02
3.4004766e-02
4.3201928e-02
4.9756495e-02
5.3364352e-02
5.4003915e-02
5.1983269e-02
4.7771232e-02
4.1896624e-02
3.4958500e-02
2.7556546e-02
2.0306115e-02
1.3757951e-02
8.2290607e-03
3.7347524e-03
7.3285897e-05
-2.9334397e-03
-5.3447693e-03
-7.1453107e-03
-8.3225633e-03
-8.9172175e-03
-8.9221612e-03
-8.2605715e-03
-6.8342520e-03
-4.6334812e-03
-1.8720166e-03
1.1452639e-03
4.1857698e-03
7.0821939e-03
9.5744725e-03
1.1135565e-02
1.1153413e-02
9.3625825e-03
6.0311232e-03
1.6474860e-03
-3.4011395e-03
-8.7578658e-03
-1.4026442e-02
-1.8862724e-02
-2.3119401e-02
-2.6813627e-02
-2.9931403e-02
-3.2398848e-02
-3.4043317e-02
-3.4586173e-02
-3.3788421e-02
-3.1519290e-02
-2.7749164e-02
-2.2553530e-02
-1.6271192e-02
-9.6248251e-03
-3.5528297e-03
1.1636450e-03
4.3080439e-03
6.1966856e-03
7.3371426e-03
8.2742081e-03
9.5799947e-03
1.1837175e-02
1.5360684e-02
1.9987361e-02
2.5306613e-02
3.0895785e-02
3.6436815e-02
4.1675574e-02
4.6240429e-02
4.9653996e-02
5.1526280e-02
5.1750254e-02
5.0433297e-02
4.7587028e-02
4.2953054e-02
3.6184590e-02
2.7281264e-02
1.6777344e-02
5.6324027e-03
-5.0581644e-03
-1.4472801e-02
-2.2152621e-02
-2.7994061e-02
-3.2310429e-02
-3.5611749e-02
-3.8264358e-02
-4.0368531e-02
-4.1974427e-02
-4.3266876e-02
-4.4509367e-02
-4.5952369e-02
-4.7738974e-02
-4.9908818e-02
-5.2358805e-02
-5.4755295e-02
-5.6593845e-02
-5.7201886e-02
-5.5781976e-02
-5.1664815e-02
-4.4558025e-02
-3.4484893e-02
-2.1548537e-02
-6.1169614e-03
1.0794095e-02
2.7546170e-02
4.2389897e-02
5.4188314e-02
6.2645971e-02
6.7905645e-02
7.0136866e-02
6.9525457e-02
6.6464259e-02
6.1518174e-02
5.5377703e-02
4.8845283e-02
4.2644416e-02
3.7322160e-02
3.3200868e-02
3.0324720e-02
2.8449653e-02
2.7007658e-02
2.5204995e-02
2.2187797e-02
1.7196033e-02
9.6952056e-03
-4.6558997e-04
-1.2766560e-02
-2.5952221e-02
-3.8386520e-02
-4.8720120e-02
-5.6378207e-02
-6.1321972e-02
-6.3564285e-02
-6.3069115e-02
-6.0002143e-02
-5.4766861e-02
-4.7697370e-02
-3.9040429e-02
-2.9162774e-02
-1.8672931e-02
-8.3796172e-03
9.7050230e-04
8.9045170e-03
1.5317224e-02
2.0315710e-02
2.3897931e-02
2.5954623e-02
2.6480361e-02
2.5704567e-02
2.3962570e-02
2.1445328e-02
1.8280522e-02
1.4791462e-02
1.1512103e-02
8.8266588e-03
6.6983292e-03
4.9163911e-03
3.4201910e-03
2.3460032e-03
1.7979270e-03
1.6388610e-03
1.6373487e-03
1.7043720e-03
2.0211519e-03
2.9096274e-03
4.4726575e-03
6.4437097e-03
8.3310750e-03
9.7400875e-03
1.0537526e-02
1.0697255e-02
1.0180029e-02
8.9290595e-03
6.9027843e-03
4.0015372e-03
-2.0479482e-05
-5.3733744e-03
-1.1945924e-02
-1.9176405e-02
-2.6275032e-02
-3.2514737e-02
-3.7251167e-02
-3.9964295e-02
-4.0323970e-02
-3.8225690e-02
-3.3846240e-02
-2.7562233e-02
-1.9817470e-02
-1.1042617e-02
-1.6820352e-03
7.7662677e-03
1.6752715e-02
2.4663738e-02
3.1009752e-02
3.5560940e-02
3.8233241e-02
3.9049909e-02
3.8119455e-02
3.5503609e-02
3.1091923e-02
2.4809591e-02
1.7031754e-02
8.6306459e-03
7.6539378e-04
-5.4701858e-03
-9.4643502e-03
-1.1195728e-02
-1.1074921e-02
-9.7025766e-03
-7.7588357e-03
-5.9571027e-03
-4.8283577e-03
-4.5202039e-03
-4.7626179e-03
-5.1216010e-03
-5.3213241e-03
-5.2866083e-03
-5.0040311e-03
-4.3334349e-03
-3.0952686e-03
-1.3309864e-03
6.7745997e-04
2.5067251e-03
3.7821363e-03
4.3035832e-03
3.9459770e-03
2.5861052e-03
2.6815645e-04
-2.5515302e-03
-5.2040572e-03
-7.2217738e-03
-8.4327098e-03
-8.9154820e-03
-8.9149889e-03
-8.7317448e-03
-8.5940909e-03
-8.6230410e-03
-8.9295607e-03
-9.5089150e-03
-1.0135309e-02
-1.0435422e-02
-1.0001563e-02
-8.6179575e-03
-6.3956065e-03
-3.7637229e-03
-1.2885326e-03
6.8888805e-04
2.2257842e-03
3.7092244e-03
5.5303449e-03
7.7128775e-03
9.9399214e-03
1.1852039e-02
1.3295394e-02
1.4322177e-02
1.5033052e-02
1.5402512e-02
1.5252901e-02
1.4511578e-02
1.3267404e-02
1.1516628e-02
9.0664014e-03
5.8193375e-03
2.1700653e-03
-1.1184563e-03
-3.3782453e-03
-4.3047769e-03
-3.9361264e-03
-2.4407184e-03
-1.6422053e-04
2.2071807e-03
3.7844927e-03
3.7859869e-03
1.9297374e-03
-1.4169138e-03
-5.5574561e-03
-9.9288895e-03
-1.4176622e-02
-1.7747019e-02
-1.9757338e-02
-1.9433021e-02
-1.6581780e-02
-1.1632864e-02
-5.2667196e-03
1.7704546e-03
8.6179748e-03
1.4391440e-02
1.8423151e-02
2.0503348e-02
2.0792759e-02
1.9479226e-02
1.6550464e-02
1.1891804e-02
5.6622962e-03
-1.6199714e-03
-9.3101873e-03
-1.6784140e-02
-2.3478930e-02
-2.8811364e-02
-3.2144070e-02
-3.2875798e-02
-3.0670591e-02
-2.5750505e-02
-1.8850335e-02
-1.0944528e-02
-3.0015501e-03
4.1360598e-03
9.7894255e-03
1.3668645e-02
1.5977998e-02
1.7182727e-02
1.7683278e-02
1.7624847e-02
1.7016757e-02
1.5910849e-02
1.4493505e-02
1.3032158e-02
1.1653181e-02
1.0344999e-02
9.1588852e-03
8.2958252e-03
7.9250195e-03
7.9205201e-03
7.9198914e-03
7.5181080e-03
6.3567578e-03
4.1835599e-03
1.0433332e-03
-2.5272177e-03
-5.7618844e-03
-8.0928445e-03
-9.3413718e-03
-9.7338957e-03
-9.6983504e-03
-9.5994051e-03
-9.5836665e-03
-9.6585195e-03
-9.8542794e-03
-1.0140473e-02
-1.0304558e-02
-9.9420300e-03
-8.6306807e-03
-6.2432507e-03
-3.0030795e-03
7.1840326e-04
4.5619905e-03
8.0662287e-03
1.0573684e-02
1.1495164e-02
1.0535816e-02
7.7608882e-03
3.5543570e-03
-1.5395507e-03
-6.8819199e-03
-1.1805451e-02
-1.5683247e-02
-1.8000724e-02
-1.8466167e-02
-1.6986660e-02
-1.3614053e-02
-8.5466211e-03
-2.2566827e-03
4.4249753e-03
1.0570929e-02
1.5473241e-02
1.8761195e-02
2.0278432e-02
1.9950277e-02
1.7956798e-02
1.4942379e-02
1.1922130e-02
9.7797868e-03
8.8143421e-03
8.8763598e-03
9.7507316e-03
1.1274743e-02
1.3113398e-02
1.4674352e-02
1.5424351e-02
1.5181698e-02
1.4176222e-02
1.2704444e-02
1.0692864e-02
7.8513253e-03
4.0906394e-03
-3.6722609e-04
-5.2545068e-03
-1.0506277e-02
-1.6187760e-02
-2.2345121e-02
-2.8878342e-02
-3.5553709e-02
-4.2112417e-02
-4.8228400e-02
-5.3428855e-02
-5.7041812e-02
-5.8368684e-02
-5.6981617e-02
-5.2680827e-02
-4.5316212e-02
-3.4825609e-02
-2.1533973e-02
-6.4258372e-03
8.9282875e-03
2.2815171e-02
3.4015960e-02
4.2057663e-02
4.7005133e-02
4.9187713e-02
4.9082038e-02
4.7451126e-02
4.5192217e-02
4.2896987e-02
4.0747890e-02
3.8667587e-02
3.6538875e-02
3.4308307e-02
3.1948787e-02
2.9437887e-02
2.6708505e-02
2.3649477e-02
2.0082207e-02
1.5765695e-02
1.0481561e-02
4.0518506e-03
-3.5266013e-03
-1.1950010e-02
-2.0621774e-02
-2.8746375e-02
-3.5571832e-02
-4.0568719e-02
-4.3496454e-02
-4.4373636e-02
-4.3359968e-02
-4.0681115e-02
-3.6468741e-02
-3.0753964e-02
-2.3724561e-02
-1.5857538e-02
-7.8138301e-03
-1.5346811e-04
6.8039708e-03
1.2835598e-02
1.7650393e-02
2.0911420e-02
2.2471910e-02
2.2420273e-02
2.0933969e-02
1.8286861e-02
1.4911554e-02
1.1385385e-02
8.2183776e-03
5.6088560e-03
3.3940873e-03
1.1916192e-03
-1.2515690e-03
-3.8944582e-03
-6.5692439e-03
-9.1635990e-03
-1.1647521e-02
-1.3934409e-02
-1.5886311e-02
-1.7455195e-02
-1.8707806e-02
-1.9684088e-02
-2.0186883e-02
-1.9911117e-02
-1.8708539e-02
-1.6586718e-02
-1.3632737e-02
-9.9158059e-03
-5.4756769e-03
-4.3430262e-04
4.9163728e-03
1.0164677e-02
1.5061874e-02
1.9625081e-02
2.3796849e-02
2.7060918e-02
2.8567618e-02
2.7792754e-02
2.4909634e-02
2.0542706e-02
1.5400853e-02
1.0145900e-02
5.4050324e-03
1.6738510e-03
-7.1887914e-04
-1.6116784e-03
-1.1090146e-03
5.3361360e-04
3.0657907e-03
6.2291241e-03
9.7048949e-03
1.3099496e-02
1.6034030e-02
1.8109835e-02
1.8835365e-02
1.7681607e-02
1.4176010e-02
8.1571114e-03
-1.3362174e-04
-1.0156268e-02
-2.0976316e-02
-3.1283192e-02
-3.9670776e-02
-4.4920790e-02
-4.6244892e-02
-4.3554031e-02
-3.7509152e-02
-2.9124970e-02
-1.9400310e-02
-9.2311904e-03
5.1969262e-04
9.0088854e-03
1.5665386e-02
2.0284230e-02
2.2834136e-02
2.3349204e-02
2.2040524e-02
1.9444789e-02
1.6156826e-02
1.2443391e-02
8.2576428e-03
3.5027413e-03
-1.6547917e-03
-6.6976479e-03
-1.1017124e-02
-1.4368898e-02
-1.7016997e-02
-1.9200243e-02
-2.0732454e-02
-2.1282323e-02
-2.0843607e-02
-1.9756208e-02
-1.8205489e-02
-1.5991803e-02
-1.2798531e-02
-8.5079119e-03
-3.2839853e-03
2.6592045e-03
9.1871323e-03
1.6118321e-02
2.3147845e-02
2.9940702e-02
3.6219677e-02
4.1640513e-02
4.5754793e-02
4.8115900e-02
4.8282358e-02
4.5819010e-02
4.0333575e-02
3.1747553e-02
2.0647574e-02
8.1758428e-03
-4.3112347e-03
-1.5493847e-02
-2.4329341e-02
-3.0287253e-02
-3.3397724e-02
-3.4033963e-02
-3.2677314e-02
-2.9791644e-02
-2.5845938e-02
-2.1364266e-02
-1.6852617e-02
-1.2747691e-02
-9.3498520e-03
-6.8609464e-03
-5.4822046e-03
-5.2241306e-03
-5.7243173e-03
-6.3864199e-03
-6.7544069e-03
-6.7015260e-03
-6.1992492e-03
-5.1638367e-03
-3.5699492e-03
-1.6129147e-03
3.9527855e-04
2.3871458e-03
4.5725237e-03
7.1994318e-03
1.0392800e-02
1.4119242e-02
1.8237249e-02
2.2353316e-02
2.5657298e-02
2.7128381e-02
2.6025427e-02
2.2199613e-02
1.5931415e-02
7.7369299e-03
-1.6758983e-03
-1.1474622e-02
-2.0727454e-02
-2.8574691e-02
-3.4444521e-02
-3.8052759e-02
-3.9244972e-02
-3.7825259e-02
-3.3704017e-02
-2.7249880e-02
-1.9386360e-02
-1.1259848e-02
-3.7381120e-03
2.7342536e-03
7.9593975e-03
1.1741128e-02
1.3826362e-02
1.4194672e-02
1.3229505e-02
1.1585066e-02
9.8820795e-03
8.4876877e-03
7.6677398e-03
7.7809129e-03
9.2503709e-03
1.2296925e-02
1.6736837e-02
2.2121350e-02
2.7792620e-02
3.2864849e-02
3.6375316e-02
3.7554289e-02
3.6051657e-02
3.1819474e-02
2.5092837e-02
1.6656784e-02
7.7499147e-03
-3.8791563e-04
-6.8673810e-03
-1.1275064e-02
-1.3748484e-02
-1.4853866e-02
-1.5164129e-02
-1.5036887e-02
-1.4651475e-02
-1.4174247e-02
-1.3961924e-02
-1.4430382e-02
-1.5693888e-02
-1.7396456e-02
-1.8985397e-02
-2.0091048e-02
-2.0543627e-02
-2.0253792e-02
-1.9159068e-02
-1.7326728e-02
-1.5069653e-02
-1.2786722e-02
-1.0815774e-02
-9.3785015e-03
-8.5434167e-03
-8.3067683e-03
-8.6531534e-03
-9.4808761e-03
-1.0495406e-02
-1.1371222e-02
-1.1928406e-02
-1.1998301e-02
-1.1384170e-02
-9.9183201e-03
-7.4883505e-03
-4.0960387e-03
1.0937536e-04
4.7430260e-03
9.2961008e-03
1.3392400e-02
1.6831623e-02
1.9607805e-02
2.1957905e-02
2.4241871e-02
2.6606759e-02
2.8857100e-02
3.0738889e-02
3.2135181e-02
3.3091771e-02
3.3764058e-02
3.4276732e-02
3.4648686e-02
3.4741088e-02
3.4283808e-02
3.2963472e-02
3.0476992e-02
2.6576882e-02
2.1139473e-02
1.4331454e-02
6.5483926e-03
-1.9287135e-03
-1.1082244e-02
-2.1018534e-02
-3.1653780e-02
-4.2563188e-02
-5.3090985e-02
-6.2439336e-02
-6.9772319e-02
-7.4311405e-02
-7.5435683e-02
-7.2778176e-02
-6.6234628e-02
-5.6008324e-02
-4.2685515e-02
-2.7393252e-02
-1.1752146e-02
2.6341875e-03
1.4696823e-02
2.4147679e-02
3.1236223e-02
3.6236954e-02
3.9337848e-02
4.0812322e-02
4.1109728e-02
4.0703646e-02
3.9848757e-02
3.8557487e-02
3.6753240e-02
3.4477842e-02
3.1877452e-02
2.8989801e-02
2.5658601e-02
2.1599170e-02
1.6593976e-02
1.0561773e-02
3.4771319e-03
-4.6018047e-03
-1.3442589e-02
-2.2471554e-02
-3.0802789e-02
-3.7609316e-02
-4.2405611e-02
-4.5015957e-02
-4.5370768e-02
-4.3437226e-02
-3.9265183e-02
-3.3054419e-02
-2.5217862e-02
-1.6246835e-02
-6.6176570e-03
3.1497942e-03
1.2489792e-02
2.0951856e-02
2.8470925e-02
3.5237806e-02
4.1279223e-02
4.6281510e-02
4.9710808e-02
5.1207599e-02
5.0810560e-02
4.8733122e-02
4.5086868e-02
3.9941757e-02
3.3625980e-02
2.6682865e-02
1.9578358e-02
1.2557814e-02
5.6282340e-03
-1.2786873e-03
-8.2109464e-03
-1.5280715e-02
-2.2719495e-02
-3.0753537e-02
-3.9271466e-02
-4.7772122e-02
-5.5656673e-02
-6.2511999e-02
-6.8173133e-02
-7.2451393e-02
-7.5061812e-02
-7.5803967e-02
-7.4566194e-02
-7.1232947e-02
-6.5575239e-02
-5.7298901e-02
-4.6197511e-02
-3.2262755e-02
-1.5824840e-02
2.3534186e-03
2.0981478e-02
3.8382735e-02
5.2981204e-02
6.3719387e-02
7.0269816e-02
7.2997362e-02
7.2701867e-02
7.0203282e-02
6.6034564e-02
6.0613172e-02
5.4497102e-02
4.8324356e-02
4.2559776e-02
3.7434948e-02
3.3193900e-02
3.0096183e-02
2.8174413e-02
2.7051602e-02
2.5887944e-02
2.3693269e-02
1.9772052e-02
1.3890012e-02
6.1078399e-03
-3.3626104e-03
-1.3953593e-02
-2.4571647e-02
-3.3797303e-02
-4.0433221e-02
-4.3985497e-02
-4.4587891e-02
-4.2723216e-02
-3.9112145e-02
-3.4670209e-02
-3.0327149e-02
-2.6720371e-02
-2.4121114e-02
-2.2540693e-02
-2.1896556e-02
-2.2147189e-02
-2.3191441e-02
-2.4809142e-02
-2.6701524e-02
-2.8499949e-02
-2.9720737e-02
-2.9679225e-02
-2.7690353e-02
-2.3366985e-02
-1.6652652e-02
-7.7684085e-03
2.7383206e-03
1.3928735e-02
2.4696466e-02
3.4055570e-02
4.1242338e-02
4.5867177e-02
4.7964750e-02
4.7842933e-02
4.5786123e-02
4.1806905e-02
3.5818638e-02
2.7960598e-02
1.8705046e-02
8.7332233e-03
-1.2169160e-03
-1.0412734e-02
-1.8261862e-02
-2.4394449e-02
-2.8653040e-02
-3.0963760e-02
-3.1113026e-02
-2.8888790e-02
-2.4416444e-02
-1.8291509e-02
-1.1413781e-02
-4.5917908e-03
1.6149547e-03
6.8513473e-03
1.0953837e-02
1.3897119e-02
1.5742736e-02
1.6588155e-02
1.6545451e-02
1.5670495e-02
1.3975702e-02
1.1665080e-02
9.2200301e-03
7.2697358e-03
6.3338770e-03
6.6173052e-03
8.0778192e-03
1.0520445e-02
1.3630373e-02
1.6896890e-02
1.9546404e-02
2.0770183e-02
1.9995109e-02
1.6987659e-02
1.1716174e-02
4.2604479e-03
-4.8338484e-03
-1.4274181e-02
-2.2381372e-02
-2.7922541e-02
-3.0616356e-02
-3.0931502e-02
-2.9640344e-02
-2.7352679e-02
-2.4341587e-02
-2.0766890e-02
-1.6876862e-02
-1.3053562e-02
-9.7055525e-03
-7.2514919e-03
-6.1164444e-03
-6.4455452e-03
-7.9250003e-03
-9.8677143e-03
-1.1446537e-02
-1.1911436e-02
-1.0632975e-02
-7.2681745e-03
-1.9984403e-03
4.4994278e-03
1.1349720e-02
1.7697392e-02
2.2746661e-02
2.5986931e-02
2.7313893e-02
2.6855064e-02
2.4920279e-02
2.1983511e-02
1.8542396e-02
1.4891689e-02
1.1074520e-02
7.1192218e-03
3.1643405e-03
-5.5945804e-04
-3.8826896e-03
-6.8348007e-03
-9.4617586e-03
-1.1637353e-02
-1.3068305e-02
-1.3484853e-02
-1.2874133e-02
-1.1480358e-02
-9.6562251e-03
-7.6741364e-03
-5.6830889e-03
-3.7793474e-03
-1.9856756e-03
-2.4581442e-04
1.5777540e-03
3.5823513e-03
5.6494262e-03
7.4756110e-03
8.7034941e-03
9.0904658e-03
8.5019434e-03
6.8708823e-03
4.3580666e-03
1.2893996e-03
-2.0253231e-03
-5.3227564e-03
-8.4138183e-03
-1.1205972e-02
-1.3644961e-02
-1.5558661e-02
-1.6671528e-02
-1.6774250e-02
-1.5741386e-02
-1.3468891e-02
-9.8567913e-03
-4.9912803e-03
7.0622881e-04
6.6785305e-03
1.2510143e-02
1.8008321e-02
2.2880856e-02
2.6446651e-02
2.7932243e-02
2.6959408e-02
2.3834574e-02
1.9430364e-02
1.4757773e-02
1.0594608e-02
7.3309978e-03
5.1306526e-03
4.0178800e-03
3.7568039e-03
3.9014460e-03
4.0244426e-03
3.9314073e-03
3.5500022e-03
2.6816287e-03
1.0062490e-03
-1.7849035e-03
-5.8017180e-03
-1.0914569e-02
-1.6818269e-02
-2.2970516e-02
-2.8576108e-02
-3.2688593e-02
-3.4558453e-02
-3.4024375e-02
-3.1512741e-02
-2.7675805e-02
-2.2917116e-02
-1.7354621e-02
-1.1178962e-02
-4.8212703e-03
1.1661153e-03
6.3931518e-03
1.0669985e-02
1.3780070e-02
1.5413198e-02
1.5326460e-02
1.3650412e-02
1.0966122e-02
8.0488154e-03
5.4803946e-03
3.3908406e-03
1.7747226e-03
8.4788762e-04
8.6939613e-04
1.8771642e-03
3.6590073e-03
5.9446924e-03
8.5645029e-03
1.1434867e-02
1.4445593e-02
1.7367634e-02
1.9959837e-02
2.1995852e-02
2.3155957e-02
2.3085366e-02
2.1560750e-02
1.8626881e-02
1.4523670e-02
9.4862853e-03
3.6282476e-03
-3.0084721e-03
-1.0183000e-02
-1.7381258e-02
-2.4023895e-02
-2.9585865e-02
-3.3581109e-02
-3.5515791e-02
-3.5066800e-02
-3.2340233e-02
-2.7918229e-02
-2.2669695e-02
-1.7276646e-02
-1.1988580e-02
-6.8541462e-03
-1.9890891e-03
2.4281249e-03
6.4368833e-03
1.0341660e-02
1.4345887e-02
1.8261757e-02
2.1677121e-02
2.4337353e-02
2.6147363e-02
2.6992822e-02
2.6720123e-02
2.5215971e-02
2.2596692e-02
1.9191961e-02
1.5362173e-02
1.1402314e-02
7.3835928e-03
3.0566443e-03
-2.0031614e-03
-8.0927305e-03
-1.5202909e-02
-2.2916699e-02
-3.0304694e-02
-3.6260650e-02
-3.9966543e-02
-4.1044126e-02
-3.9530432e-02
-3.5688029e-02
-2.9914568e-02
-2.2726437e-02
-1.4696090e-02
-6.4471517e-03
1.5164557e-03
9.0318156e-03
1.6275605e-02
2.3484694e-02
3.0649649e-02
3.7541181e-02
4.3772422e-02
4.8709391e-02
5.1516685e-02
5.1499164e-02
4.8445057e-02
4.2597327e-02
3.4598107e-02
2.5423295e-02
1.6039297e-02
7.1551130e-03
-7.7906665e-04
-7.4128166e-03
-1.2443911e-02
-1.5806218e-02
-1.7755727e-02
-1.8828565e-02
-1.9726296e-02
-2.1154403e-02
-2.3637662e-02
-2.7343106e-02
-3.2131095e-02
-3.7673648e-02
-4.3549328e-02
-4.9336460e-02
-5.4517316e-02
-5.8379946e-02
-6.0093288e-02
-5.8979928e-02
-5.4733073e-02
-4.7302367e-02
-3.6823105e-02
-2.3701732e-02
-8.7882255e-03
6.4507455e-03
2.0223454e-02
3.1090523e-02
3.8461396e-02
4.2542957e-02
4.4033683e-02
4.3944447e-02
4.3246658e-02
4.2485491e-02
4.1822338e-02
4.1389397e-02
4.1459535e-02
4.2229750e-02
4.3673654e-02
4.5523642e-02
4.7285516e-02
4.8417736e-02
4.8415107e-02
4.6813679e-02
4.3195313e-02
3.7225358e-02
2.8899539e-02
1.8665484e-02
7.2218242e-03
-4.7273712e-03
-1.6418260e-02
-2.6827523e-02
-3.4895095e-02
-4.0050515e-02
-4.2527830e-02
-4.3047040e-02
-4.2175187e-02
-4.0281938e-02
-3.7873948e-02
-3.5650819e-02
-3.4273263e-02
-3.4110821e-02
-3.5209339e-02
-3.7356461e-02
-4.0194934e-02
-4.3322660e-02
-4.6254671e-02
-4.8393731e-02
-4.9042941e-02
-4.7505059e-02
-4.3151682e-02
-3.5465851e-02
-2.4303912e-02
-1.0080983e-02
6.1221537e-03
2.2486039e-02
3.6939014e-02
4.7956254e-02
5.4834333e-02
5.7367580e-02
5.5728268e-02
5.0697925e-02
4.3568104e-02
3.5805965e-02
2.8751430e-02
2.3316693e-02
1.9849263e-02
1.8205046e-02
1.8054851e-02
1.9139689e-02
2.1201323e-02
2.3797725e-02
2.6283633e-02
2.8021752e-02
2.8402379e-02
2.6748143e-02
2.2549182e-02
1.5741056e-02
6.7968027e-03
-3.3993377e-03
-1.3784083e-02
-2.3324485e-02
-3.1255834e-02
-3.7141952e-02
-4.0894028e-02
-4.2778016e-02
-4.3152524e-02
-4.2209332e-02
-3.9874097e-02
-3.5939544e-02
-3.0342815e-02
-2.3169951e-02
-1.4518204e-02
-4.6162323e-03
5.8418211e-03
1.5707528e-02
2.3855944e-02
2.9527729e-02
3.2351985e-02
3.2136466e-02
2.8701927e-02
2.2062537e-02
1.2695698e-02
1.6699947e-03
-9.5263388e-03
-1.9381716e-02
-2.6788313e-02
-3.1380832e-02
-3.3385943e-02
-3.3232851e-02
-3.1333995e-02
-2.7955938e-02
-2.3300629e-02
-1.7657300e-02
-1.1428183e-02
-5.0179518e-03
1.2953739e-03
7.3456834e-03
1.3117786e-02
1.8693344e-02
2.4060046e-02
2.9086543e-02
3.3547723e-02
3.7194122e-02
3.9757759e-02
4.0863527e-02
4.0156561e-02
3.7562257e-02
3.3406113e-02
2.8193965e-02
2.2320852e-02
1.6063333e-02
9.6677843e-03
3.4230692e-03
-2.3721904e-03
-7.4946876e-03
-1.1837758e-02
-1.5475957e-02
-1.8548457e-02
-2.1167922e-02
-2.3460294e-02
-2.5421802e-02
-2.6851458e-02
-2.7574714e-02
-2.7770819e-02
-2.7910866e-02
-2.8247826e-02
-2.8603847e-02
-2.8607515e-02
-2.8013897e-02
-2.6810092e-02
-2.5076455e-02
-2.2831580e-02
-1.9944809e-02
-1.6309500e-02
-1.2038317e-02
-7.3829204e-03
-2.6250394e-03
2.0790185e-03
6.6996273e-03
1.1097205e-02
1.5016057e-02
1.8379327e-02
2.1541893e-02
2.5046051e-02
2.9134329e-02
3.3559553e-02
3.7671621e-02
4.0823250e-02
4.2658023e-02
4.2941643e-02
4.1477510e-02
3.8272297e-02
3.3631336e-02
2.7976325e-02
2.1671885e-02
1.5086729e-02
8.6354705e-03
2.8151615e-03
-1.8690420e-03
-5.1438044e-03
-7.1129152e-03
-8.2184072e-03
-8.9580391e-03
-9.7607402e-03
-1.1151938e-02
-1.3684962e-02
-1.7597188e-02
-2.2505040e-02
-2.7595539e-02
-3.2239007e-02
-3.6268055e-02
-3.9731591e-02
-4.2579750e-02
-4.4685133e-02
-4.5948398e-02
-4.6242414e-02
-4.5384318e-02
-4.3104625e-02
-3.9121081e-02
-3.3352978e-02
-2.6007862e-02
-1.7395804e-02
-7.7085183e-03
2.7465426e-03
1.3215693e-02
2.2653568e-02
3.0196763e-02
3.5553947e-02
3.8872903e-02
4.0341694e-02
4.0015713e-02
3.7885650e-02
3.4204621e-02
2.9657521e-02
2.5126682e-02
2.1383716e-02
1.8964570e-02
1.8240308e-02
1.9272862e-02
2.1635750e-02
2.4627876e-02
2.7578791e-02
3.0012752e-02
3.1553832e-02
3.1778496e-02
3.0283666e-02
2.6873273e-02
2.1802450e-02
1.5737342e-02
9.4024578e-03
3.2435498e-03
-2.6900395e-03
-8.4410820e-03
-1.3858468e-02
-1.8685821e-02
-2.2820171e-02
-2.6446399e-02
-2.9807297e-02
-3.3052855e-02
-3.6365078e-02
-3.9981606e-02
-4.4067810e-02
-4.8519264e-02
-5.2930561e-02
-5.6750635e-02
-5.9466080e-02
-6.0694018e-02
-6.0049979e-02
-5.7162874e-02
-5.1871872e-02
-4.4280672e-02
-3.4708451e-02
-2.3511897e-02
-1.1044888e-02
2.1035145e-03
1.5037348e-02
2.6905750e-02
3.7340501e-02
4.6391262e-02
5.4194808e-02
6.0860280e-02
6.6479429e-02
7.1135867e-02
7.4751220e-02
7.6949548e-02
7.7132459e-02
7.4675472e-02
6.9274600e-02
6.1084528e-02
5.0556290e-02
3.8301554e-02
2.5019588e-02
1.1468286e-02
-1.6366616e-03
-1.3725270e-02
-2.4361560e-02
-3.3148192e-02
-3.9653353e-02
-4.3646434e-02
-4.5376628e-02
-4.5562173e-02
-4.5106193e-02
-4.4596798e-02
-4.4095974e-02
-4.3320977e-02
-4.1869838e-02
-3.9379871e-02
-3.5626225e-02
-3.0702476e-02
-2.5046638e-02
-1.9209011e-02
-1.3651595e-02
-8.6124097e-03
-4.1611522e-03
-3.7716156e-04
2.5548382e-03
4.4685659e-03
5.5882014e-03
6.5457795e-03
7.9850873e-03
1.0285174e-02
1.3516058e-02
1.7572200e-02
2.2191571e-02
2.6852411e-02
3.0835825e-02
3.3494843e-02
3.4514143e-02
3.3866218e-02
3.1732673e-02
2.8489515e-02
2.4534422e-02
2.0120072e-02
1.5258934e-02
9.8308749e-03
3.7990116e-03
-2.6959228e-03
-9.2496819e-03
-1.5326703e-02
-2.0551167e-02
-2.4825581e-02
-2.8239750e-02
-3.0848518e-02
-3.2595014e-02
-3.3343177e-02
-3.3030345e-02
-3.1905616e-02
-3.0412549e-02
-2.8921185e-02
-2.7603086e-02
-2.6385080e-02
-2.4962027e-02
-2.2815002e-02
-1.9389685e-02
-1.4355314e-02
-7.7440879e-03
8.8347145e-05
8.7538828e-03
1.8043099e-02
2.7813346e-02
3.7693674e-02
4.7045677e-02
5.5363295e-02
6.2446268e-02
6.8151207e-02
7.2107860e-02
7.3680893e-02
7.2279229e-02
6.7615804e-02
5.9690376e-02
4.8497797e-02
3.3784656e-02
1.5460904e-02
-5.6790987e-03
-2.7730291e-02
-4.8278926e-02
-6.5272830e-02
-7.7314192e-02
-8.3674627e-02
-8.4365698e-02
-8.0008967e-02
-7.1546680e-02
-6.0043954e-02
-4.6722450e-02
-3.2971643e-02
-2.0227086e-02
-9.7149002e-03
-2.0108225e-03
3.1668739e-03
6.6889373e-03
9.3358978e-03
1.1292080e-02
1.2441363e-02
1.2860388e-02
1.2973824e-02
1.3409494e-02
1.4720574e-02
1.7299961e-02
2.1292652e-02
2.6414513e-02
3.1951076e-02
3.6994171e-02
4.0694596e-02
4.2345495e-02
4.1491713e-02
3.7917051e-02
3.1535172e-02
2.2577961e-02
1.1704197e-02
-1.5747459e-04
-1.1990065e-02
-2.2830958e-02
-3.1871669e-02
-3.8672726e-02
-4.3306158e-02
-4.6265697e-02
-4.8154601e-02
-4.9217197e-02
-4.9252038e-02
-4.7884907e-02
-4.4820043e-02
-3.9965074e-02
-3.3352783e-02
-2.5132709e-02
-1.5722208e-02
-5.8869452e-03
3.4924612e-03
1.1871594e-02
1.9217634e-02
2.5851126e-02
3.1976753e-02
3.7312715e-02
4.1438975e-02
4.4253365e-02
4.5916807e-02
4.6536324e-02
4.6081119e-02
4.4658904e-02
4.2624540e-02
4.0432800e-02
3.8394349e-02
3.6517428e-02
3.4721329e-02
3.2978585e-02
3.1204800e-02
2.9113265e-02
2.6092130e-02
2.1378578e-02
1.4478476e-02
5.4755599e-03
-5.1255019e-03
-1.6771808e-02
-2.8816150e-02
-4.0330857e-02
-5.0261422e-02
-5.7906211e-02
-6.3179419e-02
-6.6285826e-02
-6.7425041e-02
-6.6791265e-02
-6.4641742e-02
-6.1312895e-02
-5.7106542e-02
-5.2231940e-02
-4.6782538e-02
-4.0767863e-02
-3.4191603e-02
-2.7001557e-02
-1.9067594e-02
-1.0163962e-02
-5.2696005e-05
1.1320644e-02
2.3824999e-02
3.7050177e-02
5.0078212e-02
6.1542840e-02
7.0053360e-02
7.4688113e-02
7.5240171e-02
7.2213357e-02
6.6457307e-02
5.8739677e-02
4.9731330e-02
4.0075021e-02
3.0382925e-02
2.1103550e-02
1.2277678e-02
3.6498731e-03
-4.9719936e-03
-1.3534654e-02
-2.1885024e-02
-2.9914946e-02
-3.7413857e-02
-4.4028817e-02
-4.9361282e-02
-5.3015898e-02
-5.4660711e-02
-5.4075517e-02
-5.1260692e-02
-4.6397328e-02
-3.9682620e-02
-3.1346319e-02
-2.1752305e-02
-1.1462519e-02
-1.1440005e-03
8.5025492e-03
1.6751340e-02
2.3118304e-02
2.7622289e-02
3.0747936e-02
3.3129111e-02
3.5255122e-02
3.7428574e-02
3.9698046e-02
4.1865803e-02
4.3558154e-02
4.4235458e-02
4.3448127e-02
4.1091756e-02
3.7240119e-02
3.1778408e-02
2.4449751e-02
1.5298656e-02
4.9413355e-03
-5.4197436e-03
-1.4464377e-02
-2.1506227e-02
-2.6631086e-02
-3.0293598e-02
-3.2972102e-02
-3.5114792e-02
-3.7078571e-02
-3.8867102e-02
-4.0154416e-02
-4.0619520e-02
-4.0230228e-02
-3.9214068e-02
-3.7763647e-02
-3.5905711e-02
-3.3507188e-02
-3.0473444e-02
-2.7020415e-02
-2.3468190e-02
-1.9805421e-02
-1.5560849e-02
-1.0144931e-02
-3.2540974e-03
5.0843024e-03
1.4527058e-02
2.4402812e-02
3.3792594e-02
4.1758009e-02
4.7694994e-02
5.1455290e-02
5.3146386e-02
5.2788168e-02
5.0214429e-02
4.5368280e-02
3.8485386e-02
3.0027571e-02
2.0502527e-02
1.0335504e-02
-7.4498936e-05
-1.0286236e-02
-1.9723296e-02
-2.7776707e-02
-3.4118024e-02
-3.8633441e-02
-4.1026843e-02
-4.0748669e-02
-3.7518576e-02
-3.1731751e-02
-2.4229022e-02
-1.5876416e-02
-7.2508613e-03
1.3799610e-03
9.8507025e-03
1.7934775e-02
2.5172816e-02
3.0937835e-02
3.4687796e-02
3.6081854e-02
3.5083222e-02
3.2042332e-02
2.7622944e-02
2.2413381e-02
1.6569907e-02
1.0017201e-02
2.8312575e-03
-4.6086729e-03
-1.1752199e-02
-1.8075530e-02
-2.3100805e-02
-2.6437019e-02
-2.7898706e-02
-2.7657597e-02
-2.6249715e-02
-2.4290437e-02
-2.2144465e-02
-1.9729532e-02
-1.6770790e-02
-1.3285983e-02
-9.5651472e-03
-5.7647287e-03
-1.7099748e-03
2.7675787e-03
7.4445327e-03
1.1754740e-02
1.5018146e-02
1.6799110e-02
1.7045076e-02
1.5899304e-02
1.3685688e-02
1.0864242e-02
7.8495913e-03
4.8714927e-03
1.9274324e-03
-1.0656337e-03
-3.9997513e-03
-6.3713150e-03
-7.5263792e-03
-7.1204900e-03
-5.1779510e-03
-1.9458187e-03
2.2188610e-03
6.8144812e-03
1.1100696e-02
1.4269659e-02
1.5800962e-02
1.5663219e-02
1.3989438e-02
1.0712267e-02
5.7785945e-03
-5.3390243e-04
-7.5304890e-03
-1.4345221e-02
-2.0365063e-02
-2.5285322e-02
-2.8826773e-02
-3.0517902e-02
-2.9924426e-02
-2.7097299e-02
-2.2660219e-02
-1.7492858e-02
-1.2255843e-02
-7.2980667e-03
-2.9146117e-03
6.1117930e-04
3.1818648e-03
5.0686029e-03
6.6932095e-03
8.2258809e-03
9.7013893e-03
1.1313755e-02
1.3377936e-02
1.5979446e-02
1.8750074e-02
2.1076824e-02
2.2443869e-02
2.2670622e-02
2.1858706e-02
2.0211601e-02
1.8012414e-02
1.5683223e-02
1.3857439e-02
1.3076073e-02
1.3334865e-02
1.4224582e-02
1.5379721e-02
1.6619197e-02
1.7655316e-02
1.7923688e-02
1.6892160e-02
1.4439093e-02
1.1018662e-02
7.2890711e-03
3.4795493e-03
-6.4352571e-04
-5.2971869e-03
-1.0311414e-02
-1.5301849e-02
-2.0082156e-02
-2.4719546e-02
-2.9301676e-02
-3.3679296e-02
-3.7553964e-02
-4.0814701e-02
-4.3568188e-02
-4.5859663e-02
-4.7422923e-02
-4.7855646e-02
-4.7018949e-02
-4.5089819e-02
-4.2249401e-02
-3.8327080e-02
-3.2916681e-02
-2.5798823e-02
-1.7095084e-02
-7.2559147e-03
3.0072506e-03
1.2856339e-02
2.1594131e-02
2.8935255e-02
3.4990212e-02
4.0149599e-02
4.4905099e-02
4.9600774e-02
5.4286154e-02
5.8700397e-02
6.2402521e-02
6.4865779e-02
6.5575492e-02
6.4162354e-02
6.0435319e-02
5.4432014e-02
4.6333378e-02
3.6347521e-02
2.4807355e-02
1.2219820e-02
-8.2810242e-04
-1.3847570e-02
-2.6502484e-02
-3.8453282e-02
-4.9152988e-02
-5.7767568e-02
-6.3542806e-02
-6.6219874e-02
-6.5995082e-02
-6.3283191e-02
-5.8528374e-02
-5.2273157e-02
-4.5227156e-02
-3.8050472e-02
-3.1128427e-02
-2.4490306e-02
-1.8008915e-02
-1.1608143e-02
-5.2236083e-03
1.2661720e-03
8.0979250e-03
1.5449031e-02
2.3159738e-02
3.0755800e-02
3.7662176e-02
4.3416728e-02
4.7685144e-02
5.0193998e-02
5.0757811e-02
4.9412242e-02
4.6602806e-02
4.2905787e-02
3.8528990e-02
3.3301475e-02
2.7001679e-02
1.9728626e-02
1.1918119e-02
4.0371476e-03
-3.5902171e-03
-1.0803336e-02
-1.7454911e-02
-2.3297054e-02
-2.8108425e-02
-3.1916199e-02
-3.4987401e-02
-3.7441247e-02
-3.9113795e-02
-3.9844766e-02
-3.9680331e-02
-3.8775451e-02
-3.7065522e-02
-3.4234342e-02
-3.0038793e-02
-2.4592180e-02
-1.8483851e-02
-1.2573392e-02
-7.6383747e-03
-4.1086529e-03
-1.9842970e-03
-9.3208986e-04
-3.3356727e-04
5.3075505e-04
2.1975099e-03
4.8692071e-03
8.3742036e-03
1.2390596e-02
1.6687442e-02
2.1170890e-02
2.5793463e-02
3.0395093e-02
3.4780547e-02
3.8779894e-02
4.2092547e-02
4.4224792e-02
4.4658569e-02
4.3166468e-02
3.9865142e-02
3.5063035e-02
2.9163595e-02
2.2589921e-02
1.5828882e-02
9.3166693e-03
3.2215492e-03
-2.4887271e-03
-7.8826552e-03
-1.2968841e-02
-1.7776572e-02
-2.2480480e-02
-2.7321460e-02
-3.2383564e-02
-3.7394194e-02
-4.1875514e-02
-4.5401980e-02
-4.7632140e-02
-4.8321975e-02
-4.7241374e-02
-4.4088088e-02
-3.8637345e-02
-3.1056704e-02
-2.2012539e-02
-1.2259270e-02
-2.2842888e-03
7.6208207e-03
1.7154308e-02
2.5889313e-02
3.3371957e-02
3.9197644e-02
4.3023096e-02
4.4605471e-02
4.3847409e-02
4.0915932e-02
3.6183291e-02
3.0114185e-02
2.3266270e-02
1.6214201e-02
9.5115104e-03
3.5361637e-03
-1.6914493e-03
-6.4281263e-03
-1.1018641e-02
-1.5645416e-02
-2.0236445e-02
-2.4565154e-02
-2.8353044e-02
-3.1366123e-02
-3.3407530e-02
-3.4314420e-02
-3.3962769e-02
-3.2343629e-02
-2.9785189e-02
-2.6900060e-02
-2.4206171e-02
-2.1815764e-02
-1.9580648e-02
-1.7424796e-02
-1.5210485e-02
-1.2546939e-02
-8.9875144e-03
-4.3296045e-03
1.3362041e-03
7.9463776e-03
1.5606915e-02
2.4318628e-02
3.3689263e-02
4.2991082e-02
5.1580010e-02
5.9111272e-02
6.5399750e-02
7.0150893e-02
7.2794365e-02
7.2715814e-02
6.9504592e-02
6.3034382e-02
5.3515170e-02
4.1487661e-02
2.7902284e-02
1.3977251e-02
7.9686416e-04
-1.0915445e-02
-2.0777311e-02
-2.8601674e-02
-3.4460853e-02
-3.8817281e-02
-4.2406636e-02
-4.5978605e-02
-4.9901274e-02
-5.4029623e-02
-5.8048194e-02
-6.1799156e-02
-6.5228372e-02
-6.8100210e-02
-6.9982759e-02
-7.0400750e-02
-6.8934566e-02
-6.5308332e-02
-5.9263233e-02
-5.0479658e-02
-3.8780030e-02
-2.4419345e-02
-8.2809510e-03
8.2316068e-03
2.3554416e-02
3.6486420e-02
4.6536223e-02
5.3854104e-02
5.9053286e-02
6.2825850e-02
6.5458434e-02
6.6727685e-02
6.6264084e-02
6.4064054e-02
6.0523322e-02
5.6097290e-02
5.1068132e-02
4.5471286e-02
3.9242729e-02
3.2371737e-02
2.4934021e-02
1.7043722e-02
8.7328768e-03
1.5035217e-06
-9.0398400e-03
-1.8030138e-02
-2.6348896e-02
-3.3383511e-02
-3.8712929e-02
-4.2175687e-02
-4.3856922e-02
-4.3920808e-02
-4.2491308e-02
-3.9626572e-02
-3.5435386e-02
-3.0167740e-02
-2.4265750e-02
-1.8423853e-02
-1.3275160e-02
-9.1038393e-03
-5.9747334e-03
-3.8980197e-03
-2.7872544e-03
-2.2576292e-03
-1.7553793e-03
-9.5182193e-04
1.3022403e-04
1.2489224e-03
2.2721271e-03
3.3302587e-03
4.5396026e-03
5.7280385e-03
6.5724722e-03
6.9341963e-03
6.8040255e-03
6.0627042e-03
4.4896681e-03
2.0387285e-03
-7.7529378e-04
-3.0168289e-03
-3.8854011e-03
-2.9975576e-03
-3.6781263e-04
3.7885516e-03
9.2089311e-03
1.5647708e-02
2.2883786e-02
3.0604327e-02
3.8361854e-02
4.5549717e-02
5.1410420e-02
5.5150057e-02
5.6056323e-02
5.3656818e-02
4.7679802e-02
3.7945708e-02
2.4518108e-02
7.9883122e-03
-1.0226655e-02
-2.8112237e-02
-4.3848070e-02
-5.6303479e-02
-6.4982675e-02
-6.9762398e-02
-7.0767005e-02
-6.8295355e-02
-6.2772168e-02
-5.4814688e-02
-4.5108747e-02
-3.4299606e-02
-2.3094269e-02
-1.2304690e-02
-2.7398397e-03
5.0316378e-03
1.0758415e-02
1.4444932e-02
1.6320917e-02
1.6734113e-02
1.6123934e-02
1.4983350e-02
1.3709675e-02
1.2510748e-02
1.1443494e-02
1.0620529e-02
1.0161636e-02
9.9330510e-03
9.6264170e-03
9.0407601e-03
8.2352662e-03
7.3420138e-03
6.3592438e-03
5.2875807e-03
4.2988755e-03
3.7464791e-03
3.8594286e-03
4.4469411e-03
5.0885057e-03
5.4251092e-03
5.3078883e-03
4.8138880e-03
4.1926986e-03
3.7968463e-03
3.9441419e-03
4.8834031e-03
6.7344524e-03
9.3875373e-03
1.2561161e-02
1.5972635e-02
1.9559812e-02
2.3330873e-02
2.6940920e-02
2.9706203e-02
3.1018323e-02
3.0670145e-02
2.8748508e-02
2.5365756e-02
2.0621124e-02
1.4599086e-02
7.3071362e-03
-1.3878621e-03
-1.1653894e-02
-2.3466147e-02
-3.6517342e-02
-5.0120750e-02
-6.3283909e-02
-7.5024582e-02
-8.4484802e-02
-9.0791202e-02
-9.2927413e-02
-9.0006993e-02
-8.1721823e-02
-6.8477938e-02
-5.1343631e-02
-3.1810661e-02
-1.1513415e-02
8.0047078e-03
2.5621849e-02
4.0788817e-02
5.3374118e-02
6.3294526e-02
7.0337169e-02
7.4337307e-02
7.5266783e-02
7.3329125e-02
6.9002985e-02
6.2869030e-02
5.5552182e-02
4.7699861e-02
3.9858182e-02
3.2306303e-02
2.5062682e-02
1.8119682e-02
1.1545382e-02
5.4591809e-03
-5.1346647e-05
-4.9802451e-03
-9.2928326e-03
-1.2897131e-02
-1.5728570e-02
-1.7895253e-02
-1.9642484e-02
-2.1009112e-02
-2.1729945e-02
-2.1571067e-02
-2.0780467e-02
-2.0110069e-02
-2.0275782e-02
-2.1545316e-02
-2.3767412e-02
-2.6749835e-02
-3.0529441e-02
-3.5130442e-02
-4.0218153e-02
-4.5008580e-02
-4.8587669e-02
-5.0320040e-02
-4.9863117e-02
-4.7013929e-02
-4.1605660e-02
-3.3628241e-02
-2.3409900e-02
-1.1458907e-02
1.6801868e-03
1.5318586e-02
2.8490943e-02
4.0084313e-02
4.9228579e-02
5.5527678e-02
5.9094929e-02
6.0399308e-02
5.9912230e-02
5.7933180e-02
5.4742664e-02
5.0808623e-02
4.6622659e-02
4.2387098e-02
3.8059837e-02
3.3610649e-02
2.9201699e-02
2.5061020e-02
2.1248300e-02
1.7659203e-02
1.4105883e-02
1.0391981e-02
6.2182731e-03
1.0399855e-03
-5.7108696e-03
-1.4191559e-02
-2.3850005e-02
-3.3671036e-02
-4.2687018e-02
-5.0118221e-02
-5.5345756e-02
-5.7886276e-02
-5.7538351e-02
-5.4615421e-02
-4.9786155e-02
-4.3799237e-02
-3.7383558e-02
-3.1229388e-02
-2.5898614e-02
-2.1658491e-02
-1.8476754e-02
-1.6120985e-02
-1.4417241e-02
-1.3372450e-02
-1.2821287e-02
-1.2320939e-02
-1.1468336e-02
-1.0083018e-02
-8.0695631e-03
-5.2054043e-03
-1.2872825e-03
3.5717367e-03
8.8876590e-03
1.4032753e-02
1.8558060e-02
2.2309809e-02
2.5377197e-02
2.7920578e-02
3.0026440e-02
3.1737363e-02
3.3114292e-02
3.4328857e-02
3.5575474e-02
3.6936105e-02
3.8558799e-02
4.0723444e-02
4.3593409e-02
4.6915517e-02
4.9997566e-02
5.1989513e-02
5.2047438e-02
4.9488002e-02
4.3933956e-02
3.5277445e-02
2.3777160e-02
1.0309505e-02
-3.5449444e-03
-1.6059850e-02
-2.6231646e-02
-3.3876799e-02
-3.9091514e-02
-4.1885526e-02
-4.2361987e-02
-4.1048508e-02
-3.8725746e-02
-3.6043343e-02
-3.3385757e-02
-3.1060554e-02
-2.9558664e-02
-2.9489401e-02
-3.1269483e-02
-3.4804837e-02
-3.9499361e-02
-4.4572367e-02
-4.9253835e-02
-5.2813450e-02
-5.4495448e-02
-5.3602715e-02
-4.9723003e-02
-4.2843112e-02
-3.3482342e-02
-2.2623176e-02
-1.1401572e-02
-8.1019918e-04
8.6309876e-03
1.6930071e-02
2.4333355e-02
3.1033294e-02
3.7069847e-02
4.2366844e-02
4.6717158e-02
4.9917069e-02
5.1993387e-02
5.3290114e-02
5.4383035e-02
5.5717970e-02
5.7402441e-02
5.9300667e-02
6.1111596e-02
6.2411013e-02
6.2578162e-02
6.0814232e-02
5.6323774e-02
4.8553438e-02
3.7592691e-02
2.4293171e-02
9.8905387e-03
-4.4886524e-03
-1.8077083e-02
-3.0362066e-02
-4.0924021e-02
-4.9384078e-02
-5.5538840e-02
-5.9447619e-02
-6.1207837e-02
-6.0916718e-02
-5.8827806e-02
-5.5385571e-02
-5.1159070e-02
-4.6603649e-02
-4.1910780e-02
-3.7067857e-02
-3.2066417e-02
-2.7113107e-02
-2.2460785e-02
-1.8146286e-02
-1.4060279e-02
-1.0236268e-02
-6.9334285e-03
-4.3695281e-03
-2.5772574e-03
-1.3805444e-03
-4.1844457e-04
6.6193068e-04
2.1963859e-03
4.5770100e-03
8.1277635e-03
1.2830723e-02
1.8179093e-02
2.3500078e-02
2.8326450e-02
3.2467939e-02
3.5872598e-02
3.8452431e-02
4.0223671e-02
4.1459037e-02
4.2516216e-02
4.3513334e-02
4.4165890e-02
4.4057651e-02
4.2856703e-02
4.0190274e-02
3.5612758e-02
2.8852324e-02
2.0127987e-02
1.0142682e-02
-1.7932574e-04
-9.9766561e-03
-1.8657619e-02
-2.5832503e-02
-3.1230168e-02
-3.4800674e-02
-3.6922729e-02
-3.8385557e-02
-3.9808541e-02
-4.1235457e-02
-4.2378651e-02
-4.2986474e-02
-4.2974602e-02
-4.2303582e-02
-4.0877299e-02
-3.8571009e-02
-3.5321725e-02
-3.1135536e-02
-2.5901761e-02
-1.9392558e-02
-1.1447758e-02
-2.1231894e-03
8.1921733e-03
1.8808275e-02
2.8766163e-02
3.6965212e-02
4.2512469e-02
4.5028606e-02
4.4821277e-02
4.2700546e-02
3.9514279e-02
3.5830743e-02
3.1943186e-02
2.8123168e-02
2.4602735e-02
2.1232414e-02
1.7389240e-02
1.2464554e-02
6.5601936e-03
4.1514746e-04
-5.2851426e-03
-1.0281470e-02
-1.4620218e-02
-1.8293677e-02
-2.1176433e-02
-2.3308888e-02
-2.5032136e-02
-2.6722482e-02
-2.8321767e-02
-2.9375323e-02
-2.9528680e-02
-2.8781991e-02
-2.7329844e-02
-2.5186127e-02
-2.2097204e-02
-1.7773345e-02
-1.2113475e-02
-5.3533152e-03
2.0231337e-03
9.3884001e-03
1.5978990e-02
2.1074859e-02
2.4317395e-02
2.5957769e-02
2.6710911e-02
2.7266726e-02
2.7870159e-02
2.8305381e-02
2.8297416e-02
2.7771606e-02
2.6792832e-02
2.5375772e-02
2.3352485e-02
2.0575380e-02
1.7096180e-02
1.3044505e-02
8.4450236e-03
3.2296583e-03
-2.4185226e-03
-7.9562197e-03
-1.2871093e-02
-1.7033619e-02
-2.0675541e-02
-2.4050350e-02
-2.7184776e-02
-2.9916441e-02
-3.2106728e-02
-3.3696863e-02
-3.4470817e-02
-3.4168456e-02
-3.2811011e-02
-3.0643631e-02
-2.7958397e-02
-2.4997446e-02
-2.1968626e-02
-1.9012262e-02
-1.6018585e-02
-1.2537756e-02
-7.8774699e-03
-1.5881745e-03
6.0517119e-03
1.4223003e-02
2.2100039e-02
2.9140385e-02
3.5015004e-02
3.9525525e-02
4.2560419e-02
4.3985210e-02
4.3741597e-02
4.1892613e-02
3.8453784e-02
3.3344750e-02
2.6509055e-02
1.8179703e-02
9.0008898e-03
-1.8007093e-04
-8.6144614e-03
-1.5788234e-02
-2.1289285e-02
-2.4796601e-02
-2.6256709e-02
-2.5906356e-02
-2.4164730e-02
-2.1482376e-02
-1.8271245e-02
-1.4859263e-02
-1.1471526e-02
-8.2723703e-03
-5.2937421e-03
-2.5584708e-03
-3.0412632e-04
1.0653411e-03
1.1688834e-03
-2.8633654e-05
-2.1504314e-03
-4.6894992e-03
-7.1072252e-03
-8.7757304e-03
-9.0046404e-03
-7.2994348e-03
-3.5983063e-03
1.7651622e-03
8.2078753e-03
1.5117873e-02
2.1900911e-02
2.7866924e-02
3.2212102e-02
3.4124301e-02
3.3135913e-02
2.9325179e-02
2.3221147e-02
1.5740815e-02
7.9838831e-03
8.9458766e-04
-5.0977620e-03
-1.0211877e-02
-1.4905454e-02
-1.9294550e-02
-2.2893830e-02
-2.5016633e-02
-2.5411847e-02
-2.4351638e-02
-2.2417218e-02
-2.0289642e-02
-1.8535919e-02
-1.7446202e-02
-1.6934671e-02
-1.6576105e-02
-1.5752048e-02
-1.4013955e-02
-1.1350848e-02
-7.9510628e-03
-3.9114387e-03
7.5960069e-04
5.8486419e-03
1.0698495e-02
1.4467899e-02
1.6598456e-02
1.7048843e-02
1.6109289e-02
1.4115143e-02
1.1455439e-02
8.5897837e-03
5.9268949e-03
3.6807992e-03
1.9050468e-03
6.9673100e-04
2.1801589e-04
6.2378436e-04
1.9057795e-03
3.7978600e-03
6.0186007e-03
8.3727135e-03
1.0588148e-02
1.2170448e-02
1.2498016e-02
1.1228351e-02
8.4743886e-03
4.5919717e-03
-5.7067163e-05
-5.0496161e-03
-9.7072115e-03
-1.3249964e-02
-1.5115430e-02
-1.5234192e-02
-1.4034396e-02
-1.1999896e-02
-9.4047498e-03
-6.3796581e-03
-3.0369493e-03
4.7860051e-04
4.0805218e-03
7.7062643e-03
1.1203905e-02
1.4223495e-02
1.6194937e-02
1.6660028e-02
1.5622125e-02
1.3495884e-02
1.0741685e-02
7.7245852e-03
4.8834364e-03
2.6538274e-03
1.2484319e-03
4.6900544e-04
-2.6325935e-04
-1.4046992e-03
-2.9402940e-03
-4.5581731e-03
-6.0047066e-03
-7.1739171e-03
-7.9116856e-03
-8.0279920e-03
-7.4874811e-03
-6.6023410e-03
-6.0197903e-03
-6.2948730e-03
-7.5940448e-03
-9.7914293e-03
-1.2729322e-02
-1.6337739e-02
-2.0387493e-02
-2.4256984e-02
-2.6996806e-02
-2.7721130e-02
-2.6038790e-02
-2.2077540e-02
-1.6299537e-02
-9.3198900e-03
-1.8400821e-03
5.3751580e-03
1.1718527e-02
1.6879058e-02
2.0802973e-02
2.3570583e-02
2.5254960e-02
2.5967295e-02
2.6002061e-02
2.5890535e-02
2.6092406e-02
2.6590965e-02
2.7000901e-02
2.6881320e-02
2.5871717e-02
2.3639238e-02
1.9837190e-02
1.4329366e-02
7.3907221e-03
-3.7493412e-04
-8.3934115e-03
-1.6309746e-02
-2.3763040e-02
-3.0346138e-02
-3.5775995e-02
-3.9999696e-02
-4.3101410e-02
-4.4945253e-02
-4.5123598e-02
-4.3326595e-02
-3.9672513e-02
-3.4586597e-02
-2.8326006e-02
-2.0852455e-02
-1.2041346e-02
-1.9365866e-03
9.1109697e-03
2.0601601e-02
3.1965759e-02
4.2506965e-02
5.1464773e-02
5.8252904e-02
6.2769922e-02
6.5368792e-02
6.6481396e-02
6.6218141e-02
6.4279846e-02
6.0245820e-02
5.3752272e-02
4.4539711e-02
3.2621995e-02
1.8552264e-02
3.4752461e-03
-1.1263893e-02
-2.4523109e-02
-3.5621067e-02
-4.4385033e-02
-5.0879324e-02
-5.5207429e-02
-5.7491615e-02
-5.8062327e-02
-5.7604432e-02
-5.6849631e-02
-5.6203572e-02
-5.5652315e-02
-5.5019107e-02
-5.4237191e-02
-5.3171789e-02
-5.1411279e-02
-4.8401253e-02
-4.3755698e-02
-3.7352384e-02
-2.9133307e-02
-1.9075415e-02
-7.3053838e-03
5.6925912e-03
1.8845959e-02
3.0769281e-02
4.0396305e-02
4.7316301e-02
5.1515465e-02
5.3051039e-02
5.2174880e-02
4.9495205e-02
4.5926017e-02
4.2414752e-02
3.9614214e-02
3.7808469e-02
3.6982416e-02
3.6950809e-02
3.7360472e-02
3.7691916e-02
3.7556973e-02
3.6875459e-02
3.5716970e-02
3.3982656e-02
3.1282296e-02
2.7147452e-02
2.1245449e-02
1.3585547e-02
4.5862650e-03
-5.0049414e-03
-1.4170788e-02
-2.1910246e-02
-2.7579555e-02
-3.1105750e-02
-3.2924188e-02
-3.3526535e-02
-3.3193787e-02
-3.2105928e-02
-3.0607551e-02
-2.9291106e-02
-2.8731391e-02
-2.9327422e-02
-3.1280316e-02
-3.4572642e-02
-3.8979942e-02
-4.4018202e-02
-4.8929608e-02
-5.2766249e-02
-5.4635632e-02
-5.3886162e-02
-4.9986579e-02
-4.2442498e-02
-3.1025558e-02
-1.6317240e-02
8.8467068e-05
1.6240794e-02
3.0558532e-02
4.2041382e-02
5.0103194e-02
5.4424285e-02
5.5068954e-02
5.2516359e-02
4.7553417e-02
4.1067825e-02
3.3792475e-02
2.6334304e-02
1.9313553e-02
1.3322377e-02
8.6476211e-03
5.1686984e-03
2.7553383e-03
1.5274141e-03
1.6807358e-03
3.1470904e-03
5.4377629e-03
7.9037915e-03
1.0046773e-02
1.1673404e-02
1.2779550e-02
1.3295689e-02
1.3178986e-02
1.2610228e-02
1.1992329e-02
1.1745012e-02
1.2031239e-02
1.2660703e-02
1.3128844e-02
1.2851099e-02
1.1306336e-02
7.9744716e-03
2.5242570e-03
-4.9943440e-03
-1.4177007e-02
-2.4403189e-02
-3.4993713e-02
-4.5149522e-02
-5.3911807e-02
-6.0371731e-02
-6.3993601e-02
-6.4704613e-02
-6.2592429e-02
-5.7705931e-02
-5.0063817e-02
-3.9881174e-02
-2.7942480e-02
-1.5384268e-02
-3.1411733e-03
8.1810616e-03
1.8107984e-02
2.6261925e-02
3.2585727e-02
3.7215324e-02
4.0136362e-02
4.1272166e-02
4.0819234e-02
3.9404114e-02
3.7787796e-02
3.6416871e-02
3.5247319e-02
3.3925099e-02
3.2253715e-02
3.0325354e-02
2.8267781e-02
2.6152446e-02
2.4100519e-02
2.2372730e-02
2.1136429e-02
2.0185113e-02
1.8979189e-02
1.6910965e-02
1.3663303e-02
9.2458322e-03
3.8135382e-03
-2.4292718e-03
-9.2550990e-03
-1.6255014e-02
-2.2930452e-02
-2.9044890e-02
-3.4666354e-02
-3.9952603e-02
-4.4912377e-02
-4.9336004e-02
-5.2826242e-02
-5.4968303e-02
-5.5609130e-02
-5.4744644e-02
-5.2344892e-02
-4.8427516e-02
-4.3069611e-02
-3.6419316e-02
-2.8662000e-02
-1.9984060e-02
-1.0723279e-02
-1.5899842e-03
6.4562403e-03
1.2816712e-02
1.7592170e-02
2.1310756e-02
2.4486919e-02
2.7437343e-02
3.0451916e-02
3.3798075e-02
3.7510434e-02
4.1372684e-02
4.5126596e-02
4.8675724e-02
5.1927676e-02
5.4571414e-02
5.6097218e-02
5.5950636e-02
5.3849732e-02
4.9906218e-02
4.4415136e-02
3.7508003e-02
2.8910376e-02
1.8182653e-02
5.1261406e-03
-9.9616998e-03
-2.6212911e-02
-4.2386623e-02
-5.7114648e-02
-6.9130547e-02
-7.7448199e-02
-8.1501743e-02
-8.1188405e-02
-7.6656256e-02
-6.8277234e-02
-5.6760312e-02
-4.3045679e-02
-2.8169474e-02
-1.3084565e-02
1.4500202e-03
1.4821054e-02
2.6503796e-02
3.6038230e-02
4.3117570e-02
4.7625917e-02
4.9596918e-02
4.9171974e-02
4.6607379e-02
4.2411608e-02
3.7290313e-02
3.1965537e-02
2.7062469e-02
2.2978916e-02
1.9900588e-02
1.7801584e-02
1.6391760e-02
1.5223394e-02
1.3935723e-02
1.2423002e-02
1.0537152e-02
7.7691228e-03
3.4562377e-03
-2.7991906e-03
-1.0845318e-02
-2.0099248e-02
-2.9943280e-02
-4.0048018e-02
-5.0261298e-02
-6.0032038e-02
-6.8284256e-02
-7.3935391e-02
-7.6360479e-02
-7.5463843e-02
-7.1360591e-02
-6.4154547e-02
-5.4046593e-02
-4.1555497e-02
-2.7525202e-02
-1.2773903e-02
2.0356785e-03
1.6179294e-02
2.8765315e-02
3.8967627e-02
4.6440373e-02
5.1316897e-02
5.3908646e-02
5.4512544e-02
5.3423111e-02
5.1212769e-02
4.8719863e-02
4.6683272e-02
4.5477845e-02
4.5034266e-02
4.5038974e-02
4.5089514e-02
4.4649876e-02
4.3081360e-02
3.9877042e-02
3.4950334e-02
2.8520060e-02
2.0811640e-02
1.2017909e-02
2.5048190e-03
-6.9517716e-03
-1.5384517e-02
-2.2109295e-02
-2.7036612e-02
-3.0702776e-02
-3.3797941e-02
-3.6670541e-02
-3.9245896e-02
-4.1233229e-02
-4.2392078e-02
-4.2583256e-02
-4.1811788e-02
-4.0278938e-02
-3.8298682e-02
-3.6173803e-02
-3.3951255e-02
-3.1365300e-02
-2.8100302e-02
-2.4057231e-02
-1.9408853e-02
-1.4365467e-02
-9.0902790e-03
-3.8100222e-03
1.2395968e-03
5.9789874e-03
1.0578710e-02
1.5275251e-02
2.0216888e-02
2.5465529e-02
3.0852642e-02
3.5929556e-02
4.0046925e-02
4.2441644e-02
4.2387505e-02
3.9435706e-02
3.3661853e-02
2.5559132e-02
1.5795260e-02
5.1226287e-03
-5.6792205e-03
-1.5775082e-02
-2.4363915e-02
-3.0819757e-02
-3.4697233e-02
-3.5771589e-02
-3.4007761e-02
-2.9475622e-02
-2.2358870e-02
-1.3177138e-02
-2.9831108e-03
6.9940757e-03
1.5876477e-02
2.3258010e-02
2.8932003e-02
3.2689957e-02
3.4492343e-02
3.4464249e-02
3.2748512e-02
2.9593193e-02
2.5398963e-02
2.0632625e-02
1.5624427e-02
1.0455299e-02
5.0579833e-03
-6.2085084e-04
-6.3994838e-03
-1.1858111e-02
-1.6640438e-02
-2.0765328e-02
-2.4572128e-02
-2.8220880e-02
-3.1459853e-02
-3.3904096e-02
-3.5425973e-02
-3.6240003e-02
-3.6501381e-02
-3.6038296e-02
-3.4498769e-02
-3.1616941e-02
-2.7358572e-02
-2.1807662e-02
-1.5080125e-02
-7.3497204e-03
1.0674252e-03
9.6609542e-03
1.7898484e-02
2.5386762e-02
3.1899133e-02
3.7234467e-02
4.1142956e-02
4.3602049e-02
4.4909236e-02
4.5381352e-02
4.4988633e-02
4.3311536e-02
3.9954999e-02
3.4877628e-02
2.8369526e-02
2.0804784e-02
1.2509113e-02
3.8979700e-03
-4.5291737e-03
-1.2331706e-02
-1.9317893e-02
-2.5619641e-02
-3.1375437e-02
-3.6463008e-02
-4.0539198e-02
-4.3286230e-02
-4.4639628e-02
-4.4697896e-02
-4.3505046e-02
-4.0976322e-02
-3.7129979e-02
-3.2292487e-02
-2.6893144e-02
-2.1198771e-02
-1.5194760e-02
-8.7530663e-03
-1.9592985e-03
4.8336580e-03
1.1164560e-02
1.6731834e-02
2.1536866e-02
2.5843214e-02
3.0013772e-02
3.4149979e-02
3.8071510e-02
4.1550187e-02
4.4265922e-02
4.5744028e-02
4.5467007e-02
4.3100780e-02
3.8583807e-02
3.2077726e-02
2.3931894e-02
1.4565505e-02
4.4645644e-03
-5.8481008e-03
-1.5890141e-02
-2.5070966e-02
-3.2704858e-02
-3.8239852e-02
-4.1391895e-02
-4.2060130e-02
-4.0138734e-02
-3.5475130e-02
-2.8006203e-02
-1.8263785e-02
-7.6641606e-03
2.1198931e-03
9.8694326e-03
1.4943872e-02
1.7069137e-02
1.6226906e-02
1.2766846e-02
7.4474521e-03
1.3196347e-03
-4.5951219e-03
-9.5670178e-03
-1.3065263e-02
-1.4637545e-02
-1.4017903e-02
-1.1428155e-02
-7.5806136e-03
-3.2196350e-03
1.1985906e-03
5.5354028e-03
9.7063791e-03
1.3348118e-02
1.5894215e-02
1.6932598e-02
1.6512504e-02
1.5059079e-02
1.3039515e-02
1.0823837e-02
8.6993446e-03
6.9347914e-03
5.6245125e-03
4.4727686e-03
3.0265802e-03
1.1212499e-03
-9.3536123e-04
-2.7400257e-03
-4.2649605e-03
-5.7403358e-03
-7.2813357e-03
-8.7833603e-03
-1.0189149e-02
-1.1618188e-02
-1.3112715e-02
-1.4512884e-02
-1.5524771e-02
-1.5991917e-02
-1.6163696e-02
-1.6475972e-02
-1.7167143e-02
-1.8172853e-02
-1.9342705e-02
-2.0577337e-02
-2.1674580e-02
-2.2336099e-02
-2.2338665e-02
-2.1573164e-02
-1.9927746e-02
-1.7238843e-02
-1.3391509e-02
-8.2812773e-03
-1.7702383e-03
6.2120910e-03
1.5534097e-02
2.5831348e-02
3.6741710e-02
4.7935670e-02
5.8832755e-02
6.8539287e-02
7.6132699e-02
8.1027086e-02
8.2884034e-02
8.1342956e-02
7.6167049e-02
6.7487160e-02
5.5833215e-02
4.2012700e-02
2.7143325e-02
1.2563767e-02
-7.4580468e-04
-1.2436288e-02
-2.2567491e-02
-3.1402131e-02
-3.9299224e-02
-4.6645140e-02
-5.3684528e-02
-6.0487924e-02
-6.7101251e-02
-7.3593672e-02
-7.9908864e-02
-8.5621606e-02
-9.0082311e-02
-9.2786539e-02
-9.3433314e-02
-9.1734554e-02
-8.7196459e-02
-7.9178501e-02
-6.7172560e-02
-5.1035027e-02
-3.1123104e-02
-8.2991169e-03
1.6025898e-02
3.9872757e-02
6.1024623e-02
7.7746811e-02
8.9362728e-02
9.6092508e-02
9.8574779e-02
9.7478088e-02
9.3290656e-02
8.6523994e-02
7.7877510e-02
6.8112868e-02
5.7811239e-02
4.7238415e-02
3.6619164e-02
2.6350014e-02
1.6864226e-02
8.3775934e-03
6.8921819e-04
-6.7018121e-03
-1.4311258e-02
-2.2430890e-02
-3.1110742e-02
-4.0279352e-02
-4.9611112e-02
-5.8383604e-02
-6.5597529e-02
-7.0323445e-02
-7.1979533e-02
-7.0279829e-02
-6.5211820e-02
-5.7060833e-02
-4.6383602e-02
-3.4000891e-02
-2.0842065e-02
-7.7500633e-03
4.6652436e-03
1.6021245e-02
2.6005793e-02
3.4369272e-02
4.1064929e-02
4.6372366e-02
5.0684156e-02
5.4106353e-02
5.6445795e-02
5.7433840e-02
5.6816234e-02
5.4203212e-02
4.9054829e-02
4.1121387e-02
3.0894327e-02
1.9622073e-02
8.6571123e-03
-1.2961567e-03
-1.0211511e-02
-1.8298685e-02
-2.5520796e-02
-3.1550501e-02
-3.6165901e-02
-3.9375105e-02
-4.1225001e-02
-4.1635266e-02
-4.0584591e-02
-3.8418042e-02
-3.5713152e-02
-3.2969472e-02
-3.0425933e-02
-2.8131460e-02
-2.6134626e-02
-2.4373810e-02
-2.2459620e-02
-1.9709713e-02
-1.5514496e-02
-9.6658926e-03
-2.3323481e-03
6.0468613e-03
1.4808130e-02
2.3090729e-02
3.0054518e-02
3.5261852e-02
3.8781937e-02
4.0997795e-02
4.2276167e-02
4.2747353e-02
4.2244942e-02
4.0306273e-02
3.6501573e-02
3.0774905e-02
2.3450434e-02
1.5071570e-02
6.1810076e-03
-2.7028800e-03
-1.1101454e-02
-1.8711853e-02
-2.5359689e-02
-3.0831952e-02
-3.4816873e-02
-3.7190121e-02
-3.8278085e-02
-3.8658516e-02
-3.8789987e-02
-3.8710308e-02
-3.8148502e-02
-3.6882445e-02
-3.4758265e-02
-3.1609499e-02
-2.7296793e-02
-2.1749112e-02
-1.4946199e-02
-6.9200583e-03
2.2002831e-03
1.2252205e-02
2.3036576e-02
3.4205832e-02
4.5144133e-02
5.4981833e-02
6.2977538e-02
6.8806243e-02
7.2430870e-02
7.3822495e-02
7.2829549e-02
6.9347966e-02
6.3416146e-02
5.5089768e-02
4.4376961e-02
3.1522651e-02
1.7497561e-02
3.7960050e-03
-8.3734159e-03
-1.8559561e-02
-2.6941006e-02
-3.3863969e-02
-3.9669228e-02
-4.4857552e-02
-5.0089996e-02
-5.5916851e-02
-6.2413562e-02
-6.9108637e-02
-7.5259450e-02
-8.0210311e-02
-8.3527376e-02
-8.4793215e-02
-8.3511195e-02
-7.9258486e-02
-7.1877469e-02
-6.1512954e-02
-4.8387434e-02
-3.2676012e-02
-1.4586054e-02
5.4500845e-03
2.6483079e-02
4.7032804e-02
6.5537858e-02
8.0815024e-02
9.2006923e-02
9.8462646e-02
1.0003290e-01
9.7296591e-02
9.1414548e-02
8.3559710e-02
7.4423008e-02
6.4415727e-02
5.4000557e-02
4.3691157e-02
3.3857172e-02
2.4597455e-02
1.5855011e-02
7.5554325e-03
-3.2441289e-04
-7.9162691e-03
-1.5628477e-02
-2.3887147e-02
-3.2835442e-02
-4.2320821e-02
-5.2108436e-02
-6.1995614e-02
-7.1649904e-02
-8.0437657e-02
-8.7338241e-02
-9.1239559e-02
-9.1529304e-02
-8.8288626e-02
-8.1941037e-02
-7.2751315e-02
-6.0794357e-02
-4.6338849e-02
-3.0026728e-02
-1.2700001e-02
4.9090451e-03
2.2243700e-02
3.8822965e-02
5.4138834e-02
6.7581026e-02
7.8716527e-02
8.7491217e-02
9.3903187e-02
9.7644514e-02
9.8230382e-02
9.5479222e-02
8.9644291e-02
8.1201561e-02
7.0667109e-02
5.8465886e-02
4.5048586e-02
3.1024922e-02
1.6983842e-02
3.1753853e-03
-1.0501952e-02
-2.4028844e-02
-3.6938075e-02
-4.8460879e-02
-5.7964573e-02
-6.5327628e-02
-7.0800428e-02
-7.4687978e-02
-7.7215735e-02
-7.8517183e-02
-7.8655314e-02
-7.7537382e-02
-7.4872306e-02
-7.0252948e-02
-6.3390578e-02
-5.4236484e-02
-4.2700362e-02
-2.8613373e-02
-1.2187349e-02
5.5502487e-03
2.2870335e-02
3.8073589e-02
5.0051484e-02
5.8316709e-02
6.2778698e-02
6.3627406e-02
6.1470939e-02
5.7282832e-02
5.2108543e-02
4.6773796e-02
4.1736928e-02
3.7180376e-02
3.3121295e-02
2.9472287e-02
2.5953559e-02
2.2026131e-02
1.7132102e-02
1.0920466e-02
3.3912599e-03
-5.0835817e-03
-1.3932172e-02
-2.2539247e-02
-3.0328928e-02
-3.6718580e-02
-4.1242896e-02
-4.3762338e-02
-4.4322876e-02
-4.2945159e-02
-3.9531834e-02
-3.4048427e-02
-2.6813327e-02
-1.8389614e-02
-9.3081811e-03
3.7562575e-05
9.2177895e-03
1.7600786e-02
2.4521374e-02
2.9586434e-02
3.2937281e-02
3.5036918e-02
3.6084618e-02
3.5881463e-02
3.4158999e-02
3.0817507e-02
2.5823869e-02
1.9114576e-02
1.0726456e-02
9.9944683e-04
-9.2108797e-03
-1.8695718e-02
-2.6399680e-02
-3.1758439e-02
-3.4773924e-02
-3.5836276e-02
-3.5465046e-02
-3.4152847e-02
-3.2323122e-02
-3.0248057e-02
-2.7849118e-02
-2.4782812e-02
-2.0745121e-02
-1.5641724e-02
-9.5509681e-03
-2.5027287e-03
5.4945876e-03
1.4187193e-02
2.2966853e-02
3.1001912e-02
3.7538427e-02
4.2026236e-02
4.4004234e-02
4.2974560e-02
3.8553150e-02
3.0956980e-02
2.1178482e-02
1.0552248e-02
1.5560396e-04
-9.3702414e-03
-1.7553846e-02
-2.3941321e-02
-2.8087110e-02
-2.9654270e-02
-2.8590207e-02
-2.5075181e-02
-1.9416294e-02
-1.2020300e-02
-3.4426324e-03
5.5911121e-03
1.4345784e-02
2.2233866e-02
2.8870560e-02
3.3864046e-02
3.6617149e-02
3.6579240e-02
3.3523458e-02
2.7593645e-02
1.9169466e-02
8.7519896e-03
-2.8734000e-03
-1.4546650e-02
-2.5049544e-02
-3.3669787e-02
-4.0309443e-02
-4.5013582e-02
-4.7657933e-02
-4.7914767e-02
-4.5490465e-02
-4.0506705e-02
-3.3559874e-02
-2.5494505e-02
-1.7115053e-02
-9.1356867e-03
-2.2224345e-03
3.2551162e-03
7.4347166e-03
1.0825326e-02
1.3891011e-02
1.6798170e-02
1.9528596e-02
2.2019541e-02
2.4311552e-02
2.6548027e-02
2.8745139e-02
3.0631877e-02
3.1689451e-02
3.1476967e-02
2.9914773e-02
2.7148175e-02
2.3228331e-02
1.8135091e-02
1.2114360e-02
5.6345832e-03
-9.0389420e-04
-7.2525062e-03
-1.3217633e-02
-1.8361928e-02
-2.1989117e-02
-2.3571078e-02
-2.3074059e-02
-2.0899706e-02
-1.7563995e-02
-1.3537002e-02
-9.2211047e-03
-4.9577570e-03
-1.0450355e-03
2.4069580e-03
5.4735499e-03
8.2566075e-03
1.0788645e-02
1.2986858e-02
1.4719168e-02
1.5793616e-02
1.5963507e-02
1.5012204e-02
1.2785042e-02
9.2866249e-03
4.7013552e-03
-6.3498874e-04
-6.3256460e-03
-1.2167668e-02
-1.8209477e-02
-2.4432972e-02
-3.0382712e-02
-3.5355534e-02
-3.8866589e-02
-4.0649909e-02
-4.0488046e-02
-3.8165610e-02
-3.3588042e-02
-2.6983288e-02
-1.8850460e-02
-9.7131180e-03
4.0056134e-05
9.9455499e-03
1.9162532e-02
2.6654673e-02
3.1769609e-02
3.4635515e-02
3.5854346e-02
3.5968650e-02
3.5299316e-02
3.3943833e-02
3.1893485e-02
2.9159810e-02
2.5791893e-02
2.1835378e-02
1.7336532e-02
1.2585304e-02
8.1622670e-03
4.6084226e-03
2.1484634e-03
7.2772829e-04
3.2798413e-04
9.5724012e-04
2.2683701e-03
3.4245636e-03
3.4196666e-03
1.6796962e-03
-1.6695788e-03
-6.0296473e-03
-1.0643298e-02
-1.4806920e-02
-1.7927597e-02
-1.9585555e-02
-1.9639006e-02
-1.8381382e-02
-1.6626731e-02
-1.5338055e-02
-1.5108689e-02
-1.6002396e-02
-1.7777033e-02
-2.0141740e-02
-2.2721418e-02
-2.5035800e-02
-2.6657326e-02
-2.7350122e-02
-2.7078883e-02
-2.5830807e-02
-2.3426143e-02
-1.9503907e-02
-1.3789723e-02
-6.3760986e-03
2.3343909e-03
1.1745403e-02
2.1091218e-02
2.9492048e-02
3.6149467e-02
4.0644535e-02
4.3001681e-02
4.3512314e-02
4.2494752e-02
4.0152977e-02
3.6664520e-02
3.2266419e-02
2.7239281e-02
2.1851924e-02
1.6291140e-02
1.0655011e-02
5.0408888e-03
-3.0953238e-04
-5.0507283e-03
-8.9449927e-03
-1.1950960e-02
-1.4196977e-02
-1.5889915e-02
-1.7212187e-02
-1.8285576e-02
-1.9179672e-02
-1.9908786e-02
-2.0364831e-02
-2.0344751e-02
-1.9710050e-02
-1.8467122e-02
-1.6715712e-02
-1.4552881e-02
-1.2066720e-02
-9.3958690e-03
-6.7288779e-03
-4.2428324e-03
-2.0228381e-03
-7.2182978e-05
1.5953640e-03
2.9332488e-03
3.9083470e-03
4.5299850e-03
4.8363673e-03
4.8824195e-03
4.7369443e-03
4.4613939e-03
4.1065625e-03
3.7173861e-03
3.3205473e-03
2.9258631e-03
2.5377463e-03
