1.0089170e-02
1.8351495e-02
2.2167136e-02
2.3662941e-02
2.3897307e-02
2.3431516e-02
2.2567209e-02
2.1043768e-02
2.0359699e-02
1.9325295e-02
1.7626633e-02
1.5877957e-02
1.3025096e-02
1.0478766e-02
8.3532944e-03
6.4487199e-03
4.7499070e-03
2.1806581e-03
-1.9371826e-04
-1.9085084e-03
-2.1282731e-03
-1.8268943e-03
-3.2074329e-03
-5.2300498e-03
-8.1327647e-03
-1.0237577e-02
-9.7391457e-03
-8.8585611e-03
-8.1537871e-03
-7.3079486e-03
-5.2017256e-03
-2.2534311e-03
-1.7127785e-04
1.8307904e-03
3.4272353e-03
5.0119314e-03
6.0804889e-03
5.6305879e-03
5.6399866e-03
6.7519284e-03
9.3706035e-03
1.2213176e-02
1.3658193e-02
1.4859029e-02
1.5920655e-02
1.7598184e-02
1.9252384e-02
1.9216764e-02
1.7519422e-02
1.2681640e-02
6.2533812e-03
7.3356766e-04
-3.4419087e-03
-5.6761526e-03
-6.9234319e-03
-5.8993013e-03
-2.9883440e-03
-1.5810234e-04
3.3835987e-03
6.3978247e-03
8.4248089e-03
9.7115361e-03
1.0273030e-02
1.0491202e-02
9.0615709e-03
7.3595242e-03
6.5431671e-03
5.8564497e-03
4.9956564e-03
2.7554334e-03
4.6273754e-04
-9.1906948e-04
-2.0809042e-03
-3.9640589e-03
-8.0676039e-03
-1.3202393e-02
-1.8735747e-02
-2.3703977e-02
-2.6908245e-02
-2.9314586e-02
-2.9547014e-02
-2.8299402e-02
-2.7201537e-02
-2.6011390e-02
-2.5711743e-02
-2.5438087e-02
-2.5071316e-02
-2.4177001e-02
-2.2833718e-02
-2.2550346e-02
-2.1011594e-02
-1.7913770e-02
-1.5225085e-02
-1.3905779e-02
-1.4618014e-02
-1.5493331e-02
-1.5253854e-02
-1.3252459e-02
-9.9464801e-03
-6.1944392e-03
-4.5560657e-04
5.5931249e-03
1.0445731e-02
1.3511297e-02
1.2960256e-02
1.0384787e-02
6.9845126e-03
3.4081280e-03
-7.7726251e-04
-6.7423081e-03
-1.2397149e-02
-1.7627391e-02
-2.2864089e-02
-2.7461580e-02
-3.1280871e-02
-3.3820123e-02
-3.6110114e-02
-3.7268003e-02
-3.7259541e-02
-3.7572939e-02
-3.7047160e-02
-3.5926836e-02
-3.3207850e-02
-2.7236762e-02
-1.6819041e-02
-1.9880090e-03
1.2401395e-02
2.4039870e-02
3.2202803e-02
3.6643294e-02
3.9162766e-02
3.8986983e-02
3.6327799e-02
3.1772677e-02
2.4864314e-02
1.6655939e-02
8.5233483e-03
2.7282687e-03
-1.1509560e-03
-4.7743989e-03
-8.0445158e-03
-1.1194016e-02
-1.2665842e-02
-1.2853398e-02
-1.2790783e-02
-1.2272962e-02
-1.2317562e-02
-1.1485747e-02
-9.4194954e-03
-6.0018654e-03
-1.0126087e-03
3.0371356e-03
7.4850154e-03
1.2749612e-02
1.7117060e-02
2.0878369e-02
2.3197329e-02
2.5265182e-02
2.7249451e-02
2.8599048e-02
2.9679702e-02
2.9317479e-02
2.9299079e-02
3.0018660e-02
3.1131331e-02
3.3604096e-02
3.5939714e-02
3.8490958e-02
4.1818859e-02
4.5542827e-02
4.8702049e-02
4.9247528e-02
4.7193084e-02
4.0953148e-02
2.8934992e-02
1.3796202e-02
1.5929737e-05
-8.8138004e-03
-1.3103270e-02
-1.3887008e-02
-1.2352677e-02
-1.0904963e-02
-9.2458112e-03
-8.0904725e-03
-8.4069773e-03
-1.0489974e-02
-1.4641284e-02
-1.8313347e-02
-2.0906737e-02
-2.1941979e-02
-2.0587017e-02
-1.8551002e-02
-1.6598345e-02
-1.5860403e-02
-1.6609858e-02
-1.8499785e-02
-2.1481816e-02
-2.2707809e-02
-2.0379189e-02
-1.4173303e-02
-5.3832428e-03
2.2644726e-03
7.0919422e-03
8.2162719e-03
6.4466268e-03
2.7605650e-03
-2.9102512e-03
-9.1842238e-03
-1.5908910e-02
-2.1958981e-02
-2.7519900e-02
-3.4101720e-02
-4.0290613e-02
-4.5723527e-02
-4.9064318e-02
-5.0274230e-02
-5.1888944e-02
-5.3820697e-02
-5.5888197e-02
-5.5977389e-02
-5.2829952e-02
-4.7697111e-02
-3.9813636e-02
-2.8597603e-02
-1.2083715e-02
7.0149342e-03
2.1557683e-02
3.0843677e-02
3.6476684e-02
4.0136786e-02
4.2374731e-02
4.2495781e-02
4.1584072e-02
3.9847453e-02
3.8439545e-02
3.7457927e-02
3.5892953e-02
3.4069911e-02
3.0865187e-02
2.7099298e-02
2.2865349e-02
1.7200163e-02
1.1317770e-02
5.4643008e-03
1.4800755e-03
-2.8065817e-04
-1.4198496e-03
-1.7572317e-03
-1.4347792e-03
9.3265126e-04
4.9808160e-03
8.1623699e-03
9.9726929e-03
1.0910509e-02
1.2679400e-02
1.4476277e-02
1.4691724e-02
1.4303702e-02
1.3687725e-02
1.3934445e-02
1.4525533e-02
1.4585170e-02
1.4564384e-02
1.4135239e-02
1.4491880e-02
1.4805295e-02
1.4723491e-02
1.4618538e-02
1.2833747e-02
1.1277524e-02
1.1019932e-02
1.1277214e-02
1.1091845e-02
8.6492785e-03
5.6069516e-03
2.9061834e-03
3.9689748e-04
-2.4894293e-03
-6.6843607e-03
-1.0158881e-02
-1.2770255e-02
-1.4402148e-02
-1.4915241e-02
-1.5490524e-02
-1.4557649e-02
-1.2277807e-02
-1.0027978e-02
-8.6672383e-03
-9.3164249e-03
-1.0674808e-02
-1.1670477e-02
-1.1349772e-02
-1.0169707e-02
-1.0132032e-02
-1.0473025e-02
-1.0893969e-02
-1.1099281e-02
-1.1111031e-02
-1.1875345e-02
-1.2523779e-02
-1.2717380e-02
-1.1474847e-02
-9.4827870e-03
-8.6360582e-03
-7.4780537e-03
-5.6273933e-03
-3.1315661e-03
-8.1956566e-04
1.9124088e-04
1.4299656e-03
2.6103362e-03
4.4049980e-03
7.1974608e-03
8.9326899e-03
9.1448323e-03
7.8388850e-03
7.2022352e-03
7.2273674e-03
5.8296131e-03
4.2403411e-03
2.6902553e-03
2.1221829e-03
2.5843403e-03
2.3683575e-03
1.6994295e-03
6.3590826e-04
1.3618224e-04
-9.5157481e-04
-3.4922600e-03
-5.3732478e-03
-6.9196023e-03
-7.3200608e-03
-6.2084126e-03
-4.9660583e-03
-3.7240253e-03
-3.3087060e-03
-2.8795102e-03
-2.8121969e-03
-4.4137132e-03
-6.3753261e-03
-8.1869254e-03
-9.1259714e-03
-9.9393229e-03
-1.1291321e-02
-1.1975400e-02
-1.2488488e-02
-1.1710531e-02
-1.0016200e-02
-8.6693409e-03
-6.3504970e-03
-3.0855573e-03
1.2739089e-03
5.4367380e-03
8.8511260e-03
1.2334959e-02
1.4457659e-02
1.5669935e-02
1.6260755e-02
1.6384600e-02
1.6690532e-02
1.6122433e-02
1.5667702e-02
1.5533254e-02
1.5174138e-02
1.5152448e-02
1.4517010e-02
1.2915527e-02
1.0138770e-02
7.0551146e-03
4.2637462e-03
1.3468650e-03
1.4365661e-05
-3.2025385e-04
-7.8506821e-04
-1.3753945e-03
-2.8859949e-03
-3.7840664e-03
-4.1493281e-03
-4.5968809e-03
-4.1463243e-03
-2.8832379e-03
5.3580285e-04
4.7462526e-03
8.3103620e-03
1.1816652e-02
1.4536983e-02
1.7354871e-02
1.9765904e-02
2.1795669e-02
2.4093273e-02
2.6170927e-02
2.9287189e-02
3.2460819e-02
3.4483819e-02
3.4613335e-02
3.1863964e-02
2.8263093e-02
2.4069754e-02
1.8543543e-02
1.0184473e-02
-1.2691901e-03
-1.0575173e-02
-1.5831528e-02
-1.8053728e-02
-1.8417221e-02
-1.9350560e-02
-2.0771942e-02
-2.2009079e-02
-2.2156186e-02
-2.1964171e-02
-2.2604528e-02
-2.3056095e-02
-2.4141976e-02
-2.5270684e-02
-2.6343852e-02
-2.8549570e-02
-3.0434222e-02
-3.1616868e-02
-3.0991005e-02
-2.8337864e-02
-2.5155649e-02
-2.1326012e-02
-1.7459125e-02
-1.2492977e-02
-5.8973654e-03
-7.0611237e-05
4.3693520e-03
8.0956993e-03
1.2475844e-02
1.6690472e-02
1.9049533e-02
2.0273294e-02
2.0123006e-02
1.9977186e-02
2.0018059e-02
1.8792140e-02
1.7307051e-02
1.5558112e-02
1.3856267e-02
1.1483673e-02
8.4019969e-03
6.4290850e-03
4.3588319e-03
2.9358766e-03
2.4573082e-03
8.1611020e-04
-1.1689181e-03
-3.3588746e-03
-5.0515356e-03
-5.6533965e-03
-6.2967907e-03
-7.1190144e-03
-8.7845372e-03
-1.0316183e-02
-1.1677269e-02
-1.3986581e-02
-1.6150479e-02
-1.7515859e-02
-1.6823356e-02
-1.4340385e-02
-1.0950015e-02
-6.0743202e-03
-1.4907222e-03
1.7957781e-03
3.6469916e-03
4.5963817e-03
5.8745471e-03
6.3095973e-03
6.3826100e-03
6.1637449e-03
5.5733061e-03
5.4680388e-03
4.9124881e-03
5.4592341e-03
7.1758277e-03
8.5968810e-03
9.5736775e-03
9.6136911e-03
1.0553066e-02
1.1722844e-02
1.1351494e-02
9.7068541e-03
6.1114195e-03
2.7804466e-03
7.0365124e-04
-1.5989251e-03
-4.4645031e-03
-8.4246359e-03
-1.1333701e-02
-1.2327144e-02
-1.2436351e-02
-1.2351459e-02
-1.3493720e-02
-1.4311895e-02
-1.4531446e-02
-1.4798302e-02
-1.4290139e-02
-1.2972032e-02
-8.9102302e-03
-2.2077913e-03
4.9809771e-03
1.0617436e-02
1.3212665e-02
1.4811793e-02
1.6113703e-02
1.7007484e-02
1.7682443e-02
1.7021899e-02
1.5946063e-02
1.4916521e-02
1.4364326e-02
1.4545936e-02
1.4521089e-02
1.5081503e-02
1.5335568e-02
1.4617434e-02
1.3360238e-02
1.1488442e-02
1.0613185e-02
1.0121572e-02
9.4161867e-03
8.2963089e-03
5.0600440e-03
1.2156382e-03
-2.6168570e-03
-6.6192012e-03
-9.9745439e-03
-1.3198361e-02
-1.5356646e-02
-1.6063291e-02
-1.5279753e-02
-1.3426621e-02
-1.2197402e-02
-1.1527190e-02
-1.1343956e-02
-1.0036498e-02
-7.0033602e-03
-4.1948924e-03
-1.3878251e-03
1.0125070e-03
3.4271450e-03
5.7740226e-03
6.0991280e-03
5.6912424e-03
5.3515609e-03
5.7055790e-03
6.4557558e-03
5.4657009e-03
3.2708280e-03
-2.9023492e-04
-4.4414824e-03
-7.5339013e-03
-1.0057553e-02
-1.1801727e-02
-1.2907526e-02
-1.3596063e-02
-1.4231588e-02
-1.4647952e-02
-1.4433268e-02
-1.5281738e-02
-1.6387196e-02
-1.7400166e-02
-1.9814804e-02
-2.2054857e-02
-2.2847034e-02
-2.1174312e-02
-1.8254139e-02
-1.6411742e-02
-1.4846165e-02
-1.3522015e-02
-1.1677483e-02
-9.5657036e-03
-7.8435743e-03
-4.7682090e-03
-8.6641939e-04
3.7469060e-03
8.3503078e-03
1.1531914e-02
1.3709787e-02
1.4477326e-02
1.5382604e-02
1.6370719e-02
1.5732700e-02
1.4096645e-02
1.1264314e-02
8.9893596e-03
7.9334061e-03
6.3443769e-03
4.5131243e-03
2.2546284e-03
6.7779623e-04
-2.1576287e-04
-2.1109117e-03
-4.3576146e-03
-6.4800707e-03
-7.5788058e-03
-8.5222897e-03
-9.8642150e-03
-1.0452372e-02
-1.1365663e-02
-1.1190698e-02
-9.2917957e-03
-6.8884774e-03
-3.7994601e-03
-1.1843939e-03
1.5021300e-03
4.2229557e-03
6.2371841e-03
7.7493377e-03
7.6325970e-03
7.4877459e-03
8.2722837e-03
9.4426511e-03
1.1013238e-02
1.1229454e-02
1.1010398e-02
1.1171640e-02
1.1000471e-02
1.0518139e-02
9.0103760e-03
8.2387242e-03
8.0124371e-03
6.6301943e-03
4.7774126e-03
2.0716493e-03
-3.6807888e-04
-2.2968539e-03
-4.0942391e-03
-5.0909837e-03
-6.6956071e-03
-8.0946965e-03
-8.8722658e-03
-1.0414415e-02
-1.2518935e-02
-1.5120446e-02
-1.6965489e-02
-1.8347468e-02
-2.0203981e-02
-2.1816718e-02
-2.3582474e-02
-2.4639775e-02
-2.4559811e-02
-2.3050507e-02
-2.0258262e-02
-1.7489702e-02
-1.3557708e-02
-9.2718076e-03
-5.1217714e-03
-5.5375689e-04
3.1948345e-03
7.3553887e-03
1.1850415e-02
1.5748139e-02
1.8746345e-02
1.9691693e-02
2.0145645e-02
2.1211711e-02
2.3000264e-02
2.5429048e-02
2.6438385e-02
2.6065681e-02
2.4626216e-02
2.2175173e-02
1.9193543e-02
1.5668485e-02
1.3811583e-02
1.3902330e-02
1.4865379e-02
1.5076249e-02
1.2852378e-02
1.0008444e-02
6.8522357e-03
3.2503662e-03
-2.8156094e-04
-3.9889628e-03
-6.9818096e-03
-9.8570871e-03
-1.2394381e-02
-1.3791536e-02
-1.5100090e-02
-1.5157694e-02
-1.4001186e-02
-1.2605937e-02
-1.0637523e-02
-8.8904148e-03
-6.8957540e-03
-4.7134868e-03
-1.9857229e-03
1.3806780e-03
3.8080145e-03
6.4476232e-03
9.4562137e-03
1.2302889e-02
1.4645589e-02
1.5182621e-02
1.5397175e-02
1.5834907e-02
1.5886603e-02
1.4753299e-02
1.1013800e-02
6.6576311e-03
3.7878468e-03
2.5337589e-03
1.4534774e-03
-3.7416557e-04
-1.4221484e-03
-2.1091425e-03
-2.6155889e-03
-3.4536099e-03
-5.4090739e-03
-6.2159189e-03
-6.6714454e-03
-7.4702675e-03
-8.4087527e-03
-1.1140616e-02
-1.4647779e-02
-1.8320796e-02
-2.1371459e-02
-2.3143508e-02
-2.4468484e-02
-2.4861124e-02
-2.4984202e-02
-2.4278527e-02
-2.2065805e-02
-1.8791404e-02
-1.3235406e-02
-7.2654686e-03
-2.5638397e-03
7.7856977e-04
2.1928634e-03
3.4879839e-03
5.6205028e-03
8.5163745e-03
1.0162144e-02
9.3919687e-03
9.0802511e-03
9.4858813e-03
1.0691975e-02
1.2793673e-02
1.4500966e-02
1.6668586e-02
1.8531642e-02
1.9393284e-02
1.9166877e-02
1.8187054e-02
1.8209814e-02
1.7676456e-02
1.6167363e-02
1.4274689e-02
1.1156218e-02
7.9588320e-03
5.0726751e-03
3.8285801e-03
4.1562584e-03
3.5812478e-03
2.5338078e-03
1.2961129e-03
1.5739823e-03
3.5636654e-03
4.3560822e-03
4.5405735e-03
4.1680710e-03
3.5477081e-03
3.4973487e-03
3.5999611e-03
4.6002782e-03
5.7580178e-03
7.3885984e-03
9.8468855e-03
1.2317826e-02
1.4341169e-02
1.3909333e-02
1.1861270e-02
8.6496278e-03
2.7032673e-03
-4.0283444e-03
-9.4846231e-03
-1.2760407e-02
-1.5105435e-02
-1.7850286e-02
-1.9456827e-02
-1.9596562e-02
-1.7752133e-02
-1.5068147e-02
-1.3533968e-02
-1.3301455e-02
-1.5717465e-02
-1.9065149e-02
-2.1920661e-02
-2.5079929e-02
-2.7720214e-02
-2.9811993e-02
-3.0713449e-02
-3.1369840e-02
-3.2249946e-02
-3.1538407e-02
-2.9908149e-02
-2.6876015e-02
-2.1959115e-02
-1.5263102e-02
-7.2986930e-03
-8.3323339e-04
4.4528320e-03
8.8633084e-03
1.1987688e-02
1.4503749e-02
1.5655259e-02
1.7641430e-02
2.1063288e-02
2.3878649e-02
2.6174485e-02
2.7719116e-02
2.9921287e-02
3.2632399e-02
3.4389375e-02
3.5533230e-02
3.6228995e-02
3.7549867e-02
3.7726996e-02
3.5425088e-02
3.2302396e-02
2.8214173e-02
2.4320288e-02
2.0242382e-02
1.4294488e-02
7.4913678e-03
9.0565737e-04
-3.3215464e-03
-5.2349060e-03
-6.4216353e-03
-7.3540359e-03
-8.8261368e-03
-8.9558255e-03
-7.8271734e-03
-7.3331708e-03
-7.5406771e-03
-8.7510638e-03
-8.9944344e-03
-8.4867434e-03
-8.8245076e-03
-9.0030227e-03
-9.0798360e-03
-7.7890205e-03
-5.5416274e-03
-4.4508185e-03
-4.5509957e-03
-6.0861352e-03
-7.4009929e-03
-8.3818229e-03
-1.0414054e-02
-1.2560669e-02
-1.4318477e-02
-1.4685568e-02
-1.4210235e-02
-1.4097181e-02
-1.3891904e-02
-1.3294123e-02
-1.1147314e-02
-8.6913788e-03
-7.1306876e-03
-6.0832635e-03
-7.0794258e-03
-8.6669794e-03
-9.1438259e-03
-9.0631943e-03
-8.8962434e-03
-1.0020431e-02
-1.1681326e-02
-1.3455655e-02
-1.5367845e-02
-1.6773438e-02
-1.8125714e-02
-1.7333870e-02
-1.3657560e-02
-7.5194853e-03
6.8277349e-04
7.4157934e-03
1.2571759e-02
1.6906046e-02
1.9782689e-02
2.1339287e-02
2.0690562e-02
1.9551884e-02
1.8948250e-02
1.8628885e-02
1.8885090e-02
1.9188657e-02
2.0834704e-02
2.3199158e-02
2.5034079e-02
2.6297429e-02
2.6197165e-02
2.6148363e-02
2.6415903e-02
2.6293068e-02
2.5707434e-02
2.3628419e-02
2.0304306e-02
1.5208711e-02
8.0730783e-03
3.2027982e-04
-6.6923756e-03
-1.1132509e-02
-1.4106162e-02
-1.6456189e-02
-1.7886799e-02
-1.9935050e-02
-2.1122929e-02
-2.0629145e-02
-1.9110748e-02
-1.7737062e-02
-1.8335571e-02
-1.8874584e-02
-1.9045023e-02
-2.0193631e-02
-2.2292033e-02
-2.5717565e-02
-2.9034625e-02
-3.1123910e-02
-3.1424545e-02
-3.0133720e-02
-2.8162539e-02
-2.3970762e-02
-1.7355646e-02
-9.3764489e-03
-2.1462786e-03
2.1302060e-03
5.9491037e-03
9.8112089e-03
1.2407447e-02
1.3787493e-02
1.3318087e-02
1.2842200e-02
1.2496312e-02
1.0722370e-02
8.0086858e-03
5.3171009e-03
4.0490678e-03
3.3503204e-03
2.2280768e-03
4.7248495e-05
-3.5179122e-03
-5.4807604e-03
-5.3676479e-03
-3.9520033e-03
-1.6370674e-03
-4.2656997e-05
1.5846725e-03
3.5621654e-03
6.3582947e-03
9.4746827e-03
1.0644379e-02
1.1042397e-02
1.1201549e-02
1.0833386e-02
9.8516308e-03
7.6800950e-03
6.0888392e-03
5.2964503e-03
5.0999273e-03
5.1525296e-03
4.1540095e-03
3.2944533e-03
2.8870521e-03
3.5984628e-03
5.3382460e-03
6.3833962e-03
7.7587241e-03
9.3645370e-03
1.1083677e-02
1.2272113e-02
1.1006747e-02
9.4756424e-03
8.4631118e-03
7.0014110e-03
5.4698282e-03
4.2749429e-03
4.0821845e-03
3.7835641e-03
3.9291230e-03
4.6158408e-03
3.8455483e-03
2.5859315e-03
1.3409442e-03
3.2945502e-04
-9.0825274e-04
-3.7911366e-03
-6.9052998e-03
-1.0154224e-02
-1.3282429e-02
-1.5843091e-02
-1.8703666e-02
-1.9927831e-02
-1.9228223e-02
-1.7467442e-02
-1.5166456e-02
-1.3621066e-02
-1.1937262e-02
-9.8416392e-03
-7.0426359e-03
-4.1016996e-03
-2.4390036e-03
-1.0321237e-03
9.7549316e-05
1.9845928e-03
4.5261261e-03
5.4744817e-03
6.3663205e-03
7.6259887e-03
8.7828522e-03
9.6405562e-03
9.7193464e-03
1.0873328e-02
1.1972207e-02
1.2274827e-02
1.2370566e-02
1.0892108e-02
9.2751921e-03
7.5511428e-03
5.0478470e-03
1.6894111e-03
-3.0032946e-03
-6.6525875e-03
-8.9263202e-03
-1.0086974e-02
-1.0947041e-02
-1.2674531e-02
-1.2861045e-02
-1.1225281e-02
-8.2705477e-03
-4.7467814e-03
-2.4884352e-03
-7.4166124e-04
6.9429926e-04
2.2981977e-03
3.5803362e-03
3.2133353e-03
3.0036207e-03
3.2969230e-03
4.0100886e-03
4.4005853e-03
3.3716167e-03
3.0433209e-03
3.3116363e-03
3.0709157e-03
1.6696882e-03
-1.0558907e-03
-2.6435488e-03
-2.8270550e-03
-1.9985405e-03
-1.1681794e-03
-1.7642344e-03
-2.2285062e-03
-2.5508865e-03
-2.7269037e-03
-2.7681846e-03
-3.8066871e-03
-5.0858973e-03
-6.1245721e-03
-6.1524585e-03
-5.7102700e-03
-5.5540613e-03
-4.5882285e-03
-3.7104747e-03
-2.2050805e-03
6.9643794e-04
3.5180692e-03
5.8900437e-03
6.4098219e-03
5.3509053e-03
4.0509991e-03
2.6850002e-03
2.1464661e-03
1.7074400e-03
1.7919103e-03
2.7148130e-03
3.4315271e-03
4.5655614e-03
5.3791866e-03
6.7228642e-03
9.1111242e-03
1.0675037e-02
1.1391922e-02
1.1009661e-02
1.0252167e-02
9.1440062e-03
7.0620972e-03
4.8519942e-03
1.6615258e-03
-1.6612727e-03
-4.3101595e-03
-6.7742943e-03
-8.1081706e-03
-9.0504817e-03
-9.1009244e-03
-7.8440483e-03
-6.6433424e-03
-5.4598584e-03
-4.8510048e-03
-4.2414701e-03
-3.5208058e-03
-3.6315722e-03
-4.0047914e-03
-4.7512563e-03
-4.8353010e-03
-4.7985968e-03
-6.2773473e-03
-8.1244230e-03
-9.5716811e-03
-8.9553738e-03
-6.6098891e-03
-4.3341006e-03
-1.5825786e-03
8.6506115e-04
2.7775212e-03
3.7825021e-03
3.6716233e-03
3.8234209e-03
4.3270317e-03
6.1808304e-03
7.9151288e-03
7.1465912e-03
5.0945161e-03
2.5071273e-03
8.8668113e-04
2.1397106e-04
-8.1062399e-04
-1.6522322e-03
-3.0102727e-03
-4.4504771e-03
-5.5536412e-03
-6.2212541e-03
-5.6796487e-03
-5.3754161e-03
-4.7323457e-03
-3.2733831e-03
-2.1467483e-03
-1.8688855e-03
-2.9946856e-03
-3.3195866e-03
-2.9832650e-03
-3.3221991e-03
-3.2976942e-03
-3.8728178e-03
-4.5108826e-03
-4.5627407e-03
-4.7282632e-03
-4.2903850e-03
-2.6815494e-03
1.1009992e-03
5.4208809e-03
7.6978859e-03
8.3270918e-03
7.4817489e-03
6.3889213e-03
5.4980494e-03
5.0371114e-03
6.3431316e-03
7.9722953e-03
1.0063070e-02
1.2421135e-02
1.3821375e-02
1.5381750e-02
1.7515728e-02
2.1153010e-02
2.4941303e-02
2.7482894e-02
2.9783416e-02
3.0577969e-02
3.0424593e-02
2.9891375e-02
2.7459357e-02
2.2624711e-02
1.5568867e-02
7.7452000e-03
-7.0584259e-04
-8.8874198e-03
-1.4650385e-02
-1.8305291e-02
-1.9828367e-02
-2.0742601e-02
-2.2846691e-02
-2.4676210e-02
-2.5426963e-02
-2.4962594e-02
-2.4824556e-02
-2.5453571e-02
-2.5338383e-02
-2.5545521e-02
-2.5549921e-02
-2.5453687e-02
-2.6246550e-02
-2.6911562e-02
-2.6996300e-02
-2.4457341e-02
-1.9712608e-02
-1.5213555e-02
-1.0859005e-02
-6.8099792e-03
-1.1062071e-03
6.6176799e-03
1.2975683e-02
1.6489933e-02
1.7651113e-02
1.8600061e-02
1.9269489e-02
1.8492341e-02
1.6642583e-02
1.3919935e-02
1.2427006e-02
1.2377422e-02
1.2759102e-02
1.3483392e-02
1.2644687e-02
1.0830309e-02
8.9804000e-03
7.0361522e-03
5.0543413e-03
1.4847594e-03
-2.6342376e-03
-6.4686420e-03
-9.3620367e-03
-9.7763375e-03
-9.2768481e-03
-7.8333968e-03
-5.5206347e-03
-3.8129292e-03
-2.6173007e-03
-2.2341131e-03
-1.2985344e-03
4.4956128e-04
2.0832998e-03
3.4703414e-03
3.4209529e-03
3.3310467e-03
4.0805317e-03
5.4882562e-03
7.7930472e-03
9.3308137e-03
1.0639261e-02
1.2764373e-02
1.5448435e-02
1.7578934e-02
1.8340047e-02
1.9581882e-02
1.9973201e-02
1.7975665e-02
1.4734738e-02
1.0127147e-02
5.7771108e-03
2.3297760e-03
-3.8056985e-04
-2.2197592e-03
-4.5638471e-03
-6.5462647e-03
-8.0034655e-03
-9.4913503e-03
-1.1298291e-02
-1.4506627e-02
-1.7534985e-02
-1.9881977e-02
-2.1907409e-02
-2.3562305e-02
-2.5446369e-02
-2.6799613e-02
-2.8501571e-02
-3.0200141e-02
-3.0843080e-02
-3.1670207e-02
-3.1263286e-02
-2.8666279e-02
-2.4487133e-02
-1.9493496e-02
-1.5124634e-02
-9.1698146e-03
-1.1556270e-03
5.9916547e-03
1.0920960e-02
1.2905502e-02
1.3696505e-02
1.4337850e-02
1.5012847e-02
1.6097820e-02
1.6668444e-02
1.7977720e-02
1.9291404e-02
1.9344551e-02
1.8453738e-02
1.6306692e-02
1.5498642e-02
1.6343701e-02
1.6965676e-02
1.6447669e-02
1.3555037e-02
1.0106804e-02
7.5704255e-03
6.2758063e-03
5.6116442e-03
4.0743450e-03
2.6829279e-03
7.8598152e-04
-1.7661722e-03
-4.0025134e-03
-6.3263095e-03
-7.7262869e-03
-8.7938787e-03
-9.2012374e-03
-7.9978171e-03
-6.5376372e-03
-4.5333723e-03
-2.6903408e-03
-1.3448728e-03
1.1394721e-04
1.0365722e-03
2.3078610e-03
3.6122800e-03
5.0300602e-03
7.1380830e-03
8.8005452e-03
1.0618705e-02
1.1787666e-02
1.1340337e-02
9.6931710e-03
6.2987670e-03
2.5873255e-03
-6.4591177e-04
-2.8878277e-03
-4.1125131e-03
-6.1217394e-03
-8.3699071e-03
-1.0650302e-02
-1.2468113e-02
-1.4089352e-02
-1.6256772e-02
-1.6960744e-02
-1.7284691e-02
-1.8100623e-02
-1.9286683e-02
-2.1510986e-02
-2.2426090e-02
-2.1642702e-02
-2.0008345e-02
-1.7992066e-02
-1.6044358e-02
-1.3485858e-02
-1.1255158e-02
-8.7961710e-03
-5.5714564e-03
-1.7000501e-03
3.8439429e-03
9.1680216e-03
1.4014347e-02
1.8895505e-02
2.2615438e-02
2.6313231e-02
2.9199455e-02
3.0356229e-02
2.9993598e-02
2.7784851e-02
2.5085460e-02
2.2295765e-02
2.0282735e-02
1.8458561e-02
1.5288372e-02
1.2292851e-02
9.9964772e-03
9.2126975e-03
9.4660667e-03
8.7883064e-03
8.0685094e-03
6.9763940e-03
5.3960888e-03
3.4197607e-03
3.7261050e-04
-3.0554083e-03
-7.1247509e-03
-1.0588294e-02
-1.3066491e-02
-1.5190511e-02
-1.6100808e-02
-1.6320925e-02
-1.5219319e-02
-1.3963909e-02
-1.3866099e-02
-1.2575015e-02
-9.9296384e-03
-5.9306451e-03
-1.5628311e-03
1.6211405e-03
4.8297860e-03
7.6062695e-03
9.5294426e-03
9.8230692e-03
7.7820910e-03
5.3804227e-03
3.1120903e-03
1.4896167e-03
-1.7334295e-04
-2.8559626e-03
-4.9638694e-03
-6.8868046e-03
-7.5929616e-03
-6.9054391e-03
-7.2434992e-03
-8.1914029e-03
-9.2256648e-03
-9.8854236e-03
-1.0869276e-02
-1.3478408e-02
-1.6267697e-02
-1.7246961e-02
-1.5402115e-02
-1.2922014e-02
-1.1038244e-02
-8.8379492e-03
-7.7262560e-03
-6.8953085e-03
-5.9827573e-03
-5.8984169e-03
-5.7442886e-03
-6.0116474e-03
-5.2389519e-03
-2.2870878e-03
1.7257953e-03
6.9727945e-03
1.2148423e-02
1.6506632e-02
1.9211012e-02
1.8919387e-02
1.7097561e-02
1.4856060e-02
1.3213689e-02
1.1750572e-02
1.0044900e-02
9.0458658e-03
7.0143743e-03
4.4987864e-03
2.8107480e-03
1.2501676e-03
1.4398158e-04
-9.0471658e-04
-1.3311143e-03
-1.6730638e-03
-2.8166293e-03
-3.9235409e-03
-4.8656631e-03
-3.9427382e-03
-2.0512192e-03
-1.2705418e-03
-1.2939435e-03
-2.0682801e-03
-1.6977960e-03
-4.2786650e-04
3.3889836e-04
7.9554495e-04
-5.2648370e-05
-9.3769398e-04
-1.2209956e-03
-1.5520053e-03
-1.6710895e-03
-2.7055819e-03
-3.7990731e-03
-3.9333835e-03
-3.1487778e-03
-1.2695860e-03
3.2460241e-04
2.1249729e-03
5.0400466e-03
7.9505972e-03
9.2770829e-03
8.3153110e-03
7.5149566e-03
7.9962330e-03
8.2678969e-03
6.9451319e-03
3.9614796e-03
1.9409925e-03
3.6459761e-04
-2.2371515e-03
-4.7055091e-03
-6.4266809e-03
-6.0035279e-03
-4.4864194e-03
-3.6774274e-03
-3.1351734e-03
-2.4753306e-03
-4.4755741e-04
2.3125292e-03
4.8598483e-03
6.3997169e-03
5.2196252e-03
3.0509366e-03
1.3781235e-03
9.7985850e-04
1.7867170e-03
1.7283003e-03
1.3531260e-03
7.1735425e-04
-2.6089174e-04
-1.0256702e-03
-1.9345365e-03
-1.7817544e-03
-8.7333055e-04
-1.5183296e-04
-2.1842421e-04
-1.1996473e-03
-1.0698437e-03
-4.3444286e-04
-7.9056883e-04
-1.9434387e-03
-3.5536605e-03
-3.7722495e-03
-2.5487632e-03
-3.4304040e-04
2.7357916e-03
4.1619657e-03
4.1342948e-03
3.5448415e-03
2.6778958e-03
2.3029748e-03
1.5346141e-03
7.4768661e-04
3.2284105e-04
2.4827000e-04
-7.8092556e-04
-3.9517533e-03
-6.8251582e-03
-8.4897492e-03
-9.1803575e-03
-9.7261118e-03
-1.1001089e-02
-1.1734119e-02
-1.2280407e-02
-1.2608699e-02
-1.3009824e-02
-1.4731178e-02
-1.6739716e-02
-1.8743935e-02
-2.0393886e-02
-2.1700227e-02
-2.2533875e-02
-2.1459991e-02
-1.9889533e-02
-1.7795026e-02
-1.4278145e-02
-1.0587908e-02
-6.6928707e-03
-2.5832923e-03
2.6622231e-03
8.7519566e-03
1.3823728e-02
1.7769062e-02
2.0197713e-02
2.2225219e-02
2.3843220e-02
2.3531524e-02
2.2131706e-02
2.0341398e-02
1.9482036e-02
1.9402036e-02
1.9577770e-02
2.1286251e-02
2.3084013e-02
2.4083333e-02
2.4231406e-02
2.2950034e-02
2.0658857e-02
1.6833391e-02
1.3039327e-02
1.0327573e-02
8.0039413e-03
6.3947967e-03
4.0903506e-03
8.8980358e-04
-3.6355924e-03
-8.9687568e-03
-1.2088557e-02
-1.3719929e-02
-1.3977048e-02
-1.3167736e-02
-1.3013237e-02
-1.3081136e-02
-1.3856738e-02
-1.4157824e-02
-1.3695479e-02
-1.3789661e-02
-1.3827648e-02
-1.3812171e-02
-1.1753731e-02
-8.0123089e-03
-6.0232433e-03
-5.8955086e-03
-7.0737630e-03
-7.6288042e-03
-7.0521292e-03
-7.0519709e-03
-7.7947015e-03
-9.2690327e-03
-9.9091602e-03
-9.1333026e-03
-7.3593063e-03
-4.9798550e-03
-3.3182133e-03
-1.5120438e-03
-4.0618855e-04
-8.3740561e-04
-1.5353451e-03
-2.8945006e-03
-3.1450265e-03
-1.8883602e-03
-1.0407087e-03
-9.9289344e-04
-1.8909524e-03
-1.9123831e-03
-9.7082186e-04
-4.2008654e-04
1.3445784e-04
2.1857696e-04
4.5004563e-04
4.7233039e-04
-4.5413242e-04
-1.2594817e-03
-1.7708402e-03
-3.5968992e-04
2.9537337e-03
6.4726314e-03
9.5522077e-03
1.0712850e-02
1.0647221e-02
1.0035115e-02
9.1026765e-03
8.3176127e-03
6.5541711e-03
4.9043708e-03
4.4127572e-03
5.3818186e-03
7.0641866e-03
7.3948339e-03
7.5436757e-03
8.1565645e-03
8.8379398e-03
9.2672288e-03
8.3529267e-03
6.9073877e-03
5.1570981e-03
2.8822786e-03
-5.7327066e-04
-6.2274462e-03
-1.2241287e-02
-1.8946180e-02
-2.6539534e-02
-3.3056704e-02
-3.8530479e-02
-4.1718564e-02
-4.2850275e-02
-4.2541947e-02
-4.0726837e-02
-3.8898024e-02
-3.5765820e-02
-3.0926127e-02
-2.4803284e-02
-1.7895599e-02
-1.1653987e-02
-4.3846178e-03
4.1502515e-03
1.3741399e-02
2.4202240e-02
3.3239166e-02
4.1891983e-02
5.1302983e-02
6.0546590e-02
6.6324589e-02
6.5321975e-02
6.0066237e-02
5.2011953e-02
4.2318862e-02
3.4017697e-02
2.7371246e-02
2.2619472e-02
1.8647073e-02
1.5070505e-02
1.1439916e-02
5.7100381e-03
-1.0328923e-03
-7.8534124e-03
-1.4164497e-02
-2.1239308e-02
-3.1403290e-02
-4.3699554e-02
-5.8288692e-02
-7.4055547e-02
-8.9399376e-02
-1.0460062e-01
-1.1760174e-01
-1.2660764e-01
-1.2968619e-01
-1.2620698e-01
-1.1615710e-01
-9.6003401e-02
-6.1880754e-02
-1.7495550e-02
2.2119582e-02
4.8078084e-02
6.3052566e-02
6.9620710e-02
7.1041478e-02
6.8972094e-02
6.4246473e-02
5.9204749e-02
5.3369706e-02
4.7561101e-02
4.2823570e-02
3.8846831e-02
3.6038079e-02
3.3686048e-02
3.3362004e-02
3.4092661e-02
3.2912784e-02
3.1696525e-02
3.1343521e-02
3.1339029e-02
3.0030117e-02
2.6202545e-02
2.1515250e-02
1.6203023e-02
1.1570823e-02
8.0551356e-03
5.0336952e-03
3.3785579e-03
2.8159464e-03
4.3508916e-03
6.6894882e-03
7.8357386e-03
8.5956820e-03
8.8297166e-03
9.9635434e-03
1.1995230e-02
1.3406109e-02
1.4428272e-02
1.4757172e-02
1.5097151e-02
1.5370393e-02
1.6043672e-02
1.8040958e-02
1.9732169e-02
2.0674808e-02
1.9769580e-02
1.6516747e-02
1.1691590e-02
4.7248242e-03
-2.2191874e-03
-7.1448906e-03
-1.0349509e-02
-1.2960090e-02
-1.5351843e-02
-1.5100172e-02
-1.2972918e-02
-1.0266109e-02
-6.9987867e-03
-5.3391346e-03
-4.4149592e-03
-3.7722336e-03
-3.7093149e-03
-3.6921743e-03
-4.7945980e-03
-5.2455624e-03
-4.0118456e-03
-1.8091560e-03
5.8109546e-04
1.4503900e-03
1.6139564e-03
1.0398995e-03
-3.2278624e-04
-1.8899564e-03
-4.1521620e-03
-5.7757605e-03
-7.2842165e-03
-8.6294972e-03
-9.5336768e-03
-1.1269974e-02
-1.1786381e-02
-1.1038162e-02
-9.6503585e-03
-7.8236727e-03
-7.4534007e-03
-7.2834972e-03
-6.8617717e-03
-7.0149415e-03
-8.2530326e-03
-1.0678388e-02
-1.2456692e-02
-1.3961409e-02
-1.5170717e-02
-1.5680480e-02
-1.5955431e-02
-1.4697651e-02
-1.2597312e-02
-9.6993910e-03
-5.4945864e-03
-6.1131281e-04
5.3789875e-03
1.0847500e-02
1.5066648e-02
1.7368819e-02
1.7139851e-02
1.6911956e-02
1.7067680e-02
1.7854521e-02
1.9429882e-02
2.0617026e-02
2.1490190e-02
2.1764039e-02
2.3312927e-02
2.6543764e-02
2.9292642e-02
3.1680531e-02
3.2985909e-02
3.3968136e-02
3.4402373e-02
3.2458372e-02
3.0094554e-02
2.7247274e-02
2.2886977e-02
1.5792810e-02
4.4012221e-03
-8.0149878e-03
-1.7825882e-02
-2.3600294e-02
-2.6546932e-02
-2.8468064e-02
-2.9451179e-02
-3.0257996e-02
-2.9306877e-02
-2.6737545e-02
-2.5230503e-02
-2.5072722e-02
-2.5889873e-02
-2.5271085e-02
-2.3273277e-02
-2.2259850e-02
-2.1914709e-02
-2.1612574e-02
-1.9894552e-02
-1.7314665e-02
-1.5109134e-02
-1.3001474e-02
-1.1662808e-02
-9.2313399e-03
-5.4758501e-03
-1.7129384e-03
2.6587717e-03
5.9525878e-03
8.1647712e-03
9.6561391e-03
1.0003399e-02
1.0153778e-02
1.0060668e-02
1.1042560e-02
1.2846081e-02
1.3808001e-02
1.3647640e-02
1.2769788e-02
1.3646662e-02
1.5800409e-02
1.7739041e-02
1.9425458e-02
1.9647665e-02
1.9991196e-02
2.1006508e-02
2.1903175e-02
2.2588134e-02
2.1172549e-02
1.8481010e-02
1.4928570e-02
8.7436452e-03
5.4499847e-04
-6.8060897e-03
-1.0350614e-02
-1.1352256e-02
-1.1718004e-02
-1.2119425e-02
-1.3065315e-02
-1.2666117e-02
-1.0901350e-02
-8.3297632e-03
-5.5152310e-03
-4.3172370e-03
-4.3465691e-03
-5.4220515e-03
-6.5867763e-03
-7.7984085e-03
-1.1102490e-02
-1.4908298e-02
-1.7461572e-02
-1.7995064e-02
-1.7840781e-02
-1.9128278e-02
-1.9961028e-02
-2.0131320e-02
-1.9364385e-02
-1.6975067e-02
-1.4215644e-02
-1.0941615e-02
-8.8433854e-03
-7.5345017e-03
-5.3313829e-03
-3.8974633e-03
-3.1587041e-03
-2.7750835e-03
-2.0650739e-03
-1.1958820e-03
-1.1859242e-03
-8.8864926e-04
-8.0784132e-04
-4.9336932e-04
2.5189341e-04
6.0950714e-05
-3.9626815e-04
-1.1640674e-03
-1.4141941e-03
-1.5510478e-03
-3.1314662e-03
-3.9164534e-03
-2.9224922e-03
1.8428844e-04
4.2467276e-03
6.4232263e-03
6.9391112e-03
5.6268068e-03
3.8325094e-03
2.5533869e-03
9.6081655e-04
-9.8659691e-04
-4.1555415e-03
-6.1763885e-03
-6.3841604e-03
-7.1624298e-03
-8.1370167e-03
-9.5586341e-03
-1.0013921e-02
-9.2660650e-03
-9.3755404e-03
-9.7689760e-03
-1.0498677e-02
-1.0310517e-02
-8.8031155e-03
-7.7827675e-03
-7.3961447e-03
-6.8517323e-03
-3.4228237e-03
2.2184437e-03
6.7072345e-03
1.0112529e-02
1.2510915e-02
1.4943603e-02
1.7822314e-02
1.9885586e-02
2.0972050e-02
2.0345150e-02
1.9391451e-02
1.9137365e-02
1.9097328e-02
1.9296121e-02
1.8650542e-02
1.7985142e-02
1.7272674e-02
1.5634971e-02
1.3763457e-02
1.1424036e-02
1.0319844e-02
1.0235707e-02
8.8323361e-03
5.9313067e-03
1.9474899e-03
-1.4437498e-03
-4.5943969e-03
-7.3304352e-03
-8.9655041e-03
-1.1023179e-02
-1.2215877e-02
-1.2345660e-02
-1.1914109e-02
-1.0225023e-02
-8.4900275e-03
-6.4921985e-03
-3.9196121e-03
-9.3606701e-04
1.8240190e-03
3.6419857e-03
6.1858233e-03
8.6252744e-03
1.0298632e-02
1.1928154e-02
1.2635203e-02
1.3048857e-02
1.3082660e-02
1.3054572e-02
1.2585096e-02
9.7091189e-03
5.4414727e-03
1.2255373e-03
-1.0813391e-03
-1.8144820e-03
-3.4224195e-03
-4.3722151e-03
-4.3996814e-03
-4.5563942e-03
-4.7658048e-03
-5.2388752e-03
-4.6382582e-03
-3.6416837e-03
-2.5454077e-03
-1.0208147e-03
2.1576162e-04
2.7529230e-03
6.0766242e-03
9.3465297e-03
1.2069887e-02
1.3140423e-02
1.4026150e-02
1.4397577e-02
1.4055063e-02
1.2410210e-02
7.4629803e-03
-1.5794586e-04
-9.7370869e-03
-1.7868121e-02
-2.3013285e-02
-2.7890545e-02
-3.2655797e-02
-3.6843981e-02
-3.8946629e-02
-3.9245642e-02
-3.9405530e-02
-3.8538439e-02
-3.7100486e-02
-3.5060655e-02
-3.3052665e-02
-3.2186898e-02
-3.1723498e-02
-3.2351333e-02
-3.3115594e-02
-3.3076658e-02
-3.2648776e-02
-3.1355650e-02
-2.9668429e-02
-2.6022053e-02
-1.9494958e-02
-1.1104572e-02
-3.9390243e-04
1.0997154e-02
2.0629039e-02
2.6966054e-02
3.0246863e-02
3.2484810e-02
3.3649351e-02
3.4242722e-02
3.4110379e-02
3.2579696e-02
3.0124737e-02
2.6075482e-02
2.2303576e-02
1.9832666e-02
1.8085537e-02
1.7519248e-02
1.6931543e-02
1.7049305e-02
1.8094601e-02
1.9128934e-02
2.0382169e-02
2.0894472e-02
2.1434878e-02
2.1670481e-02
2.0088311e-02
1.6427999e-02
1.1037558e-02
7.0875802e-03
4.6212698e-03
2.2491922e-03
1.3398340e-03
1.8693333e-03
4.3096792e-03
7.8300318e-03
1.1059962e-02
1.4305071e-02
1.6606043e-02
1.9046823e-02
2.2142428e-02
2.4675229e-02
2.6608230e-02
2.7631458e-02
2.8773367e-02
2.8865867e-02
2.6730537e-02
2.3378712e-02
1.8836103e-02
1.4916488e-02
1.0406678e-02
2.8391106e-03
-7.9676550e-03
-2.0704056e-02
-3.0272425e-02
-3.5593401e-02
-3.8277308e-02
-3.9477630e-02
-4.1292348e-02
-4.2374805e-02
-4.2431386e-02
-4.2276022e-02
-4.2224361e-02
-4.2797972e-02
-4.2551155e-02
-4.2504681e-02
-4.2743392e-02
-4.2353868e-02
-4.2383829e-02
-4.1450025e-02
-3.9621468e-02
-3.7830156e-02
-3.6168614e-02
-3.4802201e-02
-3.2291525e-02
-2.7805538e-02
-1.9929032e-02
-8.4627976e-03
4.3094135e-03
1.6372923e-02
2.5041503e-02
3.0611336e-02
3.4042696e-02
3.4230742e-02
3.2586270e-02
3.0781726e-02
3.0780177e-02
3.2163066e-02
3.2520393e-02
3.2831105e-02
3.2656109e-02
3.2123655e-02
3.2490098e-02
3.3042472e-02
3.3556936e-02
3.2785400e-02
3.1560243e-02
3.1040903e-02
2.9466257e-02
2.6627059e-02
2.2718496e-02
1.8711235e-02
1.3801246e-02
7.0945009e-03
1.3096552e-03
-3.1716780e-03
-5.3671855e-03
-5.2601994e-03
-4.9111414e-03
-4.0078134e-03
-3.5229220e-03
-2.7791026e-03
-9.8420545e-04
6.1317630e-04
2.1469983e-03
3.4184872e-03
5.4500677e-03
8.0900039e-03
1.0730184e-02
1.3780187e-02
1.5611283e-02
1.7511699e-02
1.9957538e-02
2.1094954e-02
2.0454144e-02
1.6496887e-02
1.0842982e-02
3.8295152e-03
-5.4934324e-03
-1.3832336e-02
-2.0496929e-02
-2.5006698e-02
-2.7313746e-02
-2.8435313e-02
-2.8044386e-02
-2.8269197e-02
-2.8614300e-02
-2.8052269e-02
-2.7562301e-02
-2.6533971e-02
-2.5638003e-02
-2.4459184e-02
-2.3260848e-02
-2.3926235e-02
-2.6341889e-02
-2.9434994e-02
-3.0327031e-02
-2.9249851e-02
-2.8092572e-02
-2.6390945e-02
-2.4956078e-02
-2.2213565e-02
-1.6438763e-02
-8.9738225e-03
-1.7793403e-03
3.8886872e-03
9.4724648e-03
1.4733029e-02
1.8481754e-02
2.0537208e-02
2.0271301e-02
1.9813408e-02
1.9689242e-02
1.8833674e-02
1.7192155e-02
1.4284227e-02
1.1503581e-02
8.9872250e-03
7.0522809e-03
6.4801146e-03
6.1712844e-03
6.9375979e-03
8.1909010e-03
9.1556166e-03
9.9960844e-03
9.4439733e-03
8.8908342e-03
8.6823614e-03
8.4484472e-03
8.2844618e-03
7.2238564e-03
6.1673010e-03
4.7504023e-03
3.2038147e-03
1.8949168e-03
-3.8882754e-05
-1.6975035e-03
-3.8998055e-03
-6.4644674e-03
-8.3151372e-03
-9.7594111e-03
-9.3423641e-03
-7.4940814e-03
-4.7894385e-03
-1.6435068e-03
5.0326714e-04
2.6701680e-03
4.2488515e-03
5.0874652e-03
6.1795893e-03
7.1615881e-03
8.2661360e-03
8.6008731e-03
8.6265509e-03
8.4656341e-03
6.9919597e-03
5.0560202e-03
3.1653179e-03
3.1813224e-03
5.2506269e-03
7.4490264e-03
9.9899937e-03
1.2277472e-02
1.4560625e-02
1.6190588e-02
1.6074007e-02
1.5594927e-02
1.5360653e-02
1.6797931e-02
1.8769359e-02
1.9539552e-02
2.0568064e-02
2.0941825e-02
2.0695064e-02
1.9304865e-02
1.5117193e-02
9.1265655e-03
1.0495781e-03
-7.4825416e-03
-1.4962222e-02
-2.1527685e-02
-2.5671247e-02
-2.8446042e-02
-3.0246926e-02
-3.1416672e-02
-3.3243212e-02
-3.4876214e-02
-3.6656828e-02
-3.7582919e-02
-3.7434725e-02
-3.7851215e-02
-3.8366525e-02
-3.9029205e-02
-3.9505723e-02
-4.0160438e-02
-4.0286830e-02
-3.8469946e-02
-3.6453084e-02
-3.2891187e-02
-2.6970222e-02
-2.0630368e-02
-1.3385444e-02
-4.1410546e-03
7.3337810e-03
1.8082505e-02
2.6148573e-02
3.1380460e-02
3.3024959e-02
3.3330830e-02
3.2977482e-02
3.1563391e-02
2.9286943e-02
2.5775309e-02
2.3641010e-02
2.2950245e-02
2.2867919e-02
2.3985542e-02
2.5112908e-02
2.7223036e-02
2.9443052e-02
3.0233587e-02
2.9870896e-02
2.7413566e-02
2.4309736e-02
2.1510887e-02
1.8383564e-02
1.4127487e-02
7.1628828e-03
-5.1149249e-04
-6.7615246e-03
-1.1330868e-02
-1.4478656e-02
-1.6662503e-02
-1.6676705e-02
-1.6047701e-02
-1.5344187e-02
-1.3741023e-02
-1.2471070e-02
-1.0450343e-02
-8.3157395e-03
-7.2184440e-03
-6.7762974e-03
-7.3440710e-03
-7.2886696e-03
-6.7528039e-03
-6.2109282e-03
-5.4405554e-03
-5.4360680e-03
-4.7974309e-03
-3.9465009e-03
-3.3082504e-03
-2.6134728e-03
-3.3153096e-03
-3.9181215e-03
-4.0452689e-03
-4.0958196e-03
-4.1447528e-03
-5.6025607e-03
-7.2284064e-03
-7.5401339e-03
-5.7366419e-03
-3.2007967e-03
-1.8153239e-03
1.8276535e-05
2.0391979e-03
3.9034359e-03
4.9873006e-03
4.8277202e-03
5.4026208e-03
5.7946204e-03
6.3318633e-03
7.3779046e-03
7.5934528e-03
7.5619319e-03
6.8770502e-03
5.9532429e-03
3.9939588e-03
-1.0511787e-05
-4.5377116e-03
-8.9422112e-03
-1.1050613e-02
-1.1208974e-02
-1.1503588e-02
-1.1306731e-02
-1.1138890e-02
-1.0297755e-02
-1.0059170e-02
-1.2273145e-02
-1.4529763e-02
-1.6573006e-02
-1.8012081e-02
-1.8717056e-02
-2.0295357e-02
-2.1683686e-02
-2.2344334e-02
-2.1570430e-02
-1.9538850e-02
-1.8043231e-02
-1.7002311e-02
-1.6145863e-02
-1.3172488e-02
-7.7213857e-03
-9.2394557e-04
7.2115913e-03
1.3522296e-02
1.8390875e-02
2.2307438e-02
2.3795836e-02
2.4655237e-02
2.5638622e-02
2.7542082e-02
2.9323801e-02
2.9749284e-02
2.9891033e-02
2.9455476e-02
2.9426017e-02
2.9437703e-02
2.9173246e-02
2.9994086e-02
3.0760973e-02
3.1775838e-02
3.3003000e-02
3.3043163e-02
3.1348189e-02
2.7636077e-02
2.3497382e-02
1.7740650e-02
8.1355495e-03
-3.8603237e-03
-1.6018649e-02
-2.4704599e-02
-2.9167675e-02
-3.1797829e-02
-3.3556531e-02
-3.4775066e-02
-3.4125322e-02
-3.2676507e-02
-3.1180627e-02
-2.8457140e-02
-2.6087400e-02
-2.3827676e-02
-2.1992719e-02
-2.1466717e-02
-2.1226736e-02
-2.1990605e-02
-2.2970509e-02
-2.3729893e-02
-2.4395351e-02
-2.3788127e-02
-2.1994380e-02
-1.7315216e-02
-9.7308478e-03
-7.4430318e-04
7.6319388e-03
1.2186246e-02
1.4731506e-02
1.6944086e-02
1.8737735e-02
1.9280609e-02
1.7900033e-02
1.7171847e-02
1.6386667e-02
1.4536587e-02
1.1876978e-02
7.9900587e-03
4.7765482e-03
2.2776911e-03
7.2150519e-04
2.8532262e-04
-9.9186051e-04
-2.1929299e-03
-2.8732320e-03
-2.7552906e-03
-1.7846668e-03
-1.8228876e-03
-1.9122584e-03
-1.1098208e-03
6.7142036e-04
2.1426870e-03
1.4265888e-03
5.8258060e-04
5.2840719e-04
1.1429336e-03
1.8788034e-03
1.1974941e-03
6.0438910e-04
5.0659054e-04
1.1712518e-03
2.7216812e-03
3.0351311e-03
2.3766435e-03
9.3058028e-04
-2.4920562e-04
-9.0654173e-05
-5.5563470e-05
1.7448492e-04
3.3594397e-04
6.5735663e-04
1.1237239e-03
5.5839017e-04
3.2893851e-04
9.7149463e-04
3.2682454e-03
6.4163522e-03
8.5115443e-03
1.0655726e-02
1.2124569e-02
1.2702415e-02
1.2726456e-02
1.1292180e-02
9.2832483e-03
6.8240164e-03
4.3980778e-03
1.9849217e-03
-9.4750936e-04
-3.5371291e-03
-6.7954821e-03
-9.5655914e-03
-1.0894528e-02
-1.2137182e-02
-1.2629024e-02
-1.2747573e-02
-1.2651067e-02
-1.3037711e-02
-1.3665179e-02
-1.1970657e-02
-8.8600053e-03
-4.7691027e-03
-4.0706707e-04
1.9965232e-03
2.8361551e-03
2.1611336e-03
1.1052063e-03
4.9854938e-05
-1.6550020e-03
-2.5709932e-03
-2.6821960e-03
-1.3825402e-03
5.8627493e-04
1.5355943e-03
2.2183731e-03
2.2971530e-03
3.1353820e-03
4.5024503e-03
4.5635321e-03
4.2675280e-03
3.1546561e-03
2.2237444e-03
2.2409884e-03
2.2536516e-03
2.2974080e-03
2.2653084e-03
3.9985249e-03
6.5947119e-03
7.8721656e-03
8.5853606e-03
8.2237185e-03
7.4323273e-03
6.5120466e-03
5.6493153e-03
5.6198035e-03
4.8608257e-03
4.5234885e-03
5.1777008e-03
5.8272249e-03
7.0226445e-03
7.1499146e-03
6.2905537e-03
4.6285208e-03
2.0477506e-03
6.4167319e-04
1.0129698e-04
7.2058767e-04
1.7041473e-03
1.0817868e-03
-3.8797005e-04
-2.1498300e-03
-2.9503763e-03
-2.9687135e-03
-2.8744779e-03
-2.8207214e-03
-3.8939617e-03
-4.1527847e-03
-3.4675049e-03
-3.2711446e-03
-3.5371073e-03
-4.0625323e-03
-2.3502141e-03
6.9129163e-04
3.0368042e-03
4.5615034e-03
4.4286245e-03
4.4316727e-03
4.0968291e-03
2.1465849e-03
-7.1721956e-05
-2.4016732e-03
-3.0262091e-03
-1.2836035e-03
1.4246572e-03
3.7222598e-03
4.5390161e-03
6.3604424e-03
9.6173694e-03
1.2265584e-02
1.3022554e-02
1.1159111e-02
8.9304650e-03
6.7171290e-03
3.7007206e-03
7.8619986e-04
-1.8150024e-03
-2.5884542e-03
-1.9500602e-03
-1.4626414e-03
-1.3624864e-03
-2.1446174e-03
-1.5323713e-03
5.3581459e-04
2.5109030e-03
4.7128607e-03
6.2471311e-03
7.9534828e-03
9.7868385e-03
1.1227060e-02
1.2246417e-02
1.0807119e-02
7.7541992e-03
4.0004030e-03
3.5134919e-05
-3.1267705e-03
-6.4753673e-03
-8.4200519e-03
-8.4775813e-03
-7.8866719e-03
-7.1146359e-03
-7.6053956e-03
-8.1777782e-03
-8.4456735e-03
-8.3740180e-03
-7.4015812e-03
-7.3438792e-03
-7.6169935e-03
-7.5099755e-03
-6.7321651e-03
-5.4961441e-03
-5.7375453e-03
-6.5289350e-03
-7.3472257e-03
-8.0188829e-03
-8.2927850e-03
-8.2012774e-03
-5.9438673e-03
-3.0437118e-03
-1.0211294e-03
2.2846042e-04
-2.7567078e-04
-1.2332474e-03
-2.0931781e-03
-2.1500232e-03
-1.4056089e-03
-1.4037549e-03
-9.6872846e-04
-1.4886577e-04
1.2060539e-03
2.9973333e-03
3.3376198e-03
2.6283555e-03
1.3542750e-03
4.6141472e-04
-4.3720489e-04
-2.7170471e-03
-4.4178623e-03
-5.2908567e-03
-5.1506905e-03
-3.5566501e-03
-2.0446156e-03
-5.3626722e-05
1.8563568e-03
3.5819103e-03
5.4500914e-03
6.1561573e-03
6.4193168e-03
5.9845957e-03
5.1888017e-03
3.9021867e-03
8.2988045e-04
-2.2588308e-03
-4.7173110e-03
-5.9113702e-03
-6.0783596e-03
-6.5375115e-03
-5.9577747e-03
-3.9912089e-03
-4.7801431e-04
2.9592660e-03
3.8770097e-03
3.6188847e-03
3.2633562e-03
3.4882827e-03
3.2727482e-03
1.5843952e-03
5.9997301e-04
5.5814135e-04
2.0860632e-03
4.3552872e-03
4.5261694e-03
4.2320143e-03
4.8218531e-03
6.6174228e-03
8.6736422e-03
9.3593560e-03
1.0007745e-02
1.0531221e-02
1.1460560e-02
1.2946935e-02
1.3746604e-02
1.4970191e-02
1.6255565e-02
1.7926468e-02
1.9723901e-02
1.9479422e-02
1.8363964e-02
1.6937363e-02
1.5048970e-02
1.1668850e-02
5.2179812e-03
-3.2856763e-03
-1.2858477e-02
-2.0257070e-02
-2.4459503e-02
-2.7064742e-02
-2.8160889e-02
-2.9092450e-02
-2.8299028e-02
-2.6141538e-02
-2.5551201e-02
-2.5648255e-02
-2.6433739e-02
-2.7064663e-02
-2.7001021e-02
-2.7130336e-02
-2.6431161e-02
-2.5607938e-02
-2.4533266e-02
-2.3326650e-02
-2.2661301e-02
-2.1164267e-02
-1.9618305e-02
-1.7302595e-02
-1.3497636e-02
-9.0285513e-03
-3.0905559e-03
2.6815618e-03
7.3324028e-03
1.0682011e-02
1.2225553e-02
1.3304813e-02
1.3461065e-02
1.3750336e-02
1.4592560e-02
1.4016542e-02
1.2578310e-02
1.0330680e-02
8.4705429e-03
7.5702241e-03
6.4301299e-03
5.2833167e-03
3.5918750e-03
2.7780131e-03
3.0965222e-03
3.2390467e-03
4.2491299e-03
5.8138490e-03
8.0247631e-03
1.0017426e-02
1.0523034e-02
1.0302438e-02
9.0855781e-03
8.5353962e-03
9.1715386e-03
9.5965776e-03
9.9914156e-03
9.7679885e-03
1.0008159e-02
1.0467351e-02
1.0015756e-02
9.3558486e-03
8.3287662e-03
8.4362555e-03
8.8855925e-03
7.9899207e-03
6.9916797e-03
5.6341427e-03
4.4476034e-03
3.4307569e-03
1.7342569e-03
-2.6432078e-04
-3.0549413e-03
-5.0708656e-03
-5.7665157e-03
-6.7825866e-03
-9.1995999e-03
-1.3195057e-02
-1.5528534e-02
-1.4974793e-02
-1.3181954e-02
-1.1083130e-02
-9.3038116e-03
-7.0301117e-03
-5.1511049e-03
-4.0397448e-03
-2.8207843e-03
-2.9685594e-03
-3.4395453e-03
-3.5973564e-03
-4.1494530e-03
-4.5871534e-03
-5.6174435e-03
-6.1095099e-03
-6.3921526e-03
-7.3907246e-03
-7.9184510e-03
-8.6810806e-03
-8.0797968e-03
-5.6100329e-03
-3.0505852e-03
1.1229548e-03
6.5719333e-03
1.2083671e-02
1.6871132e-02
2.0032891e-02
2.0965347e-02
1.8580611e-02
1.5206600e-02
1.1937033e-02
8.5654568e-03
5.4598525e-03
1.5769622e-03
-1.1021313e-03
-2.2126731e-03
-3.1363471e-03
-3.6795150e-03
-3.9679661e-03
-2.4376084e-03
-4.7420692e-04
-2.8938358e-04
-8.2183827e-04
-1.7436823e-03
-1.5030121e-03
4.9601020e-05
1.8007870e-03
2.6546690e-03
7.9882222e-04
-6.6580779e-04
-1.0329206e-04
5.9734840e-04
1.7497832e-04
-2.1987141e-03
-3.5875237e-03
-3.3946370e-03
-3.4046451e-03
-3.9972544e-03
-6.0841225e-03
-7.9030476e-03
-8.9615134e-03
-1.0458134e-02
-1.2293444e-02
-1.4319988e-02
-1.5434174e-02
-1.6802705e-02
-1.8785929e-02
-1.9995890e-02
-2.1083153e-02
-2.1353401e-02
-2.1054355e-02
-1.9868931e-02
-1.5373678e-02
-8.8760696e-03
-1.9290986e-03
4.8614363e-03
1.0324092e-02
1.3873062e-02
1.5088126e-02
1.5359652e-02
1.5046099e-02
1.4328905e-02
1.3592841e-02
1.2180679e-02
1.1088764e-02
9.8801296e-03
8.8790070e-03
8.5796193e-03
7.6907407e-03
7.7440471e-03
9.1587360e-03
1.1237348e-02
1.2896477e-02
1.2777209e-02
1.2960999e-02
1.3520869e-02
1.3614805e-02
1.2811756e-02
1.0836043e-02
1.0271354e-02
1.0664684e-02
1.0742127e-02
1.0556727e-02
9.4674088e-03
8.6369848e-03
7.3040490e-03
4.2588189e-03
4.8109241e-04
-2.6087759e-03
-3.0575607e-03
-2.1826769e-03
-8.3086151e-04
1.5597208e-03
3.8713708e-03
6.9152380e-03
9.8345203e-03
1.1322923e-02
1.1964593e-02
1.1585012e-02
1.1533918e-02
1.1258642e-02
8.9770027e-03
4.6090615e-03
-1.0977696e-03
-5.3574189e-03
-8.1152538e-03
-1.0157508e-02
-1.1873791e-02
-1.4402168e-02
-1.5602655e-02
-1.5230968e-02
-1.3963221e-02
-1.2406801e-02
-1.2347272e-02
-1.2179457e-02
-1.1543399e-02
-1.0553672e-02
-9.7922513e-03
-1.1007220e-02
-1.2306150e-02
-1.4015887e-02
-1.6609389e-02
-1.8990951e-02
-2.1076130e-02
-2.0917166e-02
-1.9790515e-02
-1.8354478e-02
-1.4303794e-02
-8.6674043e-03
-2.9652581e-03
1.4541974e-03
4.4971518e-03
5.9574291e-03
5.3320033e-03
5.1662634e-03
5.5927033e-03
6.3139595e-03
7.4160026e-03
7.2325439e-03
6.7846293e-03
7.1914982e-03
9.2152385e-03
1.2032235e-02
1.3430918e-02
1.4391826e-02
1.4926929e-02
1.5286214e-02
1.5470744e-02
1.4057516e-02
1.2640100e-02
1.1322704e-02
1.0052647e-02
9.5274178e-03
8.8659292e-03
8.2415889e-03
7.5025893e-03
7.6219557e-03
8.0169185e-03
7.0828606e-03
6.6165121e-03
6.0891971e-03
5.2380715e-03
4.5589889e-03
3.0412292e-03
1.5210918e-03
-1.0471628e-03
-4.2783744e-03
-6.4321004e-03
-8.3382246e-03
-9.5103934e-03
-9.9360310e-03
-9.5938514e-03
-9.6624292e-03
-1.1344350e-02
-1.2551374e-02
-1.3332940e-02
-1.3506137e-02
-1.2769869e-02
-1.2262462e-02
-1.1614670e-02
-1.1473634e-02
-1.1553686e-02
-1.1309767e-02
-1.1014847e-02
-1.0074962e-02
-9.0818251e-03
-6.9037150e-03
-3.3285708e-03
-4.8749190e-04
1.6742077e-03
2.9790542e-03
4.8877396e-03
8.1882422e-03
1.1601144e-02
1.5515322e-02
1.8970177e-02
2.1968635e-02
2.4390394e-02
2.5375510e-02
2.5574549e-02
2.4105407e-02
2.1363281e-02
1.6850066e-02
9.8280219e-03
3.1488626e-03
-2.2759198e-03
-5.1455088e-03
-5.8249363e-03
-7.0864826e-03
-8.3022594e-03
-9.2169769e-03
-9.2381317e-03
-8.7026610e-03
-9.0494324e-03
-9.6894379e-03
-1.0744370e-02
-1.1012775e-02
-1.0415449e-02
-1.0406415e-02
-1.0541366e-02
-1.1286617e-02
-1.1478879e-02
-1.0785705e-02
-1.0319923e-02
-9.1796121e-03
-7.8629564e-03
-5.4131427e-03
-1.5374173e-03
1.7059273e-03
3.8380522e-03
4.5958122e-03
5.1844363e-03
5.5985334e-03
5.3122036e-03
4.8231928e-03
2.9852008e-03
1.0120909e-03
-7.4460824e-04
-3.0284725e-03
-5.1938118e-03
-7.5680447e-03
-8.1380447e-03
-7.4707487e-03
-7.8279305e-03
-8.7115769e-03
-1.0545420e-02
-1.1370461e-02
-1.0201464e-02
-8.5704663e-03
-7.0376409e-03
-5.9530723e-03
-3.2714950e-03
5.2180280e-04
3.6156093e-03
6.6005428e-03
8.5516008e-03
1.0600541e-02
1.3047491e-02
1.4795881e-02
1.6438789e-02
1.7452753e-02
1.9770834e-02
2.3372976e-02
2.6439819e-02
2.8992151e-02
2.9719556e-02
3.0662456e-02
3.1962131e-02
3.1666100e-02
3.1079859e-02
2.9960318e-02
2.9074241e-02
2.7946127e-02
2.5225600e-02
2.1673186e-02
1.6418834e-02
9.7694697e-03
7.9264642e-04
-1.0680026e-02
-2.1083701e-02
-2.9084855e-02
-3.3687860e-02
-3.5401319e-02
-3.5629321e-02
-3.5076245e-02
-3.5541242e-02
-3.5533247e-02
-3.4141288e-02
-3.2310587e-02
-3.0635048e-02
-2.9999297e-02
-2.8282586e-02
-2.5833164e-02
-2.4459875e-02
-2.3837604e-02
-2.4900897e-02
-2.5899151e-02
-2.5204036e-02
-2.2882865e-02
-1.9132769e-02
-1.5044409e-02
-8.9710212e-03
-4.1546875e-04
9.1239995e-03
1.7608864e-02
2.2392417e-02
2.4838433e-02
2.6078812e-02
2.5615829e-02
2.3957249e-02
2.1526054e-02
2.0445862e-02
2.0576836e-02
2.1007125e-02
2.1766392e-02
2.1566177e-02
2.1759747e-02
2.2385802e-02
2.2786216e-02
2.3513139e-02
2.3903129e-02
2.5247764e-02
2.6619717e-02
2.6057179e-02
2.4125121e-02
2.0686830e-02
1.6123574e-02
9.5231418e-03
1.7441630e-03
-4.8688033e-03
-1.0803606e-02
-1.4730200e-02
-1.6618427e-02
-1.7341165e-02
-1.7269095e-02
-1.8282607e-02
-1.9060536e-02
-1.8532789e-02
-1.6850656e-02
-1.4196837e-02
-1.1646312e-02
-8.5694788e-03
-5.9935017e-03
-4.2809105e-03
-3.0614757e-03
-2.8407077e-03
-1.6193927e-03
-5.2721621e-04
-1.2185956e-03
-3.4239575e-03
-7.2644809e-03
-1.0225554e-02
-1.2341216e-02
-1.4330241e-02
-1.5370392e-02
-1.6054404e-02
-1.5924315e-02
-1.5620245e-02
-1.5182755e-02
-1.4757447e-02
-1.4983796e-02
-1.3874926e-02
-1.1726291e-02
-9.1660144e-03
-6.6949661e-03
-5.7030993e-03
-4.9362553e-03
-4.6527545e-03
-4.8122901e-03
-5.2062733e-03
-6.9635593e-03
-8.2740324e-03
-8.6771698e-03
-7.8452794e-03
-6.0066977e-03
-4.5830626e-03
-1.2038725e-03
5.0405730e-03
1.2827800e-02
1.8838726e-02
2.0667564e-02
2.0424113e-02
1.8785802e-02
1.7464437e-02
1.7474904e-02
1.7125870e-02
1.6697549e-02
1.5491144e-02
1.4196598e-02
1.3094156e-02
1.1007488e-02
1.0198764e-02
1.0843618e-02
1.2407794e-02
1.4445437e-02
1.5456851e-02
1.6460057e-02
1.6636149e-02
1.4885769e-02
1.1464038e-02
7.2250394e-03
3.6754878e-03
-2.7130405e-04
-3.1898083e-03
-4.0901143e-03
-4.8228584e-03
-4.4920369e-03
-3.4941834e-03
-2.1757465e-03
-1.2773841e-03
-1.7520560e-03
-1.6242418e-03
-1.2360292e-03
-4.7351449e-04
4.4575595e-04
-3.7732904e-06
-1.5189386e-04
2.3163211e-04
1.0905654e-03
2.1181246e-03
1.7500031e-03
7.9566536e-04
-7.1520541e-04
-1.9141850e-03
-2.4889687e-03
-3.4817146e-03
-3.8743415e-03
-4.3288627e-03
-4.4175551e-03
-4.3106714e-03
-5.4103812e-03
-6.6263722e-03
-8.2757465e-03
-9.2760894e-03
-9.5799676e-03
-1.0391125e-02
-9.7473615e-03
-8.5538063e-03
-7.6838428e-03
-6.6119143e-03
-5.9786563e-03
-5.4479458e-03
-5.3695493e-03
-4.7748462e-03
-3.5648372e-03
-3.1321569e-03
-2.7577331e-03
-2.7164104e-03
-2.4709450e-03
-2.6181789e-03
-4.5044655e-03
-6.4430442e-03
-8.1275216e-03
-8.6109162e-03
-9.0405157e-03
-1.1523180e-02
-1.3805662e-02
-1.4880073e-02
-1.3483484e-02
-9.8780880e-03
-6.1795037e-03
-2.8087168e-03
-1.1256367e-03
1.5334262e-04
1.5390581e-03
1.6502658e-03
1.3502245e-03
7.8254094e-04
1.3278315e-03
2.5537715e-03
2.7942771e-03
3.0293530e-03
2.9047058e-03
3.5761241e-03
5.2349888e-03
6.8252651e-03
9.4639732e-03
1.2437817e-02
1.6004770e-02
1.9092901e-02
1.9613355e-02
1.8372243e-02
1.5769264e-02
1.4191686e-02
1.3821885e-02
1.2460052e-02
1.0477381e-02
7.5755164e-03
5.4214275e-03
4.2958542e-03
2.5610145e-03
8.2132568e-04
-1.1366595e-03
-1.6194709e-03
-3.3752891e-04
1.2823498e-03
2.8683619e-03
2.1928778e-03
1.1388951e-03
1.6334738e-03
1.8359573e-03
1.4392604e-03
-5.9158776e-05
-1.6106823e-03
-2.5807160e-03
-3.4828341e-03
-4.0918835e-03
-5.5207611e-03
-6.6487341e-03
-7.2770384e-03
-8.5558209e-03
-9.5798027e-03
-1.0286423e-02
-9.7680189e-03
-8.3500997e-03
-7.1682954e-03
-6.0184672e-03
-5.5473425e-03
-4.1155070e-03
-1.3972255e-03
9.4572699e-04
3.2198087e-03
4.9022633e-03
6.8698997e-03
8.3950427e-03
7.8721760e-03
6.0442655e-03
2.5363337e-03
-1.4585985e-04
-9.7702942e-04
-1.6994982e-03
-2.5833027e-03
-4.2479832e-03
-4.8976720e-03
-4.2247829e-03
-4.1621731e-03
-5.3965335e-03
-7.7339659e-03
-8.8343975e-03
-9.2948394e-03
-1.0273028e-02
-1.0877530e-02
-1.1744906e-02
-1.1397702e-02
-1.0012038e-02
-8.9308882e-03
-7.3033757e-03
-6.2136344e-03
-5.9430025e-03
-6.2940652e-03
-6.3157202e-03
-5.0381989e-03
-3.1239042e-03
1.1402060e-03
5.8875044e-03
8.7722267e-03
1.0572796e-02
1.0274889e-02
9.4022384e-03
7.9352547e-03
5.2794676e-03
2.8180399e-03
-3.5151844e-04
-3.0538906e-03
-4.4539007e-03
-4.8605889e-03
-4.6709649e-03
-5.7936553e-03
-7.2741299e-03
-8.7418462e-03
-1.1086790e-02
-1.3763986e-02
-1.5721626e-02
-1.4788674e-02
-1.2185075e-02
-8.5748536e-03
-2.9962512e-03
2.3800832e-03
7.3365216e-03
1.1234076e-02
1.4190720e-02
1.7305162e-02
1.9045763e-02
1.9809880e-02
1.9582696e-02
1.8323626e-02
1.6904327e-02
1.5576360e-02
1.6087086e-02
1.7683419e-02
1.9251971e-02
2.1082945e-02
2.2142965e-02
2.3733418e-02
2.5932751e-02
2.7784114e-02
2.8768787e-02
2.7447438e-02
2.5452497e-02
2.2685701e-02
1.8066042e-02
1.1748805e-02
2.1190798e-03
-8.8210470e-03
-1.7752674e-02
-2.3070918e-02
-2.5066472e-02
-2.5783223e-02
-2.4504934e-02
-2.2633691e-02
-2.2434292e-02
-2.3265582e-02
-2.4054090e-02
-2.3453595e-02
-2.3003301e-02
-2.3226566e-02
-2.3714990e-02
-2.5351678e-02
-2.6180336e-02
-2.6283818e-02
-2.6201967e-02
-2.5434993e-02
-2.4762430e-02
-2.2312377e-02
-1.7738782e-02
-1.2118209e-02
-6.1042599e-03
9.6938758e-05
8.0593261e-03
1.5967241e-02
2.1611108e-02
2.3846698e-02
2.3166556e-02
2.3571448e-02
2.4666984e-02
2.4611617e-02
2.3694568e-02
2.2316739e-02
2.2167280e-02
2.2751706e-02
2.3640661e-02
2.4807270e-02
2.5383696e-02
2.6285475e-02
2.7174383e-02
2.8066226e-02
2.8671937e-02
2.8149269e-02
2.7499675e-02
2.5006150e-02
2.0140171e-02
1.3368868e-02
2.9695118e-03
-8.6539716e-03
-1.7687453e-02
-2.3143739e-02
-2.6819322e-02
-2.9467714e-02
-2.8768096e-02
-2.5874081e-02
-2.2325694e-02
-1.8526392e-02
-1.6149176e-02
-1.5015409e-02
-1.5478334e-02
-1.6592583e-02
-1.6899880e-02
-1.7199745e-02
-1.7599474e-02
-1.8826239e-02
-1.9692325e-02
-2.0001917e-02
-2.1170580e-02
-2.1143812e-02
-1.9532431e-02
-1.6082508e-02
-1.1083257e-02
-5.8431710e-03
-1.3885815e-04
4.2076815e-03
7.3753895e-03
9.5902039e-03
9.7499593e-03
9.7302246e-03
9.9360825e-03
1.0726813e-02
1.2080519e-02
1.2199037e-02
1.1696570e-02
1.1169912e-02
1.0456849e-02
8.1483289e-03
3.7917716e-03
6.3928609e-05
-2.5422423e-03
-3.7682166e-03
-4.0930401e-03
-4.8656763e-03
-4.6879744e-03
-3.3189780e-03
-2.9421502e-05
4.7486046e-03
9.2154876e-03
1.2958084e-02
1.3673151e-02
1.2430814e-02
1.1003482e-02
9.0645909e-03
7.8787167e-03
6.5348498e-03
4.7463492e-03
2.6749780e-03
3.2467430e-04
-1.0824006e-03
-2.7247823e-03
-3.8898651e-03
-4.2584896e-03
-5.2569885e-03
-6.0169136e-03
-7.2677860e-03
-8.3984864e-03
-9.0402444e-03
-1.0313658e-02
-1.1228961e-02
-1.1392805e-02
-9.8267465e-03
-7.3585166e-03
-5.5859650e-03
-3.7595944e-03
-2.2691890e-03
-3.9932521e-04
1.8493421e-03
3.6817199e-03
5.6529559e-03
6.3855920e-03
6.8946509e-03
7.7611705e-03
7.7607849e-03
8.2755144e-03
9.0636740e-03
9.9596443e-03
9.8124771e-03
7.9112851e-03
6.9672361e-03
7.1228516e-03
8.0282094e-03
8.5915935e-03
8.0032959e-03
7.3871361e-03
6.3978168e-03
6.1881557e-03
5.9752927e-03
4.2625447e-03
2.3391577e-03
-2.8812737e-04
-2.3674406e-03
-3.4358107e-03
-5.2951254e-03
-7.3809992e-03
-9.1922989e-03
-9.0023878e-03
-7.6945182e-03
-7.8071490e-03
-8.9274803e-03
-1.1720352e-02
-1.4282678e-02
-1.5019091e-02
-1.5626187e-02
-1.5974275e-02
-1.5741227e-02
-1.4084949e-02
-1.1655074e-02
-9.7085892e-03
-7.2169684e-03
-4.9053321e-03
-2.2289238e-03
9.6247553e-04
3.1473069e-03
4.5539846e-03
4.3844638e-03
4.1591811e-03
4.7342988e-03
4.3656089e-03
3.9591864e-03
4.1557229e-03
6.4062355e-03
1.0442314e-02
1.3200638e-02
1.4269001e-02
1.4344386e-02
1.4980332e-02
1.5699662e-02
1.5550299e-02
1.5629418e-02
1.5279737e-02
1.5075111e-02
1.4879903e-02
1.3505630e-02
1.1057332e-02
7.7492436e-03
5.3971024e-03
2.7381877e-03
-2.1345929e-03
-7.7816311e-03
-1.3056987e-02
-1.5799747e-02
-1.6737320e-02
-1.8009010e-02
-1.9105829e-02
-2.0620094e-02
-2.0823062e-02
-1.8911337e-02
-1.6592236e-02
-1.4221513e-02
-1.2917664e-02
-1.1495438e-02
-1.0592656e-02
-1.1907905e-02
-1.3479251e-02
-1.4992417e-02
-1.5477628e-02
-1.5267429e-02
-1.5552503e-02
-1.5196901e-02
-1.4381307e-02
-1.1653744e-02
-7.1717180e-03
-2.8124909e-03
1.1328401e-03
3.2484235e-03
5.2512583e-03
8.3225559e-03
1.1335816e-02
1.4120557e-02
1.5188620e-02
1.6051771e-02
1.7439860e-02
1.7922739e-02
1.8287764e-02
1.8437671e-02
1.9458970e-02
2.1400110e-02
2.3280610e-02
2.5186964e-02
2.5847083e-02
2.6504994e-02
2.7071123e-02
2.5917269e-02
2.3862686e-02
2.0301550e-02
1.6251461e-02
1.2357452e-02
7.0035370e-03
4.3901015e-04
-6.1761476e-03
-1.0418616e-02
-1.2836570e-02
-1.5341601e-02
-1.7254653e-02
-1.8957247e-02
-1.9862741e-02
-2.0758686e-02
-2.2712924e-02
-2.4519033e-02
-2.6403247e-02
-2.6666244e-02
-2.4873612e-02
-2.2454036e-02
-1.8982837e-02
-1.5106482e-02
-1.0554692e-02
-5.9400498e-03
-2.0834451e-03
1.6672255e-03
5.1142035e-03
9.3104574e-03
1.2795162e-02
1.3929240e-02
1.3687016e-02
1.2285369e-02
1.2199087e-02
1.3791661e-02
1.5540691e-02
1.7539484e-02
1.8972115e-02
2.0258669e-02
2.0281493e-02
1.8330875e-02
1.6283727e-02
1.4262025e-02
1.3211217e-02
1.2720447e-02
1.1512370e-02
1.0069087e-02
8.0576887e-03
7.7364005e-03
9.1396202e-03
9.7481359e-03
9.5969618e-03
8.1003664e-03
6.3795373e-03
4.2754974e-03
4.6777564e-04
-4.0383649e-03
-8.1845275e-03
-1.0182392e-02
-1.0939317e-02
-1.1369086e-02
-1.0563825e-02
-9.8137152e-03
-8.9423309e-03
-8.4281235e-03
-8.5629943e-03
-7.9259852e-03
-7.0608325e-03
-4.8083730e-03
-1.8726497e-03
-2.1407028e-04
6.1542330e-04
4.5727218e-04
7.1795876e-04
1.2617503e-03
1.6770464e-03
2.1971463e-03
7.8585059e-04
-1.2922939e-03
-2.9601296e-03
-4.4755177e-03
-4.9795772e-03
-5.2088507e-03
-4.6500283e-03
-3.8686336e-03
-4.3429402e-03
-5.8087919e-03
-8.7071280e-03
-1.1472869e-02
-1.3397503e-02
-1.5268491e-02
-1.7618102e-02
-2.1296800e-02
-2.3775215e-02
-2.4783791e-02
-2.5783319e-02
-2.6739810e-02
-2.8538361e-02
-2.9557295e-02
-2.9035313e-02
-2.7313673e-02
-2.4643742e-02
-2.2971433e-02
-2.0338858e-02
-1.4044959e-02
-3.5133099e-03
9.4618270e-03
2.0199835e-02
2.8502277e-02
3.4450088e-02
3.6580644e-02
3.6227961e-02
3.4453365e-02
3.2375200e-02
2.9249791e-02
2.4685989e-02
1.9848964e-02
1.4885665e-02
1.2188865e-02
1.2265113e-02
1.4065866e-02
1.5933938e-02
1.5053733e-02
1.3592502e-02
1.2863036e-02
1.2584363e-02
1.3165724e-02
1.2980226e-02
1.2589710e-02
1.1529716e-02
8.4561755e-03
3.9954822e-03
-7.7989590e-04
-4.1721349e-03
-6.8514518e-03
-8.5102064e-03
-8.7567627e-03
-9.2319687e-03
-8.0971858e-03
-5.1031727e-03
-1.6850728e-03
2.1565157e-03
5.4818516e-03
8.8238914e-03
1.1048071e-02
1.1182327e-02
9.9751388e-03
7.5251245e-03
6.5650827e-03
7.0221892e-03
7.2289782e-03
7.1030015e-03
5.6059668e-03
3.8288915e-03
1.7419911e-03
-1.4131206e-03
-5.7378113e-03
-1.0898112e-02
-1.4343417e-02
-1.6145625e-02
-1.6703316e-02
-1.7073926e-02
-1.9787214e-02
-2.2375697e-02
-2.3137267e-02
-2.2905844e-02
-2.2554245e-02
-2.3107718e-02
-2.2476721e-02
-2.0747839e-02
-1.8746417e-02
-1.6516716e-02
-1.5769032e-02
-1.4642581e-02
-1.2802448e-02
-1.1229637e-02
-9.6161587e-03
-9.3073078e-03
-9.3050958e-03
-8.4495729e-03
-5.6270286e-03
-1.0478453e-03
2.7557392e-03
6.8677328e-03
1.1849268e-02
1.7194427e-02
2.1455192e-02
2.2695167e-02
2.3253310e-02
2.3695408e-02
2.3655549e-02
2.3322980e-02
2.1914731e-02
2.0617068e-02
1.9138212e-02
1.7702608e-02
1.6562630e-02
1.4569121e-02
1.2851954e-02
1.0975667e-02
9.2629732e-03
8.0229832e-03
5.5124234e-03
2.8003728e-03
-4.4861016e-04
-5.2133192e-03
-1.1019079e-02
-1.6962434e-02
-2.0957377e-02
-2.2957151e-02
-2.2338326e-02
-2.0018214e-02
-1.8491299e-02
-1.6549842e-02
-1.4486661e-02
-1.2225219e-02
-9.6390688e-03
-8.7212566e-03
-8.5371375e-03
-8.0820120e-03
-6.6313302e-03
-4.5780101e-03
-3.3836941e-03
-1.5698667e-03
4.8060628e-04
2.3056607e-03
4.3400542e-03
5.6132986e-03
6.6890435e-03
6.6249560e-03
5.6245856e-03
4.9675592e-03
3.7934750e-03
2.3091197e-03
-1.4498042e-04
-2.8910513e-03
-5.1933641e-03
-8.2342457e-03
-1.0332487e-02
-1.0927263e-02
-1.0001052e-02
-8.2407574e-03
-7.3446185e-03
-6.3068542e-03
-6.1474810e-03
-6.6646663e-03
-6.8820339e-03
-7.9507285e-03
-8.4434910e-03
-7.5892723e-03
-5.8135032e-03
-4.6024839e-03
-4.2808880e-03
-2.4042005e-03
8.3618096e-04
5.9873018e-03
1.2121468e-02
1.5478686e-02
1.6542824e-02
1.6557622e-02
1.6640851e-02
1.6833736e-02
1.6393812e-02
1.7310528e-02
1.8998280e-02
2.0338084e-02
2.0682378e-02
1.9437497e-02
1.8658356e-02
1.7892628e-02
1.7422574e-02
1.7178821e-02
1.4995566e-02
1.2441828e-02
1.0715721e-02
1.0500524e-02
1.0756193e-02
9.3934400e-03
7.4352454e-03
4.5266391e-03
6.6533858e-04
-3.6774114e-03
-8.4569950e-03
-1.1775341e-02
-1.3616339e-02
-1.4402321e-02
-1.5152591e-02
-1.6862720e-02
-1.7535595e-02
-1.7128548e-02
-1.5814769e-02
-1.3943022e-02
-1.2633414e-02
-1.0906325e-02
-9.3189471e-03
-7.2035733e-03
-4.4058993e-03
-3.1038966e-03
-2.6630192e-03
-1.8161326e-03
3.0674015e-04
1.5997861e-03
2.2717757e-05
-2.6212212e-03
-5.6922685e-03
-7.8225737e-03
-8.7194049e-03
-9.8176319e-03
-1.0641919e-02
-1.2388508e-02
-1.4657516e-02
-1.5969652e-02
-1.6925952e-02
-1.6723077e-02
-1.5437504e-02
-1.2767078e-02
-9.7490076e-03
-8.6145840e-03
-7.8242317e-03
-6.5951611e-03
-4.3450065e-03
-1.3370913e-03
1.1028932e-03
3.6921725e-03
5.7742509e-03
7.3186024e-03
7.9645648e-03
7.0388754e-03
6.0661525e-03
5.2336201e-03
5.8270763e-03
7.3635619e-03
7.2104271e-03
6.2077250e-03
5.3492417e-03
5.8762389e-03
6.5911610e-03
5.4370633e-03
3.7479279e-03
1.1689071e-03
-5.4851531e-04
-3.8189694e-04
-3.3186667e-04
6.2581078e-04
1.9444874e-03
3.0252822e-03
3.8708798e-03
3.6993057e-03
3.4751002e-03
3.3977316e-03
4.8217021e-03
7.1273226e-03
7.8293136e-03
7.7960232e-03
6.9397938e-03
5.9016657e-03
4.8276684e-03
2.5396358e-03
1.4254735e-04
-1.7741960e-03
-1.7131215e-03
-8.7061351e-04
-1.5193918e-03
-1.6057514e-03
-8.6929307e-04
1.1339787e-03
4.0602670e-03
5.5754289e-03
6.1951750e-03
6.4920793e-03
7.6367577e-03
8.9093217e-03
8.0629902e-03
5.6259870e-03
1.9606730e-03
-7.5168451e-04
-2.1080542e-03
-4.0347280e-03
-5.7046517e-03
-7.2206230e-03
-7.3267971e-03
-6.4326947e-03
-7.2063594e-03
-8.1155231e-03
-8.3889034e-03
-7.9871161e-03
-7.9989227e-03
-9.8299015e-03
-1.1880596e-02
-1.3736132e-02
-1.4193787e-02
-1.3487084e-02
-1.2872497e-02
-1.1552995e-02
-1.0213846e-02
-7.7450319e-03
-4.9588609e-03
-4.5802419e-03
-5.1567769e-03
-5.4287909e-03
-4.6622914e-03
-4.0766698e-03
-4.9884566e-03
-5.2816131e-03
-4.5250650e-03
-1.6568595e-03
2.4518700e-03
4.3978733e-03
5.0141469e-03
5.6602631e-03
7.8402826e-03
1.0925340e-02
1.2618209e-02
1.3683225e-02
1.4350435e-02
1.5789353e-02
1.7879373e-02
1.8565857e-02
1.8515122e-02
1.8285365e-02
1.9075728e-02
2.0315957e-02
1.9779421e-02
1.8152830e-02
1.6005340e-02
1.5119819e-02
1.5087955e-02
1.3453670e-02
1.0889200e-02
7.0369882e-03
2.2063849e-03
-3.1947030e-03
-8.5712644e-03
-1.2054088e-02
-1.4455379e-02
-1.5755538e-02
-1.6328368e-02
-1.7470368e-02
-1.8831239e-02
-2.0920828e-02
-2.2894390e-02
-2.4741293e-02
-2.6727825e-02
-2.7506508e-02
-2.7720416e-02
-2.6613599e-02
-2.4583006e-02
-2.2879703e-02
-2.0200249e-02
-1.6821227e-02
-1.2774004e-02
-8.8263248e-03
-5.7280237e-03
-2.3103234e-03
1.4844380e-03
6.6774024e-03
1.1574580e-02
1.3766006e-02
1.4581907e-02
1.4214770e-02
1.3796015e-02
1.2834883e-02
1.0347032e-02
8.1794999e-03
6.3668814e-03
5.7871300e-03
5.5916692e-03
4.5425652e-03
3.9400499e-03
3.0781984e-03
2.7301372e-03
2.4263507e-03
5.7577831e-04
-1.7583898e-03
-4.3665280e-03
-6.2343384e-03
-7.5709212e-03
-8.9711869e-03
-9.5073165e-03
-9.5313419e-03
-7.3884549e-03
-4.1829042e-03
-2.9138897e-03
-2.2503190e-03
-1.7953923e-03
-4.3016507e-05
3.1457193e-03
5.7071241e-03
8.1604976e-03
9.8256935e-03
1.1428345e-02
1.3485979e-02
1.5089418e-02
1.6050252e-02
1.5526042e-02
1.5719719e-02
1.7011347e-02
1.7563182e-02
1.7558885e-02
1.6625888e-02
1.6609080e-02
1.7502867e-02
1.7443746e-02
1.6425637e-02
1.3389674e-02
9.4803720e-03
5.8193466e-03
2.8987845e-03
1.6757839e-03
9.8548829e-04
1.4556254e-03
2.4713089e-03
2.4907470e-03
1.9698475e-03
-1.0939233e-04
-2.4061571e-03
-4.0610869e-03
-5.5870633e-03
-6.3374934e-03
-7.8562238e-03
-9.1890867e-03
-9.8749067e-03
-1.1251323e-02
-1.2825993e-02
-1.4668813e-02
-1.4932441e-02
-1.3744966e-02
-1.2333120e-02
-1.0027723e-02
-7.9678105e-03
-5.1906325e-03
-2.0430568e-03
-3.5918470e-04
1.1031819e-03
2.3961618e-03
4.0859186e-03
5.8486381e-03
6.6152410e-03
7.3789421e-03
8.2442892e-03
1.0502654e-02
1.3371645e-02
1.5176815e-02
1.7010325e-02
1.8050206e-02
1.8855975e-02
2.0071225e-02
2.0708015e-02
2.0123566e-02
1.7088029e-02
1.3829346e-02
1.1654478e-02
9.4907052e-03
7.5186484e-03
4.8328693e-03
2.3201066e-03
1.7523808e-04
-2.0946860e-03
-3.5530316e-03
-4.8336966e-03
-4.6982133e-03
-3.5941488e-03
-2.6277628e-03
-5.2993018e-04
1.3928955e-03
3.4668474e-03
5.1490017e-03
4.9410102e-03
4.4906474e-03
3.6945446e-03
3.4790348e-03
4.1102596e-03
4.5950042e-03
5.5173994e-03
5.8553186e-03
6.0869804e-03
6.0094989e-03
5.0636364e-03
4.1572974e-03
1.6945394e-03
-2.4454543e-03
-6.9805581e-03
-1.0377942e-02
-1.1997511e-02
-1.4036777e-02
-1.5443058e-02
-1.5406593e-02
-1.5599648e-02
-1.6188236e-02
-1.7933251e-02
-1.9218696e-02
-1.9584591e-02
-2.1057636e-02
-2.3611736e-02
-2.7023434e-02
-2.9228277e-02
-3.0047989e-02
-3.0588844e-02
-3.0596131e-02
-3.1421618e-02
-3.1582948e-02
-3.0537265e-02
-2.8881597e-02
-2.5035859e-02
-1.9776886e-02
-1.2305437e-02
-3.3652325e-03
3.9465376e-03
9.7143206e-03
1.3906973e-02
1.7869897e-02
2.1206146e-02
2.2321164e-02
2.2717915e-02
2.2503044e-02
2.3520990e-02
2.6536611e-02
2.9039736e-02
3.0428289e-02
3.0913481e-02
3.2279149e-02
3.3979333e-02
3.4662485e-02
3.5247328e-02
3.4683883e-02
3.3812794e-02
3.2990420e-02
3.0797843e-02
2.6966529e-02
2.0374079e-02
1.1766574e-02
2.2193026e-03
-6.2797073e-03
-1.1391845e-02
-1.4443250e-02
-1.5497285e-02
-1.5617619e-02
-1.7056179e-02
-1.9538170e-02
-2.2366306e-02
-2.3083815e-02
-2.1977708e-02
-2.1066152e-02
-2.0104522e-02
-1.9821695e-02
-1.9296491e-02
-1.8062363e-02
-1.6727937e-02
-1.4721677e-02
-1.3147924e-02
-1.1537176e-02
-9.6485433e-03
-7.5287788e-03
-3.8426974e-03
-2.2844863e-04
2.8799589e-03
5.0355951e-03
5.4836412e-03
5.8451617e-03
6.0449662e-03
6.5742842e-03
6.7096922e-03
5.6080116e-03
4.4002536e-03
1.8103585e-03
-4.8892112e-04
-1.2318492e-03
-2.0725166e-03
-2.5639343e-03
-3.1499132e-03
-2.5408166e-03
-1.1660492e-03
-1.3993866e-03
-2.2414018e-03
-3.7092898e-03
-4.7019206e-03
-4.6329039e-03
-5.1589443e-03
-6.6342497e-03
-8.6965310e-03
-9.4863173e-03
-9.7746547e-03
-1.0990828e-02
-1.2178441e-02
-1.3188752e-02
-1.1980123e-02
-9.2965775e-03
-7.9019390e-03
-7.3063365e-03
-7.8724080e-03
-8.7419216e-03
-9.5723570e-03
-1.0952042e-02
-1.1995318e-02
-1.3435435e-02
-1.4791285e-02
-1.6215698e-02
-1.8381474e-02
-2.0111078e-02
-2.1490867e-02
-2.1220846e-02
-1.9527124e-02
-1.7855094e-02
-1.4575584e-02
-9.4152394e-03
-8.2345787e-04
1.0652757e-02
2.0376076e-02
2.7314307e-02
3.1661918e-02
3.4573701e-02
3.6159683e-02
3.6065809e-02
3.5715922e-02
3.4061860e-02
3.1946486e-02
2.9964722e-02
2.6860266e-02
2.3339416e-02
1.9297832e-02
1.6041291e-02
1.3929689e-02
1.2050829e-02
1.1224757e-02
1.0494115e-02
1.0027022e-02
9.9343557e-03
8.9792992e-03
7.7460736e-03
5.8686550e-03
4.4018062e-03
3.3616483e-03
8.3719864e-04
-1.7356920e-03
-3.8124298e-03
-4.7753134e-03
-5.1847528e-03
-6.4506857e-03
-6.8867385e-03
-6.7756770e-03
-5.7642412e-03
-4.6732914e-03
-5.6490345e-03
-6.7333782e-03
-7.5031945e-03
-7.7122411e-03
-7.2439448e-03
-6.6404598e-03
-5.0495277e-03
-3.7084736e-03
-2.5366871e-03
-1.6709256e-03
-2.0313625e-03
-2.5213557e-03
-3.2391165e-03
-2.9424606e-03
-1.9446674e-03
-2.7673198e-03
-4.4542401e-03
-5.6692612e-03
-5.2025260e-03
-3.6013305e-03
-2.4445844e-03
-8.7569229e-04
7.5582609e-04
2.2606999e-03
3.3063913e-03
3.8341412e-03
5.4791029e-03
7.6097096e-03
1.0733009e-02
1.4904736e-02
1.8132545e-02
2.0773641e-02
2.2921624e-02
2.5451109e-02
2.7477223e-02
2.6664029e-02
2.3796166e-02
1.8391627e-02
1.1464416e-02
4.2409026e-03
-3.4260239e-03
-9.4870459e-03
-1.3907509e-02
-1.6807582e-02
-1.9306500e-02
-2.2642562e-02
-2.4829850e-02
-2.6550544e-02
-2.7366081e-02
-2.6440311e-02
-2.5443193e-02
-2.3709966e-02
-2.1598761e-02
-1.9431237e-02
-1.7669968e-02
-1.6964112e-02
-1.5645668e-02
-1.4109872e-02
-1.2304061e-02
-1.0318248e-02
-9.0112546e-03
-7.2058058e-03
-5.3630630e-03
-3.5460250e-03
-2.1454115e-03
-1.9030083e-03
-6.3114451e-04
1.5548673e-03
3.6576695e-03
4.2505647e-03
2.4781742e-03
1.2680169e-03
1.2759704e-03
2.5856591e-03
4.0747424e-03
3.9537722e-03
4.0781910e-03
4.9847027e-03
7.2577642e-03
1.0005876e-02
1.0986117e-02
1.1233292e-02
1.0708073e-02
9.9630627e-03
8.9202884e-03
5.9595531e-03
2.6879131e-03
-6.0618542e-04
-4.4634057e-03
-9.1090639e-03
-1.4620967e-02
-1.8780805e-02
-2.1401696e-02
-2.2383467e-02
-2.1637066e-02
-2.0928241e-02
-2.0406864e-02
-1.9815755e-02
-1.8072175e-02
-1.5738164e-02
-1.4633180e-02
-1.3757044e-02
-1.2660164e-02
-1.0620280e-02
-8.0434561e-03
-6.4328876e-03
-4.7039731e-03
-3.1715389e-03
-1.4356096e-03
4.5436821e-04
1.0774113e-03
2.1758954e-03
4.6231291e-03
9.5856637e-03
1.6240077e-02
2.1579580e-02
2.6463380e-02
3.0487833e-02
3.3682368e-02
3.6060052e-02
3.5570104e-02
3.4019018e-02
3.2308315e-02
3.0228691e-02
2.7935741e-02
2.5086910e-02
2.3335195e-02
2.2180000e-02
2.1489158e-02
2.0659654e-02
1.8076254e-02
1.6629214e-02
1.6335201e-02
1.5307612e-02
1.3435716e-02
1.0583312e-02
8.3269200e-03
5.8084764e-03
1.6733273e-03
-3.7316848e-03
-9.6358513e-03
-1.4200461e-02
-1.7622478e-02
-2.0037167e-02
-2.1832746e-02
-2.3962364e-02
-2.5429318e-02
-2.6748167e-02
-2.7470772e-02
-2.7520896e-02
-2.8348803e-02
-2.8166355e-02
-2.6951610e-02
-2.5905384e-02
-2.5785022e-02
-2.7208998e-02
-2.8103759e-02
-2.8722015e-02
-2.8864621e-02
-2.7202048e-02
-2.4879771e-02
-2.0960681e-02
-1.4745397e-02
-5.6220812e-03
4.9300107e-03
1.1982085e-02
1.5947636e-02
1.8848379e-02
2.1579217e-02
2.3964015e-02
2.3938530e-02
2.3034823e-02
2.2480583e-02
2.2361350e-02
2.2432230e-02
2.1246444e-02
1.9794160e-02
1.8655109e-02
1.8800967e-02
2.0555495e-02
2.2132299e-02
2.3779525e-02
2.4915455e-02
2.5735087e-02
2.6299042e-02
2.5163113e-02
2.3181791e-02
1.9165943e-02
1.3023144e-02
6.6118417e-03
8.9803551e-05
-4.5317257e-03
-7.2090865e-03
-9.3696554e-03
-1.1533750e-02
-1.4297928e-02
-1.6656047e-02
-1.9346031e-02
-2.1978127e-02
-2.3341746e-02
-2.3936163e-02
-2.2924330e-02
-2.2182640e-02
-2.2515662e-02
-2.2774167e-02
-2.3584196e-02
-2.3947511e-02
-2.4640917e-02
-2.5794111e-02
-2.6186196e-02
-2.6218355e-02
-2.3780735e-02
-1.8542550e-02
-1.2180597e-02
-5.9197623e-03
-1.1444928e-03
3.1782905e-03
7.1143134e-03
1.0890401e-02
1.4294309e-02
1.5888385e-02
1.7642530e-02
1.9244336e-02
1.9717238e-02
1.9720337e-02
1.8501896e-02
1.7571617e-02
1.7185155e-02
1.6964029e-02
1.6915438e-02
1.5363729e-02
1.3595740e-02
1.2547838e-02
1.1859363e-02
1.0788223e-02
8.3104864e-03
6.3876984e-03
4.9568930e-03
3.8071120e-03
3.7548797e-03
3.0196774e-03
2.2633817e-03
1.8878947e-03
1.2899723e-03
1.2102319e-04
-3.1969276e-03
-6.7459268e-03
-9.3262504e-03
-1.1142303e-02
-1.1975470e-02
-1.3468826e-02
-1.4342299e-02
-1.3906873e-02
-1.3037296e-02
-1.2271129e-02
-1.3165424e-02
-1.3967302e-02
-1.3850006e-02
-1.3926887e-02
-1.3952289e-02
-1.3743782e-02
-1.1714599e-02
-8.1932491e-03
-4.1869950e-03
3.4052380e-05
2.8749327e-03
5.3403741e-03
7.6257257e-03
9.2448051e-03
9.9343656e-03
8.4049414e-03
7.5197994e-03
8.7168826e-03
1.0465696e-02
1.2097678e-02
1.2592682e-02
1.2797457e-02
1.2849512e-02
1.2784202e-02
1.2704174e-02
1.1637026e-02
1.1071812e-02
1.0674439e-02
9.7083210e-03
8.4538098e-03
5.6790844e-03
2.3429773e-03
-1.5936378e-03
-6.0339562e-03
-9.1991232e-03
-1.1177903e-02
-1.0856781e-02
-8.7763074e-03
-6.6786613e-03
-4.9490846e-03
-4.3721238e-03
-3.4254180e-03
-2.2624657e-03
-2.4087417e-03
-3.8611346e-03
-5.9624670e-03
-5.2003356e-03
-2.0480441e-03
4.0153992e-04
1.8151394e-03
1.8723296e-03
2.4913962e-03
3.8154226e-03
4.2986714e-03
3.9003488e-03
2.6816206e-03
3.1939750e-03
5.2042034e-03
6.2889858e-03
6.3441820e-03
5.2631817e-03
4.9695013e-03
5.6420902e-03
5.9084413e-03
5.9135344e-03
4.3884306e-03
2.2381861e-03
-1.4725815e-05
-3.0666360e-03
-5.7861661e-03
-7.6727469e-03
-7.3818064e-03
-5.4038943e-03
-3.5919358e-03
-2.8671927e-03
-3.9235726e-03
-4.6312837e-03
-4.3917734e-03
-3.8534854e-03
-2.9572372e-03
-3.0820226e-03
-2.8797533e-03
-1.6251720e-03
-3.8286235e-04
9.0313939e-04
1.4047389e-03
2.9493676e-03
6.1542155e-03
8.8240157e-03
1.0413155e-02
1.0537826e-02
1.0786966e-02
1.1749907e-02
1.2964028e-02
1.4145319e-02
1.4223821e-02
1.5279080e-02
1.6569677e-02
1.5867923e-02
1.4694092e-02
1.3153567e-02
1.1812988e-02
1.0445053e-02
8.4990927e-03
7.5147894e-03
7.0980179e-03
7.6271739e-03
7.5539555e-03
4.1349854e-03
-9.1310713e-04
-5.7174749e-03
-9.0868469e-03
-1.1757633e-02
-1.4271565e-02
-1.5777036e-02
-1.7560790e-02
-1.8604142e-02
-1.8553601e-02
-1.8961766e-02
-1.9211551e-02
-1.9340733e-02
-1.8199631e-02
-1.5239470e-02
-1.1848361e-02
-8.5501142e-03
-6.3670572e-03
-4.2557554e-03
-2.0415468e-03
-1.1317451e-03
-9.5810075e-04
-1.6589110e-03
-2.3688059e-03
-3.0245976e-03
-3.7586551e-03
-3.8095181e-03
-4.3609981e-03
-4.2172993e-03
-3.8050218e-03
-4.6922801e-03
-5.5875326e-03
-6.9260912e-03
-7.0558424e-03
-5.4383584e-03
-4.1000097e-03
-2.4709057e-03
-7.8293466e-04
1.3642631e-03
3.0676399e-03
3.0299162e-03
2.2581465e-03
3.4241145e-04
-1.3233878e-03
-2.5731839e-03
-4.4201104e-03
-6.1013421e-03
-8.3540056e-03
-9.3206548e-03
-8.1966172e-03
-6.3724763e-03
-3.0325009e-03
6.8635339e-04
4.0969739e-03
6.3859717e-03
6.2370837e-03
5.5637513e-03
5.5643690e-03
7.5618519e-03
1.0531248e-02
1.1325326e-02
1.0817347e-02
9.3580172e-03
7.4473674e-03
5.9946164e-03
4.9577248e-03
5.1077858e-03
5.6181400e-03
6.7801935e-03
7.6738186e-03
6.6511451e-03
5.3993180e-03
4.2245692e-03
3.4770233e-03
2.5641702e-03
-6.0063436e-06
-2.9004175e-03
-5.3018685e-03
-6.0256053e-03
-5.3971898e-03
-5.1017574e-03
-4.3286609e-03
-3.5220681e-03
-2.7288572e-03
-2.2858823e-03
-2.6595081e-03
-2.2815472e-03
-2.1194687e-03
-1.9660551e-03
-1.8469056e-03
-3.0424390e-03
-3.6469772e-03
-4.0481367e-03
-4.8980233e-03
-6.1924683e-03
-8.4230967e-03
-9.3131763e-03
-8.7287608e-03
-7.3935790e-03
-6.0459125e-03
-5.0829954e-03
-2.8509248e-03
-6.9770216e-04
9.7759852e-04
1.6159107e-03
1.0719858e-04
-9.9413026e-04
-1.5012322e-03
-1.6498000e-03
-1.4602179e-03
-1.8512896e-03
-1.6940174e-03
-1.6261544e-03
-1.6824087e-03
-1.8143562e-03
-3.2038925e-03
-4.1854881e-03
-3.9271372e-03
-2.1376510e-03
-1.4262500e-04
9.1482520e-04
2.8742420e-03
4.6019774e-03
5.8602034e-03
6.4304876e-03
5.0719912e-03
4.2935317e-03
4.8909476e-03
6.4210468e-03
7.8687002e-03
8.2875840e-03
9.2525058e-03
9.9902153e-03
1.0314452e-02
1.0029886e-02
7.9897907e-03
6.4894509e-03
6.1203761e-03
6.6330351e-03
7.5555924e-03
7.5495802e-03
8.0778503e-03
9.4265132e-03
1.1689689e-02
1.4042756e-02
1.4166264e-02
1.2906595e-02
1.0479633e-02
7.6735165e-03
5.0033816e-03
1.5419939e-03
-1.2077897e-03
-3.2857715e-03
-4.7517481e-03
-5.4383205e-03
-6.4935669e-03
-7.2171147e-03
-7.5406117e-03
-6.8214262e-03
-5.6720745e-03
-6.5740461e-03
-8.1674329e-03
-9.6874731e-03
-1.0838122e-02
-1.1455448e-02
-1.2600066e-02
-1.2733668e-02
-1.1595448e-02
-9.2401337e-03
-6.7467142e-03
-5.7370538e-03
-4.0219428e-03
-2.1943951e-03
-1.0223835e-03
-3.2580693e-04
-9.2427329e-04
-4.4981280e-04
8.7725302e-04
1.5977398e-03
8.8478246e-04
-1.6435599e-03
-3.1246951e-03
-3.8658883e-03
-4.7183617e-03
-5.8561120e-03
-8.6185815e-03
-1.1327678e-02
-1.3998351e-02
-1.7275827e-02
-2.0458901e-02
-2.3390566e-02
-2.4128535e-02
-2.3013147e-02
-2.1548817e-02
-2.0581200e-02
-2.0919015e-02
-2.0582176e-02
-1.9500498e-02
-1.7920062e-02
-1.4846258e-02
-9.6224135e-03
-1.3885315e-03
6.9451659e-03
1.4014042e-02
1.9601531e-02
2.2759110e-02
2.5507148e-02
2.7732953e-02
2.9366005e-02
3.0385283e-02
2.9565099e-02
2.8818526e-02
2.8660998e-02
2.8887343e-02
2.9338155e-02
2.8521859e-02
2.8242449e-02
2.9023680e-02
2.9516697e-02
2.8885688e-02
2.6494198e-02
2.4325848e-02
2.1557488e-02
1.6887887e-02
1.0593847e-02
9.5801991e-04
-9.9278142e-03
-1.8806752e-02
-2.4683303e-02
-2.8613881e-02
-3.2564537e-02
-3.4710386e-02
-3.5075570e-02
-3.4742052e-02
-3.3998795e-02
-3.4419686e-02
-3.5193594e-02
-3.6431650e-02
-3.7801900e-02
-3.8619424e-02
-3.9871282e-02
-3.9866413e-02
-3.8585799e-02
-3.7161790e-02
-3.5933024e-02
-3.5332249e-02
-3.3309274e-02
-2.9859707e-02
-2.4625261e-02
-1.6531875e-02
-6.2374898e-03
6.6962296e-03
1.9186048e-02
2.8622960e-02
3.4978077e-02
3.7889265e-02
4.0358827e-02
4.3465887e-02
4.6382666e-02
4.8726849e-02
4.9464291e-02
5.0605014e-02
5.2368484e-02
5.3977340e-02
5.6327853e-02
5.9013522e-02
6.2454553e-02
6.6253967e-02
6.9601101e-02
7.1938250e-02
7.1956379e-02
7.0295489e-02
6.6666416e-02
5.9737884e-02
4.7730484e-02
2.8435826e-02
6.5809509e-03
-1.1738045e-02
-2.5279308e-02
-3.4567777e-02
-4.1046427e-02
-4.3799179e-02
-4.3567933e-02
-4.2027639e-02
-3.9206579e-02
-3.6793338e-02
-3.4257456e-02
-3.1365399e-02
-2.8736814e-02
-2.6773261e-02
-2.6768130e-02
-2.6346788e-02
-2.4688519e-02
-2.3316248e-02
-2.2592965e-02
-2.3291197e-02
-2.3681607e-02
-2.3402288e-02
-2.2722390e-02
-2.0976572e-02
-1.9672776e-02
-1.7950595e-02
-1.5675406e-02
-1.3435314e-02
-1.0928797e-02
-9.3143504e-03
-8.1499094e-03
-8.1954953e-03
-8.9333107e-03
-8.7655731e-03
-8.9145518e-03
-8.1129205e-03
-6.1219578e-03
-3.6339115e-03
-9.3566486e-05
3.2814056e-03
7.1649387e-03
1.1575694e-02
1.5354683e-02
1.7815716e-02
1.7920427e-02
1.7694686e-02
1.7370098e-02
1.6350643e-02
1.5081955e-02
1.0928190e-02
5.3596561e-03
1.0114720e-03
-2.5542032e-03
-5.6157586e-03
-8.8860496e-03
-1.0479009e-02
-1.0931032e-02
-1.2476507e-02
-1.3854072e-02
-1.4394303e-02
-1.3039565e-02
-1.0924238e-02
-9.9785536e-03
-1.0000959e-02
-1.1359479e-02
-1.1595050e-02
-1.0394374e-02
-9.5149650e-03
-8.4491407e-03
-7.4900623e-03
-5.5126338e-03
-3.6111963e-03
-3.1825102e-03
-3.2449616e-03
-3.9624428e-03
-3.2640478e-03
-1.4237325e-03
4.0297074e-04
2.8958533e-03
4.7590615e-03
7.5492545e-03
1.1007047e-02
1.2978225e-02
1.4213785e-02
1.4779697e-02
1.5887599e-02
1.7418189e-02
1.9010847e-02
2.1092180e-02
2.1310885e-02
2.0896450e-02
2.0805692e-02
1.9670035e-02
1.8496144e-02
1.6603864e-02
1.4295444e-02
1.1994486e-02
8.9234528e-03
4.7120128e-03
-1.1499733e-03
-5.6457758e-03
-7.6252664e-03
-8.5818452e-03
-9.2753699e-03
-1.0970319e-02
-1.2189115e-02
-1.3117337e-02
-1.5124828e-02
-1.7482232e-02
-2.0002835e-02
-2.1273633e-02
-2.2417212e-02
-2.4695708e-02
-2.6837226e-02
-2.9144699e-02
-2.9890566e-02
-2.8894785e-02
-2.7436938e-02
-2.5598515e-02
-2.5071114e-02
-2.4394369e-02
-2.2378995e-02
-1.9010027e-02
-1.3077488e-02
-5.8398553e-03
2.1050475e-03
9.2987195e-03
1.4587091e-02
1.8363293e-02
1.9727406e-02
2.0428313e-02
2.0260492e-02
1.7704258e-02
1.4575137e-02
1.0769349e-02
7.1008702e-03
4.2829329e-03
1.4021383e-03
-8.9149651e-04
-3.1994767e-03
-4.7971620e-03
-5.6217808e-03
-6.4368756e-03
-6.3841000e-03
-5.8522544e-03
-3.6591707e-03
-4.5107982e-04
2.3694963e-03
5.6330067e-03
8.2026197e-03
1.0533446e-02
1.2388978e-02
1.2627614e-02
1.2509839e-02
1.2574493e-02
1.4286398e-02
1.6136321e-02
1.5948560e-02
1.5459566e-02
1.5456211e-02
1.7203417e-02
2.0126772e-02
2.2837429e-02
2.4966900e-02
2.5714340e-02
2.7957171e-02
3.1946357e-02
3.5028095e-02
3.6655569e-02
3.5759502e-02
3.3793216e-02
3.1491224e-02
2.7947080e-02
2.3111152e-02
1.6091654e-02
9.1246749e-03
3.0073755e-03
-3.5920485e-03
-1.0252742e-02
-1.6958756e-02
-2.1384427e-02
-2.3871940e-02
-2.6186649e-02
-2.7685242e-02
-2.9248317e-02
-2.9104598e-02
-2.7515855e-02
-2.6659571e-02
-2.5967789e-02
-2.6530846e-02
-2.7373283e-02
-2.8118674e-02
-2.9486551e-02
-3.0402070e-02
-3.0731265e-02
-2.8762330e-02
-2.5352892e-02
-2.2298622e-02
-1.8848534e-02
-1.4781686e-02
-8.4251748e-03
-1.3295763e-03
4.0152924e-03
7.8236476e-03
9.0940019e-03
9.9597928e-03
1.1950296e-02
1.4340752e-02
1.7281492e-02
1.9340534e-02
2.1171760e-02
2.2563265e-02
2.2417342e-02
2.2033122e-02
2.1182945e-02
2.1250916e-02
2.2351997e-02
2.2564649e-02
2.1931314e-02
1.9756895e-02
1.7780384e-02
1.6312899e-02
1.3833822e-02
1.1340907e-02
8.9390841e-03
7.7755241e-03
6.8250420e-03
4.9397477e-03
3.5300843e-03
1.3218085e-03
-1.4575506e-03
-4.5686912e-03
-8.4017689e-03
-1.1816504e-02
-1.4522283e-02
-1.4735222e-02
-1.3190893e-02
-1.1418427e-02
-8.6615124e-03
-6.0356120e-03
-2.9240112e-03
2.6715679e-04
2.3420073e-03
4.2651282e-03
5.1660140e-03
5.3718759e-03
5.1265474e-03
4.0892958e-03
2.0837460e-03
-2.7254742e-03
-8.2169122e-03
-1.2007521e-02
-1.4072381e-02
-1.4894263e-02
-1.6080432e-02
-1.5877716e-02
-1.4632213e-02
-1.3905142e-02
-1.2137427e-02
-9.8214023e-03
-7.0242356e-03
-4.7003952e-03
-3.8053975e-03
-3.0019697e-03
-2.4640818e-03
-9.3705953e-04
1.5453582e-03
3.2551739e-03
3.7987611e-03
2.6121822e-03
2.3643206e-03
3.6330734e-03
4.4885749e-03
4.5594024e-03
2.9420991e-03
1.8555189e-03
1.8000947e-03
1.1844204e-03
2.6644363e-04
-1.5897851e-03
-3.1075870e-03
-4.4274047e-03
-6.6058202e-03
-8.9895467e-03
-1.2151573e-02
-1.5137876e-02
-1.8303412e-02
-2.1846653e-02
-2.4836588e-02
-2.7972075e-02
-2.9406506e-02
-2.9349473e-02
-2.9619414e-02
-3.0388489e-02
-3.1900952e-02
-3.2014245e-02
-3.0542622e-02
-2.8335283e-02
-2.5226344e-02
-2.1649712e-02
-1.6294715e-02
-1.0859909e-02
-7.1883732e-03
-4.7948558e-03
-4.2225695e-03
-3.3773234e-03
-1.6245614e-03
-2.3008110e-05
1.2320183e-03
8.6331663e-04
1.7689055e-04
-5.8769833e-05
-4.0515630e-04
-1.3449679e-03
-3.8413981e-03
-5.8361336e-03
-7.0777450e-03
-8.2460874e-03
-9.1977974e-03
-1.1405478e-02
-1.3638546e-02
-1.5616325e-02
-1.7220312e-02
-1.7070067e-02
-1.5375357e-02
-1.1521966e-02
-8.3422607e-03
-7.1396780e-03
-5.9078994e-03
-5.3019304e-03
-4.3094373e-03
-2.8549073e-03
-1.1650931e-03
1.2523879e-03
3.6557782e-03
7.1514835e-03
1.0817006e-02
1.4186981e-02
1.7751961e-02
2.0456853e-02
2.4422514e-02
2.9216125e-02
3.2759592e-02
3.5078005e-02
3.6052372e-02
3.7187409e-02
3.7973190e-02
3.7880937e-02
3.5139704e-02
2.7232434e-02
1.8594673e-02
1.2526853e-02
8.8304099e-03
7.0382603e-03
6.0826656e-03
7.2409490e-03
1.0415836e-02
1.4539093e-02
1.8318030e-02
2.0148169e-02
2.1476063e-02
2.2589165e-02
2.3016010e-02
2.1934343e-02
1.8571020e-02
1.5605585e-02
1.3460707e-02
1.1929412e-02
1.1167373e-02
9.3785395e-03
7.4384113e-03
6.0876207e-03
6.1861377e-03
8.1507768e-03
1.0524533e-02
1.3491580e-02
1.5855433e-02
1.7424980e-02
1.8000524e-02
1.6048790e-02
1.3685618e-02
1.2329917e-02
1.2647648e-02
1.3412787e-02
1.2011187e-02
1.0137781e-02
8.8511043e-03
8.3043874e-03
7.5118058e-03
5.4686986e-03
4.6415102e-03
4.5464064e-03
4.7275718e-03
4.6856154e-03
2.3497314e-03
-1.9572455e-04
-1.8486142e-03
-2.6410143e-03
-3.3773297e-03
-5.1333236e-03
-5.9939110e-03
-6.4173220e-03
-7.3845465e-03
-8.7718726e-03
-1.0474193e-02
-1.1489539e-02
-1.2756076e-02
-1.3983813e-02
-1.4957149e-02
-1.6879137e-02
-1.9259956e-02
-2.2512232e-02
-2.5213776e-02
-2.7309912e-02
-3.0801145e-02
-3.4607764e-02
-3.8016193e-02
-3.9263620e-02
-3.9127854e-02
-3.9782188e-02
-3.9065610e-02
-3.6261691e-02
-3.1237725e-02
-2.5026896e-02
-1.7777416e-02
-8.1268174e-03
-8.4132595e-05
5.3312983e-03
9.6222598e-03
1.2587173e-02
1.5578288e-02
1.8025562e-02
2.0876990e-02
2.4242164e-02
2.6726460e-02
2.9007068e-02
3.0939083e-02
3.4131574e-02
3.7721453e-02
3.9351206e-02
3.9874630e-02
3.9717633e-02
4.0033694e-02
4.0320511e-02
3.8902837e-02
3.5859140e-02
3.0515531e-02
2.3184470e-02
1.3508686e-02
5.4192327e-04
-1.3785433e-02
-2.6095121e-02
-3.3050481e-02
-3.6119155e-02
-3.7687932e-02
-3.8121526e-02
-3.9138702e-02
-3.8876387e-02
-3.6885246e-02
-3.4603139e-02
-3.1985395e-02
-3.0641918e-02
-2.8629024e-02
-2.5216586e-02
-2.2145974e-02
-1.9497686e-02
-1.8438709e-02
-1.7831070e-02
-1.7004622e-02
-1.5633835e-02
-1.3015108e-02
-1.0823274e-02
-7.8491774e-03
-3.4488241e-03
1.7494554e-03
6.8742779e-03
9.5445047e-03
1.1045289e-02
1.1387656e-02
9.8953193e-03
7.6224397e-03
4.0218508e-03
3.2680358e-04
-3.1459318e-03
-6.3295800e-03
-8.4994748e-03
-1.0841340e-02
-1.2715345e-02
-1.3878611e-02
-1.4097086e-02
-1.3431549e-02
-1.4060628e-02
-1.5238054e-02
-1.6281353e-02
-1.6972444e-02
-1.7356095e-02
-1.8105808e-02
-1.6849318e-02
-1.2683498e-02
-5.5448793e-03
2.5600916e-03
7.6730499e-03
1.0766957e-02
1.2814715e-02
1.5381174e-02
1.9280275e-02
2.1853163e-02
2.3741859e-02
2.5322254e-02
2.6932189e-02
2.8420923e-02
2.7720257e-02
2.6465812e-02
2.5256947e-02
2.4347814e-02
2.3992983e-02
2.2632337e-02
2.1716852e-02
2.1856798e-02
2.2642643e-02
2.2863657e-02
2.1035958e-02
1.8487002e-02
1.5170245e-02
1.0978476e-02
5.8483816e-03
3.3596494e-04
-2.9164685e-03
-4.1747543e-03
-4.2366703e-03
-4.2823820e-03
-5.3671523e-03
-6.5093644e-03
-8.7424713e-03
-1.0632573e-02
-1.0712362e-02
-9.9256763e-03
-7.7222878e-03
-5.5830008e-03
-3.3006320e-03
-7.3891938e-04
5.8788398e-04
1.7846167e-03
2.9304904e-03
4.6425450e-03
5.7418839e-03
4.4072392e-03
2.6345183e-03
8.7990659e-04
5.3171764e-04
1.3211470e-03
7.7010064e-04
1.8477825e-04
-2.7436112e-04
-8.9558254e-04
-1.7976039e-03
-3.2037290e-03
-4.4853472e-03
-6.4950522e-03
-8.3198657e-03
-1.0000498e-02
-1.2331193e-02
-1.4988293e-02
-1.8927170e-02
-2.2015856e-02
-2.3189560e-02
-2.3494206e-02
-2.3154554e-02
-2.3254537e-02
-2.2452350e-02
-2.0527014e-02
-1.8512103e-02
-1.6233881e-02
-1.3569966e-02
-7.5323280e-03
9.9642100e-04
7.8611014e-03
1.2360201e-02
1.4382747e-02
1.6287446e-02
1.8650308e-02
1.9779267e-02
2.0189056e-02
2.0204970e-02
2.1709213e-02
2.4852438e-02
2.8197318e-02
3.1020732e-02
3.2234919e-02
3.3350638e-02
3.4497062e-02
3.4773697e-02
3.3990297e-02
3.1297410e-02
2.8299725e-02
2.5076918e-02
2.0902907e-02
1.6013078e-02
8.8126795e-03
-5.3663202e-04
-1.0194521e-02
-1.7709074e-02
-2.3300084e-02
-2.8411323e-02
-3.0882662e-02
-3.0554193e-02
-2.7784394e-02
-2.4134925e-02
-2.2549543e-02
-2.0882641e-02
-1.8323107e-02
-1.5388838e-02
-1.2412555e-02
-1.0551036e-02
-8.4152065e-03
-6.2961239e-03
-3.8783452e-03
-1.4124945e-03
-6.4408074e-04
4.4332029e-04
2.4571749e-03
5.3784262e-03
8.5869617e-03
1.0999442e-02
1.4148927e-02
1.7681436e-02
2.1998889e-02
2.6450270e-02
2.8134358e-02
2.7332624e-02
2.4905779e-02
2.2846692e-02
2.1281881e-02
1.8081066e-02
1.3596371e-02
8.0347514e-03
2.8629535e-03
-1.9581854e-03
-7.1051179e-03
-1.1554838e-02
-1.6682814e-02
-2.0967785e-02
-2.3294090e-02
-2.5638620e-02
-2.8308734e-02
-3.1102304e-02
-3.1679564e-02
-3.0068527e-02
-2.7791946e-02
-2.4121839e-02
-2.0466585e-02
-1.6372304e-02
-1.1400392e-02
-6.6644004e-03
-2.4512386e-03
4.3134611e-04
4.2166268e-03
9.5549683e-03
1.5147463e-02
2.0441286e-02
2.3473913e-02
2.5402654e-02
2.6974822e-02
2.7718213e-02
2.8517662e-02
2.8876058e-02
2.9670955e-02
3.0592035e-02
3.1100410e-02
3.1037187e-02
2.8874207e-02
2.6891664e-02
2.5068958e-02
2.0985774e-02
1.3706647e-02
3.2429364e-03
-5.9863955e-03
-1.2244181e-02
-1.6424879e-02
-1.9109011e-02
-2.1420744e-02
-2.1530909e-02
-1.9945317e-02
-1.8210094e-02
-1.6664885e-02
-1.6326876e-02
-1.5894130e-02
-1.5585754e-02
-1.5495110e-02
-1.5627041e-02
-1.7074806e-02
-1.7645139e-02
-1.7265544e-02
-1.5967065e-02
-1.3272570e-02
-1.0624313e-02
-7.4855277e-03
-4.7019481e-03
-1.9481178e-03
4.4131053e-04
4.6560309e-04
2.9344673e-04
1.9923870e-04
4.5888541e-04
8.4351773e-04
-9.4221089e-04
-3.2604298e-03
-5.3395244e-03
-6.7548174e-03
-8.0664627e-03
-1.0825575e-02
-1.3233396e-02
-1.4810243e-02
-1.4200291e-02
-1.1882087e-02
-1.1259593e-02
-1.1785466e-02
-1.2251084e-02
-1.1619520e-02
-1.0587786e-02
-1.0107569e-02
-8.8838743e-03
-7.0381269e-03
-3.2575910e-03
2.0711844e-03
6.3187311e-03
9.1589644e-03
9.8862178e-03
9.3521305e-03
8.3930207e-03
7.0849333e-03
5.9459058e-03
4.5794545e-03
4.5518953e-03
5.2942904e-03
5.2765173e-03
4.7885470e-03
3.2309676e-03
2.2830398e-03
1.6633453e-03
-1.5015187e-04
-2.7756284e-03
-6.3597820e-03
-9.2157399e-03
-1.1111266e-02
-1.2596636e-02
-1.3854752e-02
-1.5270319e-02
-1.4276561e-02
-1.0423180e-02
-5.4207905e-03
-1.2270554e-03
1.0544155e-03
3.4381262e-03
5.6225184e-03
7.6046241e-03
9.5764888e-03
9.9320181e-03
9.7660758e-03
9.0499253e-03
7.9533592e-03
6.5927612e-03
4.1810264e-03
2.0937485e-03
2.2177795e-04
-7.3639428e-04
-1.2759665e-03
-3.1495950e-03
-4.2767837e-03
-4.3175636e-03
-3.0593391e-03
-7.6734990e-04
1.1793056e-03
4.1707437e-03
8.1558562e-03
1.2709931e-02
1.5628133e-02
1.5871887e-02
1.6219768e-02
1.6589449e-02
1.7543239e-02
1.8631937e-02
1.7696028e-02
1.5359241e-02
1.1800042e-02
8.5370935e-03
5.8319718e-03
2.5647423e-03
3.7014248e-04
-4.7454158e-04
1.4184634e-04
7.4121078e-04
-8.8716972e-05
-1.0228913e-03
-2.4740054e-03
-3.4005091e-03
-3.4575713e-03
-3.9358596e-03
-4.8557170e-03
-6.8647306e-03
-8.4864735e-03
-8.5852002e-03
-7.8142365e-03
-7.2371331e-03
-7.5167738e-03
-6.1960342e-03
-3.9132802e-03
-2.1910477e-03
-5.3144833e-04
1.7560477e-04
1.9649672e-03
4.9716461e-03
7.1658454e-03
7.8237545e-03
6.3907228e-03
4.9859923e-03
3.7844814e-03
2.7671508e-03
2.3108518e-03
1.2146233e-03
1.0989219e-03
1.5999931e-03
2.0484462e-03
2.7895844e-03
2.6399929e-03
2.7094134e-03
2.4853001e-03
1.9933836e-03
2.1650745e-03
1.8491096e-03
2.1531990e-03
2.7633397e-03
3.7266603e-03
5.4875434e-03
6.2584516e-03
6.2598338e-03
5.9809419e-03
7.4515784e-03
1.0124284e-02
1.1044903e-02
1.1448800e-02
1.1428873e-02
1.1324995e-02
1.1159516e-02
9.4040415e-03
6.7714694e-03
3.6492878e-03
1.2198126e-03
-1.0851393e-03
-5.0487161e-03
-9.5601744e-03
-1.3212732e-02
-1.3820225e-02
-1.2705922e-02
-1.2342764e-02
-1.1978044e-02
-1.2439092e-02
-1.2908706e-02
-1.2879130e-02
-1.2782723e-02
-1.2114230e-02
-1.1997543e-02
-1.0779456e-02
-8.1675938e-03
-5.9673458e-03
-4.4171901e-03
-4.2878896e-03
-3.5532987e-03
-2.2086993e-03
-2.3480459e-03
-3.7537079e-03
-6.1661510e-03
-6.8255457e-03
-4.9264541e-03
-1.8791741e-03
1.8935937e-03
5.0796913e-03
8.1551848e-03
1.0641067e-02
1.2078887e-02
1.2460523e-02
1.0195619e-02
7.3932142e-03
6.0887569e-03
6.6152381e-03
8.3634007e-03
9.3844746e-03
1.0903931e-02
1.2915090e-02
1.4323423e-02
1.4997188e-02
1.4182564e-02
1.3279107e-02
1.2756026e-02
1.2976791e-02
1.2863157e-02
9.9776627e-03
5.9556891e-03
9.5433601e-04
-5.0672860e-03
-1.1605990e-02
-1.8409289e-02
-2.2615592e-02
-2.4434392e-02
-2.4770269e-02
-2.4508444e-02
-2.5278438e-02
-2.5337354e-02
-2.4588394e-02
-2.3268518e-02
-2.1383952e-02
-1.9988280e-02
-1.8560628e-02
-1.7250166e-02
-1.4270536e-02
-9.7968133e-03
-6.6508069e-03
-4.4253605e-03
-3.5124258e-03
-3.1035303e-03
-2.1647432e-03
-9.9213950e-04
9.1277757e-04
2.5990161e-03
5.6966508e-03
1.0122757e-02
1.3128154e-02
1.4576880e-02
1.4485232e-02
1.4737062e-02
1.5087402e-02
1.3955361e-02
1.2150899e-02
9.7356149e-03
8.9420787e-03
9.6244892e-03
9.0715187e-03
7.7981873e-03
6.6754812e-03
6.8360317e-03
7.3376834e-03
7.9966185e-03
9.7180209e-03
1.0380229e-02
1.1029288e-02
1.1715633e-02
1.0486782e-02
8.0659540e-03
4.9816368e-03
2.6466906e-03
