-1.1700073e-02
-2.4264584e-02
-3.0297719e-02
-3.2866103e-02
-3.3557866e-02
-3.3739828e-02
-3.3594885e-02
-3.2354453e-02
-3.1787943e-02
-2.9854029e-02
-2.6863301e-02
-2.3886875e-02
-1.9173186e-02
-1.4529287e-02
-9.9553379e-03
-5.8806237e-03
-2.5103362e-03
1.9159991e-03
6.1087678e-03
9.4719153e-03
1.0329071e-02
1.0199115e-02
1.2074444e-02
1.4509057e-02
1.8379506e-02
2.0877555e-02
1.9287531e-02
1.6738012e-02
1.4296340e-02
1.1924344e-02
7.4898012e-03
1.5465067e-03
-3.4003188e-03
-8.1280074e-03
-1.1726996e-02
-1.5156230e-02
-1.7490088e-02
-1.7216465e-02
-1.7088822e-02
-1.7908059e-02
-2.0869728e-02
-2.4234034e-02
-2.5824728e-02
-2.7009058e-02
-2.7437872e-02
-2.8572240e-02
-2.9649286e-02
-2.8662923e-02
-2.5415345e-02
-1.7155516e-02
-6.4704627e-03
2.7396829e-03
9.4887385e-03
1.3210768e-02
1.5699171e-02
1.4883141e-02
1.1262598e-02
7.1754225e-03
1.6488261e-03
-3.0732060e-03
-6.2419333e-03
-7.9422109e-03
-8.8117447e-03
-9.2546770e-03
-6.8430976e-03
-3.9306919e-03
-2.4001134e-03
-1.6742319e-03
-9.6893575e-04
1.9632629e-03
4.9462155e-03
6.5986695e-03
7.2563766e-03
8.1389535e-03
1.1615850e-02
1.6252462e-02
2.2118102e-02
2.7587611e-02
3.0869451e-02
3.3555333e-02
3.3355709e-02
3.1306577e-02
2.9212465e-02
2.6803785e-02
2.5893719e-02
2.5237887e-02
2.4648573e-02
2.2822987e-02
2.0129335e-02
1.9114054e-02
1.6400750e-02
1.1783797e-02
7.5659372e-03
5.2377868e-03
6.1095091e-03
7.5562674e-03
7.9473413e-03
6.1682013e-03
3.5136606e-03
1.7037854e-03
-2.1933419e-03
-7.0147333e-03
-1.1517485e-02
-1.4354252e-02
-1.2684733e-02
-8.7511692e-03
-3.8430423e-03
7.3258973e-04
5.8668383e-03
1.3420152e-02
2.0388825e-02
2.7021417e-02
3.3525737e-02
3.9082631e-02
4.3616200e-02
4.6449071e-02
4.9281876e-02
5.0172678e-02
4.9232278e-02
4.9072980e-02
4.8166995e-02
4.6977906e-02
4.3714044e-02
3.6331285e-02
2.3347159e-02
4.5707343e-03
-1.3704243e-02
-2.8875656e-02
-3.9608175e-02
-4.5579307e-02
-4.9068043e-02
-4.8567399e-02
-4.4908337e-02
-3.9006302e-02
-3.0264356e-02
-1.9736406e-02
-8.9315131e-03
-1.5231960e-03
3.1396030e-03
7.3056946e-03
1.1078192e-02
1.5109352e-02
1.6647356e-02
1.6194485e-02
1.5098089e-02
1.3678337e-02
1.4167435e-02
1.4045351e-02
1.2697912e-02
9.8976003e-03
5.3364346e-03
2.1357585e-03
-2.4333480e-03
-8.8659206e-03
-1.4898335e-02
-2.0527884e-02
-2.3868599e-02
-2.6718749e-02
-2.9284632e-02
-3.1233432e-02
-3.2822440e-02
-3.1829847e-02
-3.1204220e-02
-3.1679812e-02
-3.3199387e-02
-3.6980056e-02
-4.0323590e-02
-4.3721769e-02
-4.8128172e-02
-5.3705890e-02
-5.9095432e-02
-6.1146221e-02
-6.0067264e-02
-5.3805107e-02
-4.1008608e-02
-2.4616986e-02
-9.0072044e-03
1.2187273e-03
6.4514373e-03
7.2383743e-03
4.9569270e-03
3.1025760e-03
1.2816968e-03
7.5044088e-04
1.9627387e-03
5.1697980e-03
1.1205411e-02
1.6602529e-02
2.0940893e-02
2.3108557e-02
2.1977833e-02
2.0063740e-02
1.8266755e-02
1.8328107e-02
2.0002527e-02
2.2921243e-02
2.7278894e-02
2.9193494e-02
2.6706928e-02
1.8989863e-02
7.7037970e-03
-2.1724581e-03
-8.6026327e-03
-1.0191545e-02
-8.5038273e-03
-4.6581855e-03
1.8333660e-03
9.4416426e-03
1.8578205e-02
2.7012287e-02
3.4552645e-02
4.3267708e-02
5.1446536e-02
5.8974678e-02
6.3423247e-02
6.4721116e-02
6.6466111e-02
6.8647445e-02
7.1415904e-02
7.1421947e-02
6.7038773e-02
6.0248635e-02
5.0322756e-02
3.6746178e-02
1.6378396e-02
-7.0803523e-03
-2.4614436e-02
-3.5748172e-02
-4.2354676e-02
-4.6938849e-02
-4.9997711e-02
-5.0601977e-02
-5.0002304e-02
-4.8054294e-02
-4.6724706e-02
-4.6089721e-02
-4.4938069e-02
-4.3670288e-02
-4.0374144e-02
-3.6339401e-02
-3.1430924e-02
-2.4387666e-02
-1.6758336e-02
-8.8172137e-03
-3.6306345e-03
-1.5057403e-03
-2.3506899e-04
2.8725997e-04
5.6323546e-04
-1.7413901e-03
-6.3074472e-03
-1.0139140e-02
-1.2204370e-02
-1.2831832e-02
-1.4791309e-02
-1.6866764e-02
-1.7155709e-02
-1.6821432e-02
-1.6028270e-02
-1.6468871e-02
-1.7166083e-02
-1.7238571e-02
-1.7181187e-02
-1.6204098e-02
-1.6231538e-02
-1.6152452e-02
-1.5991398e-02
-1.5904365e-02
-1.3087646e-02
-1.0648790e-02
-1.0262613e-02
-1.1232780e-02
-1.1871867e-02
-9.2846725e-03
-6.1471589e-03
-3.6631604e-03
-1.7865910e-03
7.4030735e-04
5.8595461e-03
1.0664322e-02
1.4722302e-02
1.7031650e-02
1.7566697e-02
1.8437329e-02
1.7362894e-02
1.4716604e-02
1.1957274e-02
1.0302571e-02
1.1608191e-02
1.4165785e-02
1.6334632e-02
1.5872395e-02
1.3736363e-02
1.3418397e-02
1.3953041e-02
1.4914202e-02
1.5185218e-02
1.4793481e-02
1.5391055e-02
1.6154159e-02
1.6813777e-02
1.5152594e-02
1.2206905e-02
1.0812687e-02
8.9188998e-03
6.2809012e-03
2.5555009e-03
-8.8548890e-04
-2.3505003e-03
-3.8799992e-03
-4.7562381e-03
-6.5749959e-03
-1.0051636e-02
-1.2380203e-02
-1.2702380e-02
-1.0466297e-02
-9.2488262e-03
-9.3384573e-03
-7.9109288e-03
-6.3752999e-03
-4.5303207e-03
-4.0508924e-03
-5.0205240e-03
-5.1163899e-03
-4.3083782e-03
-2.2242809e-03
-8.2683821e-04
1.2674016e-03
4.9276070e-03
7.2608796e-03
9.2170484e-03
9.5007924e-03
7.6960890e-03
5.4436936e-03
3.1866756e-03
2.6468818e-03
2.2594052e-03
2.4323656e-03
4.6600752e-03
7.2842567e-03
9.9646736e-03
1.1372259e-02
1.2546540e-02
1.4002463e-02
1.4365191e-02
1.4874228e-02
1.3655452e-02
1.1498326e-02
9.9477743e-03
7.3183836e-03
3.9580835e-03
-9.6825087e-04
-5.7300287e-03
-1.0022606e-02
-1.4888948e-02
-1.7709557e-02
-1.9144717e-02
-1.9534340e-02
-1.9738730e-02
-2.0532763e-02
-1.9892904e-02
-1.9228698e-02
-1.8592833e-02
-1.7769817e-02
-1.7607555e-02
-1.6545721e-02
-1.4170893e-02
-9.9638637e-03
-5.6272506e-03
-1.8857483e-03
2.0778274e-03
3.6518652e-03
3.8962518e-03
3.9799674e-03
4.0159469e-03
5.4867224e-03
6.3562614e-03
7.0872107e-03
7.8554577e-03
7.2623209e-03
5.7310699e-03
1.1560282e-03
-4.4653180e-03
-9.5256891e-03
-1.4434752e-02
-1.7848909e-02
-2.1400282e-02
-2.4266690e-02
-2.6826803e-02
-2.9737723e-02
-3.2097005e-02
-3.5953592e-02
-3.9894516e-02
-4.2851757e-02
-4.3614109e-02
-4.0343088e-02
-3.5828301e-02
-3.0339109e-02
-2.3748804e-02
-1.4052060e-02
-1.7500684e-04
1.1073890e-02
1.7322583e-02
1.9453377e-02
1.9193802e-02
2.0096484e-02
2.2074451e-02
2.4221036e-02
2.4509914e-02
2.4147909e-02
2.5069698e-02
2.5867158e-02
2.7953853e-02
3.0006445e-02
3.1841544e-02
3.5209918e-02
3.8283369e-02
4.0793889e-02
4.0551898e-02
3.7213127e-02
3.3048325e-02
2.8282396e-02
2.3906714e-02
1.7527391e-02
8.4517686e-03
3.7762626e-04
-5.4744230e-03
-9.8604875e-03
-1.5423095e-02
-2.1090673e-02
-2.4470801e-02
-2.6208776e-02
-2.5521536e-02
-2.4945919e-02
-2.4867293e-02
-2.3360242e-02
-2.1526593e-02
-1.8903602e-02
-1.6476995e-02
-1.3203579e-02
-9.1690524e-03
-6.8188349e-03
-3.9587116e-03
-2.0253483e-03
-1.6141590e-03
-1.2124520e-05
1.9030788e-03
4.4551062e-03
6.3999733e-03
6.7849287e-03
6.8703316e-03
7.2110185e-03
9.2629449e-03
1.1402852e-02
1.3636494e-02
1.7157554e-02
2.0560989e-02
2.3204766e-02
2.2707591e-02
1.9411336e-02
1.4473863e-02
7.3585811e-03
1.1000476e-03
-3.0123585e-03
-5.0496645e-03
-6.3954006e-03
-8.5018090e-03
-9.1415614e-03
-9.0891743e-03
-8.4562784e-03
-7.8215874e-03
-8.3508337e-03
-8.1253824e-03
-9.3665649e-03
-1.2005712e-02
-1.4325989e-02
-1.5995402e-02
-1.6094303e-02
-1.7464076e-02
-1.8909472e-02
-1.8429212e-02
-1.6334780e-02
-1.1118838e-02
-6.0103635e-03
-2.5815046e-03
6.2784962e-04
4.5324274e-03
1.0350949e-02
1.4511029e-02
1.5656608e-02
1.5171936e-02
1.4577534e-02
1.6098295e-02
1.7292630e-02
1.8067955e-02
1.8884089e-02
1.8533873e-02
1.7252074e-02
1.2311633e-02
4.2122472e-03
-4.5480765e-03
-1.1425908e-02
-1.4194122e-02
-1.5661866e-02
-1.6692098e-02
-1.7775039e-02
-1.9016305e-02
-1.8264814e-02
-1.6599190e-02
-1.4599331e-02
-1.3490040e-02
-1.3369680e-02
-1.2904318e-02
-1.3662417e-02
-1.4022227e-02
-1.3198383e-02
-1.1544331e-02
-8.9411804e-03
-7.9879066e-03
-7.6136849e-03
-7.5944939e-03
-7.5140826e-03
-4.4018887e-03
-3.7710364e-04
3.6080948e-03
7.3688660e-03
1.0424010e-02
1.4172711e-02
1.7208603e-02
1.8778966e-02
1.7971826e-02
1.5400816e-02
1.3754532e-02
1.3087394e-02
1.3518074e-02
1.2048159e-02
7.8690761e-03
4.1217179e-03
5.7078958e-04
-2.1234525e-03
-5.1516625e-03
-8.2769848e-03
-8.4300848e-03
-7.3136545e-03
-5.9631674e-03
-6.0055301e-03
-7.2031011e-03
-6.3845886e-03
-3.9065972e-03
7.4287728e-04
5.8135997e-03
9.1778661e-03
1.1890753e-02
1.3991229e-02
1.5869975e-02
1.7040941e-02
1.7824332e-02
1.7893704e-02
1.6991711e-02
1.8092618e-02
1.9541708e-02
2.0727300e-02
2.3631231e-02
2.6155103e-02
2.7091422e-02
2.4657330e-02
2.0414844e-02
1.7552539e-02
1.5196335e-02
1.3675274e-02
1.1443929e-02
8.8969106e-03
6.9432701e-03
3.2451381e-03
-1.1284508e-03
-6.4864165e-03
-1.2086340e-02
-1.6121986e-02
-1.8848135e-02
-1.9394935e-02
-2.0461373e-02
-2.1845663e-02
-2.1079801e-02
-1.8906459e-02
-1.4873505e-02
-1.1775653e-02
-1.0382136e-02
-8.3939927e-03
-6.0582126e-03
-2.7652084e-03
-4.8940155e-04
6.7195695e-04
2.9503669e-03
5.7327058e-03
8.5877524e-03
9.9767879e-03
1.1412048e-02
1.3414167e-02
1.4550267e-02
1.6862493e-02
1.7808298e-02
1.6078444e-02
1.3011703e-02
8.7532514e-03
5.4305843e-03
1.9415035e-03
-1.6305415e-03
-4.6068847e-03
-7.1206519e-03
-7.2005034e-03
-7.3174439e-03
-8.6841864e-03
-1.0875316e-02
-1.3697113e-02
-1.4322238e-02
-1.4370710e-02
-1.4863911e-02
-1.5109635e-02
-1.4946449e-02
-1.3004492e-02
-1.2178207e-02
-1.2074258e-02
-1.0441089e-02
-8.1569977e-03
-4.4588178e-03
-1.0511737e-03
1.8707646e-03
4.3052052e-03
5.4795206e-03
7.8735699e-03
9.9701069e-03
1.1065204e-02
1.2743818e-02
1.5042385e-02
1.8307781e-02
2.0647679e-02
2.2753862e-02
2.5364934e-02
2.7393229e-02
2.9882973e-02
3.1472724e-02
3.1498591e-02
2.8957624e-02
2.4544465e-02
2.0833713e-02
1.5638411e-02
9.9747021e-03
4.3105262e-03
-1.6630976e-03
-5.5927580e-03
-9.6947616e-03
-1.4452050e-02
-1.9103726e-02
-2.2775522e-02
-2.3406277e-02
-2.3229397e-02
-2.3738920e-02
-2.5949570e-02
-2.9713063e-02
-3.1398582e-02
-3.1000712e-02
-2.8889575e-02
-2.5589346e-02
-2.1745217e-02
-1.7079843e-02
-1.4752828e-02
-1.5044085e-02
-1.6998912e-02
-1.8119681e-02
-1.5597240e-02
-1.1913792e-02
-7.3037200e-03
-2.2532177e-03
2.5412215e-03
7.6505876e-03
1.1838622e-02
1.6178034e-02
1.9689252e-02
2.1257921e-02
2.2638563e-02
2.2260718e-02
2.0502031e-02
1.8294800e-02
1.5179226e-02
1.2443127e-02
9.5421482e-03
6.8508689e-03
3.2616500e-03
-1.3624330e-03
-4.5767468e-03
-7.9410396e-03
-1.1434143e-02
-1.4910878e-02
-1.7880529e-02
-1.8304044e-02
-1.8311614e-02
-1.8589583e-02
-1.8966408e-02
-1.8291212e-02
-1.4325677e-02
-9.6985413e-03
-6.8584534e-03
-6.2753388e-03
-5.6868053e-03
-3.7294241e-03
-2.8477181e-03
-2.0591404e-03
-1.3692471e-03
-2.3192540e-04
2.3753053e-03
3.1713381e-03
3.6132405e-03
4.4326539e-03
5.3555041e-03
8.6629061e-03
1.3093604e-02
1.8294600e-02
2.2616259e-02
2.5113937e-02
2.6960913e-02
2.7411467e-02
2.7975738e-02
2.7564199e-02
2.5322297e-02
2.2270909e-02
1.6434816e-02
9.9209431e-03
4.4095095e-03
4.1630659e-04
-9.6680168e-04
-2.3578481e-03
-4.9375229e-03
-8.9763640e-03
-1.1296750e-02
-9.9757437e-03
-9.1337264e-03
-9.1173516e-03
-1.0767268e-02
-1.4206772e-02
-1.7182727e-02
-2.0589974e-02
-2.3198879e-02
-2.4575221e-02
-2.4573599e-02
-2.3619766e-02
-2.3975094e-02
-2.3078242e-02
-2.0912901e-02
-1.8386151e-02
-1.4181672e-02
-9.6656465e-03
-5.1555026e-03
-3.2779262e-03
-4.0550948e-03
-3.6548097e-03
-2.2757219e-03
-1.1046199e-04
-2.2750854e-04
-2.9778428e-03
-4.1573168e-03
-4.3810987e-03
-3.5007087e-03
-2.4656231e-03
-2.3175989e-03
-2.3323954e-03
-3.2557436e-03
-3.8650883e-03
-5.4468125e-03
-8.5559854e-03
-1.1960591e-02
-1.4850698e-02
-1.4134224e-02
-1.1634497e-02
-8.2686639e-03
-1.9913012e-03
5.0522640e-03
1.0990834e-02
1.4444620e-02
1.7087739e-02
2.0340003e-02
2.2052195e-02
2.2277126e-02
1.9684910e-02
1.5573959e-02
1.2720361e-02
1.1767385e-02
1.5197741e-02
2.0119881e-02
2.4177451e-02
2.8275055e-02
3.1433754e-02
3.4026071e-02
3.5085139e-02
3.6077656e-02
3.7506930e-02
3.6986020e-02
3.5769908e-02
3.2925113e-02
2.7800669e-02
2.0280008e-02
1.1087553e-02
3.9857148e-03
-2.1180445e-03
-7.4772484e-03
-1.1534583e-02
-1.5001382e-02
-1.6446064e-02
-1.9344216e-02
-2.4496395e-02
-2.9073670e-02
-3.2809396e-02
-3.5030480e-02
-3.8195532e-02
-4.2052164e-02
-4.4672530e-02
-4.6348066e-02
-4.7122770e-02
-4.8753801e-02
-4.8559972e-02
-4.5229690e-02
-4.1219069e-02
-3.5907907e-02
-3.1000377e-02
-2.5802761e-02
-1.8325185e-02
-9.7245530e-03
-9.7099536e-04
4.5348994e-03
6.9499429e-03
8.3652230e-03
9.4626343e-03
1.1623387e-02
1.1978911e-02
1.0671997e-02
1.0147118e-02
1.0672266e-02
1.2794670e-02
1.3317102e-02
1.2656340e-02
1.2911028e-02
1.2845115e-02
1.2764887e-02
1.0692730e-02
7.4320515e-03
5.7585480e-03
5.9679985e-03
8.6252724e-03
1.0815496e-02
1.2139155e-02
1.4256236e-02
1.6380022e-02
1.8352119e-02
1.8437294e-02
1.7432166e-02
1.6810020e-02
1.6193703e-02
1.5397291e-02
1.2397843e-02
8.9327865e-03
6.3832699e-03
4.5143305e-03
5.9316842e-03
8.2750004e-03
9.0102295e-03
8.4580200e-03
7.6102578e-03
8.9443245e-03
1.1104242e-02
1.3498126e-02
1.5751098e-02
1.7234192e-02
1.9342247e-02
1.9136483e-02
1.5563065e-02
8.8620002e-03
-4.4761409e-04
-7.8093759e-03
-1.3608505e-02
-1.8711102e-02
-2.2530892e-02
-2.4734338e-02
-2.3462920e-02
-2.1334615e-02
-1.9797840e-02
-1.9102436e-02
-1.9555741e-02
-1.9872276e-02
-2.1952039e-02
-2.4904682e-02
-2.7431942e-02
-2.9360310e-02
-2.9223159e-02
-2.9014014e-02
-2.9036896e-02
-2.8991418e-02
-2.8669743e-02
-2.6301948e-02
-2.2445238e-02
-1.6325246e-02
-8.2830978e-03
4.4289002e-05
7.7612563e-03
1.2432759e-02
1.5757870e-02
1.8485258e-02
2.0077691e-02
2.2625374e-02
2.3914973e-02
2.3098193e-02
2.0647940e-02
1.8432279e-02
1.9255332e-02
1.9808568e-02
1.9961987e-02
2.1525689e-02
2.4472595e-02
2.9441107e-02
3.4328503e-02
3.7788052e-02
3.8625058e-02
3.7227425e-02
3.4984071e-02
2.9549204e-02
2.1056676e-02
1.0857327e-02
1.9935426e-03
-2.6372073e-03
-7.0321047e-03
-1.1908537e-02
-1.5786941e-02
-1.8262131e-02
-1.7977436e-02
-1.7586246e-02
-1.7194988e-02
-1.5031467e-02
-1.1431053e-02
-7.5448001e-03
-5.7121914e-03
-4.6431453e-03
-3.2819802e-03
-4.3412748e-04
4.6800348e-03
7.6198398e-03
7.6818045e-03
5.4139052e-03
1.7960315e-03
-3.1735231e-04
-2.2127891e-03
-4.4498831e-03
-8.1551629e-03
-1.2297551e-02
-1.3386064e-02
-1.3249798e-02
-1.2659636e-02
-1.1916688e-02
-1.0750605e-02
-7.7905623e-03
-5.4004239e-03
-3.8796038e-03
-3.6285364e-03
-3.9740692e-03
-2.5697403e-03
-9.4960024e-04
5.7417694e-04
2.9169287e-04
-1.8199207e-03
-3.0852849e-03
-4.8219825e-03
-6.7241388e-03
-9.2832791e-03
-1.1496552e-02
-1.0363811e-02
-8.9695762e-03
-8.3589838e-03
-7.8298925e-03
-7.5063024e-03
-7.3436048e-03
-8.0871725e-03
-7.8971266e-03
-8.3853202e-03
-9.8161545e-03
-8.9889674e-03
-7.1038793e-03
-4.8191381e-03
-3.2392026e-03
-1.7157623e-03
1.9687167e-03
5.9867991e-03
1.0625500e-02
1.4894492e-02
1.8041787e-02
2.1570311e-02
2.2936521e-02
2.2081200e-02
1.9739730e-02
1.6591554e-02
1.4569885e-02
1.2696959e-02
1.1004977e-02
8.2342579e-03
4.9489407e-03
3.3460896e-03
2.0745987e-03
1.3983708e-03
-6.6775618e-04
-3.9973093e-03
-5.4127495e-03
-6.9937989e-03
-8.8888134e-03
-1.0716439e-02
-1.2153429e-02
-1.2523025e-02
-1.4391820e-02
-1.5926417e-02
-1.6563154e-02
-1.7136915e-02
-1.5617822e-02
-1.3818628e-02
-1.1545561e-02
-8.3744298e-03
-3.8839305e-03
2.8574661e-03
8.2578215e-03
1.1816586e-02
1.3513816e-02
1.4734178e-02
1.7183272e-02
1.7441841e-02
1.5399438e-02
1.1284114e-02
6.2971757e-03
3.2243664e-03
9.6101707e-04
-6.4955075e-04
-2.7865413e-03
-4.5843436e-03
-3.9851272e-03
-3.4910666e-03
-3.3057664e-03
-3.9141551e-03
-4.3284734e-03
-2.7275128e-03
-2.0498869e-03
-2.1602585e-03
-2.0348890e-03
-4.6222098e-04
3.1486829e-03
5.3065434e-03
5.5857936e-03
3.9392528e-03
1.9821123e-03
2.0641584e-03
2.2564306e-03
2.7880407e-03
2.9903175e-03
2.7077657e-03
3.6502473e-03
5.1690231e-03
6.8203104e-03
6.8229829e-03
6.0182868e-03
5.5977792e-03
4.2960439e-03
3.6976037e-03
2.0883816e-03
-1.7382604e-03
-5.5534919e-03
-8.5180094e-03
-8.5945704e-03
-6.9291307e-03
-5.3634337e-03
-3.9463245e-03
-3.4548516e-03
-2.4289044e-03
-2.1923005e-03
-3.4463638e-03
-4.7028808e-03
-6.4708050e-03
-7.2955309e-03
-8.9251316e-03
-1.2152078e-02
-1.4432029e-02
-1.5542066e-02
-1.4644880e-02
-1.3306041e-02
-1.1701668e-02
-9.0348116e-03
-6.3782752e-03
-1.9636615e-03
2.7987680e-03
6.6486341e-03
1.0051747e-02
1.1848704e-02
1.3499444e-02
1.3783581e-02
1.2007473e-02
1.0077799e-02
8.2460208e-03
7.6681073e-03
6.8909050e-03
5.7305426e-03
5.6574483e-03
6.0696129e-03
7.3280814e-03
7.5007706e-03
7.4656163e-03
9.5647575e-03
1.2207714e-02
1.4430586e-02
1.3600409e-02
1.0334839e-02
6.9306065e-03
2.7122563e-03
-8.1202780e-04
-3.5631930e-03
-4.9582440e-03
-4.9752952e-03
-5.5339616e-03
-6.5644604e-03
-9.7977961e-03
-1.2703658e-02
-1.1831987e-02
-9.0502952e-03
-5.4064947e-03
-3.4198428e-03
-2.8128869e-03
-1.7629967e-03
-8.6190293e-04
1.2107228e-03
3.4698404e-03
5.3529121e-03
6.4944567e-03
6.0162699e-03
6.2663439e-03
5.8301953e-03
4.0035085e-03
2.4102183e-03
2.1325718e-03
4.1461311e-03
4.5592478e-03
3.4750999e-03
2.9400675e-03
2.0939046e-03
2.6853181e-03
3.4290194e-03
3.4013542e-03
3.4977662e-03
3.1165507e-03
1.8300152e-03
-2.2835081e-03
-7.0173338e-03
-9.1995004e-03
-9.2805545e-03
-7.0361667e-03
-4.6765717e-03
-3.0112272e-03
-2.4981390e-03
-4.4632814e-03
-6.3605948e-03
-8.9543032e-03
-1.2064662e-02
-1.4102241e-02
-1.6351145e-02
-1.9016024e-02
-2.3777962e-02
-2.8813923e-02
-3.2518371e-02
-3.6044258e-02
-3.7008740e-02
-3.6595503e-02
-3.5901922e-02
-3.3108424e-02
-2.7280336e-02
-1.8343189e-02
-8.8354760e-03
1.0546298e-03
1.0333542e-02
1.6634421e-02
2.0795575e-02
2.2374464e-02
2.3464265e-02
2.6177158e-02
2.8368002e-02
2.9189552e-02
2.8362797e-02
2.8134188e-02
2.8681634e-02
2.8106792e-02
2.8375663e-02
2.8649046e-02
2.9272696e-02
3.1032533e-02
3.2390110e-02
3.3050353e-02
2.9900832e-02
2.3697005e-02
1.7712865e-02
1.2124140e-02
7.5361790e-03
9.0053435e-04
-8.3831046e-03
-1.6245088e-02
-2.0522139e-02
-2.1417120e-02
-2.2127534e-02
-2.2463597e-02
-2.1160955e-02
-1.8655108e-02
-1.4999599e-02
-1.3257221e-02
-1.3393031e-02
-1.4380062e-02
-1.5985660e-02
-1.5176803e-02
-1.3023814e-02
-1.0642979e-02
-8.3611193e-03
-6.1833364e-03
-1.4452222e-03
4.1109243e-03
9.2436254e-03
1.2662049e-02
1.2584596e-02
1.1786230e-02
9.8625314e-03
6.8142536e-03
4.4647563e-03
2.8733577e-03
2.5209753e-03
1.2959650e-03
-8.6600301e-04
-3.0236504e-03
-4.7504994e-03
-4.0175049e-03
-3.1287192e-03
-3.4227624e-03
-5.2015676e-03
-8.3981821e-03
-1.0033338e-02
-1.1197153e-02
-1.3643877e-02
-1.7416456e-02
-2.0311137e-02
-2.0984930e-02
-2.2692184e-02
-2.3321676e-02
-2.0934465e-02
-1.6964982e-02
-1.1018492e-02
-5.9545276e-03
-2.6706297e-03
-8.9443325e-04
-7.9549942e-05
2.2924957e-03
4.6051831e-03
6.4630465e-03
8.1070413e-03
1.0290116e-02
1.5089550e-02
1.9883846e-02
2.3765943e-02
2.6726737e-02
2.9016715e-02
3.1953263e-02
3.4194344e-02
3.6911874e-02
3.8941312e-02
3.8937330e-02
3.9457548e-02
3.8872793e-02
3.5875607e-02
3.0371314e-02
2.3580042e-02
1.8360952e-02
1.1597852e-02
2.2183807e-03
-6.6790528e-03
-1.3093436e-02
-1.5323311e-02
-1.5710454e-02
-1.5895357e-02
-1.6875970e-02
-1.8863133e-02
-2.0129132e-02
-2.2500645e-02
-2.4546596e-02
-2.4876068e-02
-2.4017034e-02
-2.1335933e-02
-2.0541932e-02
-2.1878137e-02
-2.3173866e-02
-2.2990655e-02
-1.9384994e-02
-1.5057869e-02
-1.1701897e-02
-1.0150118e-02
-9.4427127e-03
-7.1797692e-03
-5.0419007e-03
-2.0092503e-03
1.8166657e-03
5.1382641e-03
8.6452306e-03
1.0914361e-02
1.2996606e-02
1.3882807e-02
1.2278486e-02
1.0278424e-02
7.4577833e-03
4.9847404e-03
2.8898929e-03
5.2797953e-04
-8.0941097e-04
-2.2571330e-03
-3.4309143e-03
-5.1955483e-03
-8.1864250e-03
-1.0642666e-02
-1.3587255e-02
-1.5575292e-02
-1.5560036e-02
-1.3895075e-02
-9.4117052e-03
-4.1397253e-03
7.6703035e-04
4.0357862e-03
5.8949613e-03
8.8709276e-03
1.1871029e-02
1.4821451e-02
1.6602329e-02
1.7968947e-02
2.0329447e-02
2.0715515e-02
2.0870619e-02
2.1547960e-02
2.2716311e-02
2.5601533e-02
2.6901730e-02
2.6222521e-02
2.4093666e-02
2.1273776e-02
1.8724387e-02
1.5407880e-02
1.2786285e-02
9.7023146e-03
5.5649782e-03
8.2839936e-04
-5.6815513e-03
-1.1191364e-02
-1.6454652e-02
-2.2500615e-02
-2.7298757e-02
-3.2242382e-02
-3.6021416e-02
-3.7653661e-02
-3.7260037e-02
-3.4273218e-02
-3.0424154e-02
-2.6180263e-02
-2.3537530e-02
-2.1642059e-02
-1.8000364e-02
-1.4387860e-02
-1.1248395e-02
-1.0421248e-02
-1.1224905e-02
-1.0735826e-02
-1.0252004e-02
-9.0510427e-03
-7.4462081e-03
-5.4916932e-03
-1.9640850e-03
2.3150533e-03
8.0397398e-03
1.3059728e-02
1.6717114e-02
1.9820503e-02
2.1378659e-02
2.2345581e-02
2.1057385e-02
1.9074199e-02
1.8460226e-02
1.6316408e-02
1.2864445e-02
7.4871827e-03
1.3746863e-03
-3.2284374e-03
-7.7244528e-03
-1.1040888e-02
-1.3105475e-02
-1.2971313e-02
-9.6469832e-03
-5.8388999e-03
-2.1498899e-03
2.9206433e-04
2.5260103e-03
5.7046469e-03
7.6821603e-03
9.6215408e-03
9.9736973e-03
8.4024412e-03
8.0800737e-03
8.7596433e-03
1.0176368e-02
1.1269280e-02
1.2977126e-02
1.6854940e-02
2.0876831e-02
2.2387907e-02
1.9581651e-02
1.5963108e-02
1.3199569e-02
9.9643594e-03
8.5937191e-03
7.5781581e-03
6.4235514e-03
6.2036783e-03
5.7763429e-03
6.3093846e-03
5.3788637e-03
1.3921045e-03
-3.9382276e-03
-1.0540740e-02
-1.6644252e-02
-2.2016879e-02
-2.5332452e-02
-2.4533326e-02
-2.1546139e-02
-1.7858038e-02
-1.5438788e-02
-1.3600680e-02
-1.1742781e-02
-1.0889724e-02
-8.2444034e-03
-4.9773421e-03
-2.9720847e-03
-1.4370683e-03
-4.4294711e-04
9.0666596e-04
1.3118479e-03
1.5499908e-03
2.6606990e-03
3.8349906e-03
5.3017686e-03
4.0679764e-03
1.3266521e-03
9.4947045e-05
5.6539744e-04
2.7830483e-03
3.1215528e-03
1.7225701e-03
5.6315517e-04
-1.7213652e-04
1.2153412e-03
2.6617281e-03
3.3343863e-03
3.7989855e-03
3.9579273e-03
5.7493515e-03
7.5713085e-03
8.0695621e-03
7.0047669e-03
4.2189590e-03
2.0116856e-03
-5.3018254e-04
-4.6898932e-03
-9.2800334e-03
-1.1836878e-02
-1.0758066e-02
-9.7186058e-03
-1.0681908e-02
-1.1962321e-02
-1.1126491e-02
-7.5589266e-03
-4.9724803e-03
-2.5721222e-03
1.0805012e-03
4.4878074e-03
7.2616737e-03
7.2772449e-03
5.8617650e-03
4.9560288e-03
4.2771302e-03
3.6169811e-03
9.9856336e-04
-2.4782190e-03
-6.1134432e-03
-8.7701605e-03
-7.4183936e-03
-4.4401364e-03
-1.9225269e-03
-1.3954527e-03
-2.6269688e-03
-2.5752613e-03
-1.9875974e-03
-5.7586780e-04
1.1419010e-03
2.3163876e-03
3.7666723e-03
3.6817573e-03
2.6211588e-03
1.4462712e-03
1.1868766e-03
2.3566313e-03
1.9480303e-03
1.1116240e-03
1.6681800e-03
3.3307310e-03
5.5811439e-03
5.7154312e-03
4.1072234e-03
1.0468810e-03
-3.1910493e-03
-4.7652490e-03
-4.1090459e-03
-2.4608134e-03
-7.6562250e-04
-1.0695996e-04
1.1107354e-03
2.3950086e-03
2.9701940e-03
2.2835760e-03
2.4756560e-03
5.5237330e-03
8.4291442e-03
1.0434249e-02
1.1273622e-02
1.2004932e-02
1.3789295e-02
1.4672655e-02
1.5386765e-02
1.5547365e-02
1.5736764e-02
1.7779440e-02
2.0156068e-02
2.2676968e-02
2.4430227e-02
2.5740492e-02
2.6607154e-02
2.4824610e-02
2.2555954e-02
1.9384897e-02
1.4219702e-02
8.9460503e-03
3.6376901e-03
-1.3584725e-03
-7.8423171e-03
-1.5302064e-02
-2.1045829e-02
-2.5143095e-02
-2.7055725e-02
-2.8966319e-02
-3.0872090e-02
-3.0356407e-02
-2.8178246e-02
-2.5078206e-02
-2.3608192e-02
-2.3551919e-02
-2.4066507e-02
-2.6755166e-02
-2.9206959e-02
-3.0632116e-02
-3.1020207e-02
-2.9414513e-02
-2.6084922e-02
-2.0195464e-02
-1.4680260e-02
-1.1047679e-02
-8.2709614e-03
-6.4950385e-03
-3.4355810e-03
5.1785418e-04
5.8222830e-03
1.1824608e-02
1.5078746e-02
1.7341977e-02
1.8087293e-02
1.7369220e-02
1.7178980e-02
1.6963186e-02
1.7956521e-02
1.8295898e-02
1.7525878e-02
1.7292271e-02
1.6979183e-02
1.6973429e-02
1.4039454e-02
8.5630785e-03
5.2086323e-03
4.5595259e-03
6.4113985e-03
7.5402955e-03
6.8089275e-03
6.3548832e-03
7.0445202e-03
9.6008913e-03
1.1502222e-02
1.1729690e-02
1.0269179e-02
7.5214745e-03
5.6264912e-03
3.2408483e-03
1.7582065e-03
2.0014678e-03
2.3742262e-03
4.0030463e-03
4.2562136e-03
2.5680852e-03
1.0956605e-03
4.4354107e-04
1.3420531e-03
1.3329199e-03
3.5116061e-04
-3.9824272e-04
-1.4784119e-03
-1.7761419e-03
-2.0002673e-03
-1.4370080e-03
2.4443084e-04
1.6338308e-03
3.0316746e-03
1.8774124e-03
-1.8093732e-03
-6.0531007e-03
-1.0025251e-02
-1.1367756e-02
-1.1024326e-02
-9.8402317e-03
-8.8130343e-03
-8.4787082e-03
-6.5135042e-03
-4.4534829e-03
-3.8167162e-03
-5.5443562e-03
-8.3092277e-03
-8.7341558e-03
-8.7039941e-03
-9.1936323e-03
-1.0160805e-02
-1.0918606e-02
-9.5025521e-03
-7.1924687e-03
-4.3092343e-03
-1.1236172e-03
3.5130489e-03
1.1489751e-02
2.0072966e-02
2.9577112e-02
3.9738452e-02
4.8456901e-02
5.6160754e-02
6.0567545e-02
6.2256655e-02
6.1930767e-02
5.9559382e-02
5.7299981e-02
5.3148522e-02
4.6587565e-02
3.7668598e-02
2.7533007e-02
1.8591638e-02
8.1663044e-03
-3.8453111e-03
-1.7466243e-02
-3.2117101e-02
-4.4370707e-02
-5.6086749e-02
-6.8924432e-02
-8.2063044e-02
-9.0464032e-02
-8.9159273e-02
-8.1860741e-02
-7.0620234e-02
-5.7674964e-02
-4.6815389e-02
-3.7974469e-02
-3.1618690e-02
-2.6338268e-02
-2.2381453e-02
-1.8865853e-02
-1.2515382e-02
-4.6450666e-03
3.4967237e-03
1.0158772e-02
1.7198683e-02
2.8254166e-02
4.2253376e-02
5.9706253e-02
7.8324428e-02
9.5801511e-02
1.1282091e-01
1.2718615e-01
1.3720886e-01
1.3988162e-01
1.3476797e-01
1.2294802e-01
1.0105291e-01
6.4980257e-02
1.7002774e-02
-2.6703263e-02
-5.5175054e-02
-7.0849902e-02
-7.6424790e-02
-7.6532464e-02
-7.3072236e-02
-6.7145584e-02
-6.1632045e-02
-5.4848378e-02
-4.8080628e-02
-4.2959187e-02
-3.9114742e-02
-3.6690758e-02
-3.4165666e-02
-3.4219519e-02
-3.5735765e-02
-3.4694195e-02
-3.3319973e-02
-3.2524937e-02
-3.2109295e-02
-2.9985557e-02
-2.5011427e-02
-1.9415976e-02
-1.3121321e-02
-8.1669936e-03
-4.6880871e-03
-1.9156299e-03
-9.2626778e-04
-8.7444370e-04
-3.5213236e-03
-7.0750448e-03
-9.1122791e-03
-1.0614323e-02
-1.0889434e-02
-1.2103641e-02
-1.4343724e-02
-1.6123744e-02
-1.7652079e-02
-1.8051940e-02
-1.8418476e-02
-1.8407841e-02
-1.9222933e-02
-2.2130816e-02
-2.4418970e-02
-2.5619051e-02
-2.4167431e-02
-2.0080779e-02
-1.4475118e-02
-6.3083469e-03
1.4288657e-03
6.7589513e-03
1.0051719e-02
1.3041541e-02
1.6268675e-02
1.5947648e-02
1.3456792e-02
9.9222346e-03
5.3599510e-03
3.3852360e-03
2.6352616e-03
2.4671305e-03
2.7288602e-03
2.8102771e-03
4.5168528e-03
5.2989368e-03
3.9881776e-03
1.0308487e-03
-2.3954195e-03
-3.4959721e-03
-3.5396461e-03
-2.4536159e-03
-5.5402450e-04
1.6428859e-03
4.9712368e-03
7.3902426e-03
9.9679940e-03
1.2165600e-02
1.3509272e-02
1.5902960e-02
1.6501062e-02
1.5460299e-02
1.3165635e-02
1.0233994e-02
9.5683204e-03
9.2105784e-03
8.6894524e-03
8.6296131e-03
9.9239120e-03
1.2985992e-02
1.5240176e-02
1.7404587e-02
1.8758770e-02
1.9018584e-02
1.9375537e-02
1.7760427e-02
1.5166172e-02
1.1362557e-02
5.7902246e-03
-3.9082368e-04
-7.6713814e-03
-1.3846582e-02
-1.8635663e-02
-2.0952860e-02
-1.9717782e-02
-1.8396310e-02
-1.7544149e-02
-1.8241149e-02
-2.0366423e-02
-2.1922758e-02
-2.2887710e-02
-2.2749887e-02
-2.4791979e-02
-2.9595599e-02
-3.3953711e-02
-3.7566246e-02
-3.9221225e-02
-4.0763975e-02
-4.1886703e-02
-3.9895181e-02
-3.7089248e-02
-3.3126216e-02
-2.7554965e-02
-1.9091307e-02
-5.7572798e-03
8.7592674e-03
2.0693215e-02
2.7532156e-02
3.0648314e-02
3.2401415e-02
3.3244589e-02
3.4789094e-02
3.4092898e-02
3.0907422e-02
2.8708378e-02
2.8303702e-02
2.9744984e-02
2.9250685e-02
2.6783948e-02
2.5281939e-02
2.4683909e-02
2.4822635e-02
2.3171129e-02
2.0225355e-02
1.7409598e-02
1.4668453e-02
1.3513972e-02
1.1115447e-02
6.9608771e-03
2.4935804e-03
-2.7647463e-03
-6.1860606e-03
-8.2542986e-03
-9.4979257e-03
-9.7529726e-03
-1.0215522e-02
-1.0230166e-02
-1.1536703e-02
-1.3811694e-02
-1.5380678e-02
-1.5578826e-02
-1.4407868e-02
-1.5477432e-02
-1.8213104e-02
-2.1068349e-02
-2.3693072e-02
-2.4057755e-02
-2.4453191e-02
-2.5427741e-02
-2.6604848e-02
-2.7827860e-02
-2.6082512e-02
-2.2780312e-02
-1.8529563e-02
-1.1450745e-02
-1.9520824e-03
6.7842300e-03
1.0683794e-02
1.1788680e-02
1.2097951e-02
1.2398531e-02
1.3780705e-02
1.3610343e-02
1.1878437e-02
8.5963533e-03
4.6203851e-03
2.8752754e-03
2.8885340e-03
4.8412099e-03
6.7224481e-03
8.4304318e-03
1.3284071e-02
1.9035082e-02
2.3184098e-02
2.3990447e-02
2.3591753e-02
2.5442360e-02
2.6906488e-02
2.7856239e-02
2.7446810e-02
2.4594875e-02
2.0845478e-02
1.6101399e-02
1.3180911e-02
1.1138675e-02
7.8287539e-03
5.5729355e-03
4.1392610e-03
3.3484426e-03
1.8065241e-03
-5.6932345e-05
-6.0217937e-04
-1.3683318e-03
-1.5107836e-03
-2.2844540e-03
-3.7280434e-03
-3.6071955e-03
-2.9107769e-03
-1.6303660e-03
-1.4147847e-03
-1.3333100e-03
9.8391288e-04
2.4677346e-03
2.0298013e-03
-1.3565409e-03
-6.2662485e-03
-8.8222948e-03
-9.0811466e-03
-6.5783281e-03
-3.7618694e-03
-1.8045989e-03
4.9421195e-04
3.3740631e-03
8.3153223e-03
1.1321360e-02
1.1405910e-02
1.2059086e-02
1.3181375e-02
1.5270229e-02
1.5612342e-02
1.3838431e-02
1.2950729e-02
1.2703887e-02
1.3545055e-02
1.3065350e-02
1.0502099e-02
8.4487263e-03
7.8787790e-03
8.1148930e-03
4.5510234e-03
-2.3872294e-03
-8.3693387e-03
-1.3030033e-02
-1.6031574e-02
-1.9146904e-02
-2.2922820e-02
-2.5874904e-02
-2.7453922e-02
-2.6288780e-02
-2.4749214e-02
-2.4330570e-02
-2.4712179e-02
-2.5435435e-02
-2.4323077e-02
-2.2987951e-02
-2.1687237e-02
-1.9629987e-02
-1.7416595e-02
-1.4246681e-02
-1.2698314e-02
-1.2408262e-02
-1.0684720e-02
-7.0755637e-03
-1.6487345e-03
3.0644062e-03
7.5800806e-03
1.0949228e-02
1.2355115e-02
1.4786147e-02
1.6666617e-02
1.7579375e-02
1.7240141e-02
1.4616069e-02
1.1878458e-02
9.0286707e-03
5.9204056e-03
2.0507985e-03
-1.5637874e-03
-3.5919512e-03
-6.4736579e-03
-8.8519302e-03
-1.0524762e-02
-1.2586912e-02
-1.3494503e-02
-1.3996166e-02
-1.3682764e-02
-1.3805590e-02
-1.4010000e-02
-1.1235940e-02
-6.7986721e-03
-2.1741568e-03
-2.0538461e-05
2.5464274e-04
2.0646368e-03
3.2273459e-03
3.7227143e-03
4.3889650e-03
4.9882715e-03
5.9688410e-03
5.4045266e-03
4.5534467e-03
3.4672999e-03
1.7630258e-03
5.6717551e-04
-2.5112109e-03
-6.7181753e-03
-1.1149102e-02
-1.4771705e-02
-1.6101119e-02
-1.7385781e-02
-1.7850455e-02
-1.7614154e-02
-1.5886012e-02
-9.9069642e-03
-6.6400799e-04
1.1216131e-02
2.1141492e-02
2.7375053e-02
3.3522644e-02
3.9756797e-02
4.5743881e-02
4.8803110e-02
4.9320485e-02
4.9583932e-02
4.8315303e-02
4.6388105e-02
4.3412640e-02
4.0456749e-02
3.9003159e-02
3.8049890e-02
3.8765526e-02
3.9309180e-02
3.8583591e-02
3.7285944e-02
3.5042306e-02
3.3052059e-02
2.8704786e-02
2.0579108e-02
1.0100222e-02
-2.7172251e-03
-1.5443710e-02
-2.6148187e-02
-3.3116925e-02
-3.6698977e-02
-3.9369240e-02
-4.0496799e-02
-4.1125278e-02
-4.1122487e-02
-3.9553886e-02
-3.6510943e-02
-3.0742352e-02
-2.5495013e-02
-2.2206105e-02
-2.0133764e-02
-1.9500083e-02
-1.8417647e-02
-1.8504437e-02
-2.0077880e-02
-2.2073211e-02
-2.4430987e-02
-2.5450841e-02
-2.6677361e-02
-2.7586031e-02
-2.6264597e-02
-2.1978387e-02
-1.4829760e-02
-9.5152501e-03
-5.9838372e-03
-2.8160776e-03
-1.7586268e-03
-2.2123382e-03
-5.1416861e-03
-9.5197572e-03
-1.3826226e-02
-1.8182454e-02
-2.0805772e-02
-2.3590362e-02
-2.7318390e-02
-3.0687723e-02
-3.3275033e-02
-3.4009700e-02
-3.4531171e-02
-3.3284570e-02
-2.9347178e-02
-2.4212745e-02
-1.7680140e-02
-1.2541005e-02
-6.9706917e-03
1.8527516e-03
1.3982996e-02
2.8388950e-02
3.8859172e-02
4.4202856e-02
4.5952910e-02
4.5972953e-02
4.7495714e-02
4.8351422e-02
4.8155712e-02
4.7533034e-02
4.7153444e-02
4.7891975e-02
4.7587756e-02
4.7998403e-02
4.8473732e-02
4.7772796e-02
4.7845722e-02
4.6801243e-02
4.5056198e-02
4.3276274e-02
4.1472355e-02
4.0191714e-02
3.7613226e-02
3.2956755e-02
2.3894876e-02
1.0410497e-02
-4.5164886e-03
-1.9001423e-02
-2.9242079e-02
-3.5815706e-02
-4.0007502e-02
-4.0096584e-02
-3.7679427e-02
-3.4496474e-02
-3.3927766e-02
-3.5843433e-02
-3.6891983e-02
-3.7991018e-02
-3.7970235e-02
-3.7580432e-02
-3.8651154e-02
-4.0109414e-02
-4.1478099e-02
-4.0636671e-02
-3.9172597e-02
-3.8798675e-02
-3.7213459e-02
-3.3979377e-02
-2.9022259e-02
-2.4239472e-02
-1.8689972e-02
-1.1050960e-02
-4.1952493e-03
2.0319367e-03
5.4069284e-03
5.6767488e-03
5.5743520e-03
4.7497794e-03
4.7548515e-03
4.1163937e-03
1.9921039e-03
2.1152784e-04
-1.2602337e-03
-2.0097170e-03
-4.0965756e-03
-7.1413179e-03
-1.0348610e-02
-1.4152239e-02
-1.5960761e-02
-1.8231508e-02
-2.1688598e-02
-2.3645126e-02
-2.3183468e-02
-1.7983028e-02
-1.0990902e-02
-3.1296255e-03
7.0886166e-03
1.6341760e-02
2.4083606e-02
2.8929702e-02
3.1007561e-02
3.1598089e-02
3.0515409e-02
3.1049913e-02
3.1801574e-02
3.1158654e-02
3.0346691e-02
2.8839477e-02
2.7885279e-02
2.6683194e-02
2.5633648e-02
2.6772683e-02
3.0294802e-02
3.5284847e-02
3.7261443e-02
3.6368079e-02
3.4837726e-02
3.2441005e-02
3.0915779e-02
2.8050354e-02
2.1643902e-02
1.2788774e-02
3.9614323e-03
-2.7287433e-03
-9.5897080e-03
-1.6438057e-02
-2.1972639e-02
-2.5318029e-02
-2.4943954e-02
-2.4091169e-02
-2.3641743e-02
-2.2707338e-02
-2.0873985e-02
-1.7026845e-02
-1.3276836e-02
-9.8081728e-03
-7.7669214e-03
-7.9092497e-03
-7.9407923e-03
-9.0203061e-03
-1.0530733e-02
-1.2124818e-02
-1.3720119e-02
-1.3025396e-02
-1.2026506e-02
-1.1239765e-02
-1.0909379e-02
-1.0945470e-02
-9.4706496e-03
-7.6568281e-03
-4.9988115e-03
-2.7602353e-03
-1.2908399e-03
1.1543274e-03
3.4858428e-03
7.0494015e-03
1.0660592e-02
1.2741651e-02
1.4173798e-02
1.3191625e-02
1.0817475e-02
7.2074325e-03
2.6881756e-03
-7.1208064e-04
-4.1817973e-03
-6.3017455e-03
-7.4538954e-03
-9.2534820e-03
-1.1117130e-02
-1.3073887e-02
-1.3328804e-02
-1.3145790e-02
-1.2877527e-02
-1.0788012e-02
-7.8501712e-03
-4.6130355e-03
-4.3447893e-03
-7.0615756e-03
-9.9182865e-03
-1.3238439e-02
-1.5861986e-02
-1.8485133e-02
-2.0304074e-02
-1.9942475e-02
-1.9071081e-02
-1.8091233e-02
-1.9526035e-02
-2.1903501e-02
-2.3053582e-02
-2.4782856e-02
-2.5204049e-02
-2.4811479e-02
-2.2935783e-02
-1.7530002e-02
-9.9521861e-03
3.6899052e-04
1.0929257e-02
2.0267482e-02
2.8442927e-02
3.3336134e-02
3.6733948e-02
3.8720154e-02
3.9953660e-02
4.2142834e-02
4.4032667e-02
4.6199276e-02
4.6896622e-02
4.6032121e-02
4.5855122e-02
4.5841334e-02
4.6205441e-02
4.6245785e-02
4.6915319e-02
4.7067438e-02
4.4667126e-02
4.2318369e-02
3.7808987e-02
3.0223613e-02
2.2217334e-02
1.3454049e-02
2.7409961e-03
-1.0858013e-02
-2.3678840e-02
-3.3488233e-02
-3.9778357e-02
-4.1149479e-02
-4.1034995e-02
-4.0258861e-02
-3.8435786e-02
-3.5333415e-02
-3.0040506e-02
-2.6667991e-02
-2.5326497e-02
-2.5436212e-02
-2.7481813e-02
-2.9157173e-02
-3.2206175e-02
-3.5439184e-02
-3.7087743e-02
-3.7139943e-02
-3.3767665e-02
-2.9434696e-02
-2.5742262e-02
-2.2242701e-02
-1.7418509e-02
-8.9732432e-03
1.6011542e-04
7.7247629e-03
1.3086924e-02
1.6824783e-02
1.9879240e-02
2.0194175e-02
1.9954787e-02
1.9268257e-02
1.6908359e-02
1.5092221e-02
1.2461981e-02
9.9034353e-03
8.2783288e-03
7.4514555e-03
8.4457445e-03
8.6867096e-03
8.5090788e-03
8.0500294e-03
6.9830621e-03
7.0323292e-03
6.3721474e-03
5.7525253e-03
4.9984456e-03
3.7764048e-03
4.6270598e-03
5.7044295e-03
6.5795020e-03
7.0148655e-03
7.0214939e-03
8.9145185e-03
1.1330104e-02
1.2364618e-02
1.0022086e-02
6.2129396e-03
3.9056837e-03
1.1639360e-03
-1.3082279e-03
-3.7781122e-03
-5.5386463e-03
-5.7600270e-03
-6.8580027e-03
-7.0446807e-03
-7.4144710e-03
-8.6882980e-03
-8.9884013e-03
-8.9321473e-03
-7.5584507e-03
-6.0683361e-03
-3.6188783e-03
1.0506239e-03
6.3099813e-03
1.1994826e-02
1.4379073e-02
1.3776787e-02
1.3122114e-02
1.1764926e-02
1.1043895e-02
9.5672801e-03
8.9182628e-03
1.1511315e-02
1.4210133e-02
1.7216525e-02
1.9490248e-02
2.0527802e-02
2.2445989e-02
2.4296693e-02
2.5834182e-02
2.5318105e-02
2.2789058e-02
2.0704565e-02
1.9308271e-02
1.8837627e-02
1.5798610e-02
9.7214421e-03
1.9776892e-03
-7.6272805e-03
-1.4823176e-02
-2.0589317e-02
-2.5300959e-02
-2.6905362e-02
-2.7736339e-02
-2.8714408e-02
-3.1315765e-02
-3.3643288e-02
-3.4208212e-02
-3.4604130e-02
-3.4039208e-02
-3.4078148e-02
-3.4004215e-02
-3.3601529e-02
-3.4652938e-02
-3.5295560e-02
-3.6378176e-02
-3.7846732e-02
-3.8014903e-02
-3.5824897e-02
-3.0828456e-02
-2.6093449e-02
-2.0018009e-02
-9.7299292e-03
3.5268206e-03
1.7954361e-02
2.8364672e-02
3.3554471e-02
3.6613774e-02
3.9142516e-02
4.1643276e-02
4.1580768e-02
4.0357533e-02
3.8525705e-02
3.4638302e-02
3.1434737e-02
2.8304610e-02
2.5673883e-02
2.4439223e-02
2.3527308e-02
2.4389575e-02
2.5735365e-02
2.6975219e-02
2.7735923e-02
2.6742349e-02
2.4655191e-02
1.8776583e-02
9.2071358e-03
-2.2014380e-03
-1.2573589e-02
-1.7482280e-02
-1.9809369e-02
-2.1897571e-02
-2.4262970e-02
-2.5192952e-02
-2.3190603e-02
-2.2259412e-02
-2.1214496e-02
-1.9012938e-02
-1.5761594e-02
-1.0394085e-02
-5.7424093e-03
-1.9627899e-03
-1.2209984e-04
-1.4651975e-04
1.4715487e-03
3.3664219e-03
4.7444487e-03
4.6042286e-03
3.1185492e-03
3.1258241e-03
3.1596887e-03
2.1545007e-03
-5.1811412e-04
-2.9978751e-03
-2.4570576e-03
-1.5789981e-03
-1.3429209e-03
-2.3628355e-03
-3.7753576e-03
-2.9849500e-03
-2.0377347e-03
-1.4332725e-03
-2.3062058e-03
-4.8106966e-03
-5.5547901e-03
-4.6076742e-03
-1.9750078e-03
-3.0420712e-05
-4.5109351e-04
-7.9956183e-04
-1.1829943e-03
-8.9738133e-04
-9.3631308e-04
-1.3599963e-03
-4.3884354e-04
2.8708889e-05
-2.4862910e-04
-2.7364133e-03
-6.3208396e-03
-8.6738411e-03
-1.1525208e-02
-1.3359751e-02
-1.4209263e-02
-1.4466287e-02
-1.2830631e-02
-1.0446804e-02
-7.1728114e-03
-4.1214118e-03
-1.1848365e-03
2.2046672e-03
4.9490987e-03
9.1435562e-03
1.2865836e-02
1.4673703e-02
1.6301362e-02
1.6944195e-02
1.7448739e-02
1.7675472e-02
1.8774306e-02
2.0014842e-02
1.7592969e-02
1.3216070e-02
7.2432966e-03
8.9612713e-04
-2.7215260e-03
-4.1335359e-03
-3.1930936e-03
-1.9184571e-03
-6.3006875e-04
1.4973144e-03
2.5969413e-03
3.0834300e-03
1.6948372e-03
-5.6619913e-04
-1.6495529e-03
-2.5439886e-03
-2.4545271e-03
-3.8148098e-03
-6.1377271e-03
-6.7063417e-03
-6.6707039e-03
-5.0524224e-03
-3.7377394e-03
-3.9472256e-03
-4.3198174e-03
-4.6329799e-03
-4.5140999e-03
-6.8881210e-03
-1.0364560e-02
-1.1980976e-02
-1.2676169e-02
-1.1473813e-02
-9.6869052e-03
-7.8890804e-03
-6.6101340e-03
-6.5863642e-03
-5.1786872e-03
-4.4864674e-03
-5.3869848e-03
-6.5462186e-03
-8.3300192e-03
-8.1253081e-03
-6.5501210e-03
-3.9551165e-03
-4.3353198e-04
1.4969843e-03
2.7614713e-03
2.3700324e-03
1.1915753e-03
1.7228404e-03
3.3692119e-03
5.7958723e-03
6.7616311e-03
6.4097925e-03
5.4592051e-03
4.6176132e-03
5.8096240e-03
5.8413564e-03
4.5136744e-03
3.4663611e-03
2.9776201e-03
3.2658027e-03
5.4165491e-04
-3.8305880e-03
-7.5417555e-03
-1.0260421e-02
-1.0203108e-02
-1.0105914e-02
-9.3055508e-03
-6.3523992e-03
-2.8606523e-03
1.1841799e-03
2.8513718e-03
1.2261140e-03
-2.3000514e-03
-5.6418724e-03
-6.7372210e-03
-9.0475469e-03
-1.2990394e-02
-1.6263361e-02
-1.7074155e-02
-1.4064687e-02
-1.0599199e-02
-7.1711672e-03
-2.9881007e-03
8.4135499e-04
4.1958266e-03
5.0042750e-03
4.2135951e-03
3.3962723e-03
2.9217140e-03
3.8054722e-03
2.8899619e-03
4.7527927e-04
-1.9215558e-03
-4.8471866e-03
-6.7490918e-03
-8.9808223e-03
-1.1278037e-02
-1.3415397e-02
-1.5396774e-02
-1.4040395e-02
-1.0505549e-02
-5.8065947e-03
-9.3556297e-04
2.9283838e-03
7.3354489e-03
9.8359966e-03
9.9331362e-03
8.8204876e-03
7.3548415e-03
8.0191805e-03
8.8941902e-03
9.5386929e-03
9.6122539e-03
8.5042727e-03
8.9448537e-03
9.7992265e-03
1.0089539e-02
8.8297587e-03
6.4616526e-03
6.3311547e-03
7.2900038e-03
8.7022463e-03
9.8298666e-03
1.0499194e-02
1.0838756e-02
8.1842325e-03
4.8386368e-03
2.1464679e-03
2.9251392e-04
1.2567905e-03
2.9659826e-03
4.6068978e-03
4.6089814e-03
3.1566956e-03
2.6850759e-03
1.5184651e-03
5.5668085e-05
-2.3015869e-03
-5.2484832e-03
-5.9973526e-03
-5.2322874e-03
-3.4739062e-03
-2.6111351e-03
-1.8886261e-03
1.0388855e-03
3.4856647e-03
5.2081537e-03
5.1830179e-03
2.9360621e-03
1.1158101e-03
-9.8022055e-04
-2.5268608e-03
-4.2962543e-03
-6.8412886e-03
-7.8950404e-03
-8.0655079e-03
-6.7456377e-03
-5.2410134e-03
-3.3413574e-03
1.1246369e-03
5.7799370e-03
9.7646633e-03
1.1418540e-02
1.1111953e-02
1.1005672e-02
9.6850944e-03
7.0584506e-03
2.0741507e-03
-3.1065030e-03
-4.7586354e-03
-4.3143699e-03
-3.1137677e-03
-3.1446827e-03
-3.0815460e-03
-1.1927217e-03
-2.7522869e-04
-3.3261123e-04
-2.7534664e-03
-6.2743710e-03
-6.7455169e-03
-6.2972727e-03
-6.5374746e-03
-8.5800443e-03
-1.1284070e-02
-1.2364288e-02
-1.3306118e-02
-1.3507504e-02
-1.4423200e-02
-1.6392229e-02
-1.7479622e-02
-1.8920428e-02
-2.0030739e-02
-2.2020242e-02
-2.4548054e-02
-2.4412766e-02
-2.3056311e-02
-2.0963256e-02
-1.8441855e-02
-1.4170721e-02
-6.0930168e-03
4.4197606e-03
1.6526965e-02
2.5692294e-02
3.0827568e-02
3.3969094e-02
3.5066336e-02
3.6350960e-02
3.5194240e-02
3.2124983e-02
3.1239460e-02
3.1316968e-02
3.2555922e-02
3.3321308e-02
3.2940534e-02
3.2637459e-02
3.1332957e-02
3.0427366e-02
2.9132144e-02
2.7664752e-02
2.6835273e-02
2.4806794e-02
2.3105927e-02
2.0344377e-02
1.5641048e-02
1.0118660e-02
2.9706685e-03
-3.3217009e-03
-8.4318311e-03
-1.2174700e-02
-1.3876940e-02
-1.5374901e-02
-1.5527725e-02
-1.5975340e-02
-1.7308590e-02
-1.6909453e-02
-1.5155906e-02
-1.1706931e-02
-8.8114793e-03
-7.5115559e-03
-6.2450427e-03
-4.9122184e-03
-2.5754099e-03
-1.7539126e-03
-2.5840474e-03
-3.1232024e-03
-4.5553240e-03
-6.3812177e-03
-9.4557973e-03
-1.2514115e-02
-1.3648885e-02
-1.3531462e-02
-1.1456744e-02
-1.0344758e-02
-1.1166006e-02
-1.2165763e-02
-1.3108456e-02
-1.2701423e-02
-1.2944332e-02
-1.3609720e-02
-1.3417314e-02
-1.2864540e-02
-1.1324975e-02
-1.1656650e-02
-1.2690218e-02
-1.2082578e-02
-1.1095463e-02
-8.7867161e-03
-6.5913787e-03
-4.8531718e-03
-2.5864153e-03
9.8764929e-05
4.3416980e-03
7.4454252e-03
8.4403523e-03
9.4575297e-03
1.2524469e-02
1.8323366e-02
2.1873721e-02
2.1254805e-02
1.8347950e-02
1.4793162e-02
1.1937382e-02
8.6064115e-03
6.1969206e-03
4.5600187e-03
2.6206127e-03
2.9113709e-03
3.6514344e-03
3.8977623e-03
4.1058193e-03
3.8637745e-03
4.8611436e-03
5.4948569e-03
6.1992249e-03
7.5843296e-03
8.1279291e-03
9.4314562e-03
9.1883761e-03
6.5961307e-03
3.5600535e-03
-1.8275354e-03
-8.7404945e-03
-1.5791776e-02
-2.1801602e-02
-2.5942641e-02
-2.7213788e-02
-2.3671024e-02
-1.8765299e-02
-1.3904102e-02
-9.2694336e-03
-5.2575023e-03
-7.4576452e-05
3.3533364e-03
4.9113399e-03
6.0878795e-03
6.6450128e-03
7.1998430e-03
5.2090844e-03
2.5475416e-03
1.9574049e-03
2.1507983e-03
3.0699815e-03
2.3555522e-03
-2.4140549e-04
-3.3982441e-03
-5.0901818e-03
-2.6242052e-03
-7.9130696e-04
-1.7064673e-03
-3.0839213e-03
-2.8129611e-03
6.7728094e-04
2.7489553e-03
2.5213010e-03
2.1432300e-03
2.3660416e-03
4.9139558e-03
7.2915320e-03
8.9976072e-03
1.1121012e-02
1.3544872e-02
1.6429096e-02
1.8012935e-02
1.9932921e-02
2.2288957e-02
2.3517457e-02
2.5016145e-02
2.5799709e-02
2.6533842e-02
2.6226062e-02
2.1544425e-02
1.4437029e-02
6.3445483e-03
-1.9591986e-03
-9.2306354e-03
-1.4422219e-02
-1.6261609e-02
-1.6672320e-02
-1.6359132e-02
-1.6220528e-02
-1.6182676e-02
-1.4801794e-02
-1.3884775e-02
-1.2698829e-02
-1.2169539e-02
-1.2586199e-02
-1.1522838e-02
-1.1471607e-02
-1.3134736e-02
-1.6120962e-02
-1.8603650e-02
-1.8132252e-02
-1.7614656e-02
-1.7196167e-02
-1.6692302e-02
-1.5375246e-02
-1.2412189e-02
-1.1541978e-02
-1.1892295e-02
-1.2147547e-02
-1.2244566e-02
-1.0940030e-02
-9.7722831e-03
-7.3867711e-03
-2.7412109e-03
2.6036903e-03
6.6426962e-03
6.7415813e-03
5.4501040e-03
3.4788752e-03
-1.2303658e-04
-3.5307122e-03
-7.8510750e-03
-1.1691170e-02
-1.3646484e-02
-1.4482913e-02
-1.4124633e-02
-1.4577966e-02
-1.4452465e-02
-1.1817782e-02
-6.8394053e-03
-2.1541711e-04
4.4768844e-03
7.6235460e-03
9.9002995e-03
1.1911970e-02
1.5394801e-02
1.7153959e-02
1.7069745e-02
1.5636986e-02
1.3583439e-02
1.3444366e-02
1.3038563e-02
1.2167641e-02
1.0517281e-02
9.1796120e-03
1.0777627e-02
1.2536345e-02
1.5252577e-02
1.9102759e-02
2.2640541e-02
2.5820894e-02
2.5861738e-02
2.4872758e-02
2.3435485e-02
1.8787656e-02
1.2388235e-02
5.8152861e-03
9.9154485e-04
-2.4608236e-03
-3.9546172e-03
-2.5370965e-03
-2.1053568e-03
-2.7177130e-03
-4.1635385e-03
-6.1519420e-03
-6.1717429e-03
-5.8442436e-03
-6.6663414e-03
-1.0252151e-02
-1.5044429e-02
-1.7447365e-02
-1.8848307e-02
-1.9317120e-02
-1.9927602e-02
-2.0499684e-02
-1.8739853e-02
-1.6690208e-02
-1.4399127e-02
-1.2680368e-02
-1.2391109e-02
-1.1899973e-02
-1.1187052e-02
-9.7703180e-03
-9.7515634e-03
-1.0338184e-02
-9.1151736e-03
-8.5906503e-03
-7.8336425e-03
-6.9955495e-03
-6.5870839e-03
-4.9224332e-03
-3.0049865e-03
9.6766523e-04
5.8173022e-03
8.8478970e-03
1.1171310e-02
1.2423649e-02
1.3103700e-02
1.2557644e-02
1.2331998e-02
1.4304701e-02
1.5943847e-02
1.7659620e-02
1.8379454e-02
1.7451013e-02
1.6600099e-02
1.5650680e-02
1.5847275e-02
1.6241449e-02
1.6045497e-02
1.5520085e-02
1.3918679e-02
1.2595821e-02
9.4848986e-03
4.0477094e-03
-6.0769379e-04
-3.9502536e-03
-5.3269578e-03
-7.5241980e-03
-1.1852200e-02
-1.6641928e-02
-2.2117018e-02
-2.6551800e-02
-3.0514758e-02
-3.3850648e-02
-3.5523363e-02
-3.6170847e-02
-3.4002245e-02
-3.0045214e-02
-2.3549251e-02
-1.3495520e-02
-3.8765734e-03
4.2315265e-03
8.5840473e-03
9.6817060e-03
1.1185394e-02
1.2471727e-02
1.3667744e-02
1.3475687e-02
1.2444130e-02
1.2425273e-02
1.2808036e-02
1.4225449e-02
1.4408064e-02
1.3277797e-02
1.2862524e-02
1.2738418e-02
1.3799558e-02
1.3883651e-02
1.2737975e-02
1.1908548e-02
1.0214762e-02
8.6365126e-03
5.5302219e-03
7.2706641e-04
-3.0981714e-03
-5.4672356e-03
-5.8131447e-03
-6.1824531e-03
-6.6527574e-03
-6.6062255e-03
-6.2371816e-03
-3.4378209e-03
-4.1894916e-04
2.3090039e-03
5.6454334e-03
8.8819664e-03
1.2624421e-02
1.3449180e-02
1.2310308e-02
1.2386487e-02
1.3354485e-02
1.6194042e-02
1.7638565e-02
1.6170553e-02
1.3656027e-02
1.1200610e-02
9.6219493e-03
5.5731557e-03
-1.6233636e-04
-5.1366360e-03
-9.8166455e-03
-1.2499084e-02
-1.5117673e-02
-1.8170812e-02
-2.0499168e-02
-2.2524486e-02
-2.3218024e-02
-2.5965500e-02
-3.0717396e-02
-3.5060470e-02
-3.8667827e-02
-3.9325083e-02
-4.0291721e-02
-4.1714670e-02
-4.1208066e-02
-4.0264479e-02
-3.8026431e-02
-3.6115768e-02
-3.4096750e-02
-3.0571317e-02
-2.6324123e-02
-1.9483441e-02
-1.0860940e-02
5.0426305e-04
1.4608802e-02
2.7346767e-02
3.7614269e-02
4.3616810e-02
4.5772151e-02
4.5414844e-02
4.3833404e-02
4.4134869e-02
4.3984796e-02
4.2042690e-02
3.9150021e-02
3.6340281e-02
3.5249564e-02
3.2692661e-02
2.9310574e-02
2.7200814e-02
2.6030573e-02
2.7605018e-02
2.9405832e-02
2.9134786e-02
2.6285747e-02
2.1490117e-02
1.6872415e-02
1.0004648e-02
3.1156662e-04
-1.0988008e-02
-2.1412932e-02
-2.6915236e-02
-2.9367122e-02
-3.0184342e-02
-2.9290844e-02
-2.7184351e-02
-2.3878519e-02
-2.2408733e-02
-2.2331914e-02
-2.2924795e-02
-2.4207110e-02
-2.4017671e-02
-2.4432737e-02
-2.5233930e-02
-2.5779346e-02
-2.6768202e-02
-2.7184936e-02
-2.9041489e-02
-3.0718449e-02
-2.9928023e-02
-2.7648553e-02
-2.3661390e-02
-1.8555687e-02
-1.0914602e-02
-2.3247601e-03
4.7202050e-03
1.1468492e-02
1.5762135e-02
1.7717401e-02
1.8141004e-02
1.7745575e-02
1.9368067e-02
2.0914750e-02
2.0875986e-02
1.8870009e-02
1.5417427e-02
1.2282547e-02
8.4192712e-03
5.5945217e-03
3.9183335e-03
2.9868412e-03
3.5639886e-03
2.5144598e-03
1.5610144e-03
2.5382487e-03
5.3950911e-03
1.0726847e-02
1.4822493e-02
1.7675270e-02
1.9715924e-02
2.0284092e-02
2.0811919e-02
2.0629166e-02
2.0649744e-02
2.0036507e-02
1.8991604e-02
1.8969523e-02
1.7369549e-02
1.4637401e-02
1.0785395e-02
6.7596036e-03
5.1292467e-03
4.0728394e-03
3.8333525e-03
3.5999986e-03
3.4448917e-03
5.5423625e-03
7.4051416e-03
8.4553728e-03
7.4565066e-03
4.9351348e-03
3.4760115e-03
-7.1865115e-05
-6.8550880e-03
-1.5983569e-02
-2.3237232e-02
-2.5067773e-02
-2.4099761e-02
-2.1005099e-02
-1.8963446e-02
-1.9355905e-02
-1.9246172e-02
-1.8603941e-02
-1.6268438e-02
-1.4005434e-02
-1.2271426e-02
-9.2889485e-03
-8.0527345e-03
-8.4865102e-03
-1.0645617e-02
-1.4026302e-02
-1.6256173e-02
-1.8534464e-02
-1.9183883e-02
-1.7071751e-02
-1.2734664e-02
-7.5565656e-03
-3.6505627e-03
8.7626590e-04
3.7037454e-03
3.7888456e-03
3.9036696e-03
2.9140268e-03
1.6543871e-03
-4.5881224e-05
-1.1848577e-03
-4.9891091e-04
-7.1870716e-04
-9.1299693e-04
-1.6822320e-03
-2.6668441e-03
-1.6630567e-03
-1.0230438e-03
-8.8919388e-04
-1.6813527e-03
-2.8974964e-03
-2.3036602e-03
-8.3962693e-04
1.8036320e-03
3.8199597e-03
4.6954861e-03
5.8526062e-03
6.0128682e-03
6.3173777e-03
5.6909608e-03
4.7436442e-03
5.5597468e-03
6.7409995e-03
8.9288884e-03
9.9018827e-03
9.9273816e-03
1.0855424e-02
9.7737961e-03
8.2303646e-03
7.0817240e-03
5.7002934e-03
4.9532085e-03
4.2904516e-03
4.4118747e-03
3.6773199e-03
2.2007740e-03
1.8951948e-03
1.7476629e-03
2.3763608e-03
2.5368190e-03
3.1299955e-03
6.0836783e-03
9.1266889e-03
1.1941892e-02
1.2590263e-02
1.2929820e-02
1.6236046e-02
1.9569580e-02
2.1653141e-02
1.9986438e-02
1.4975573e-02
9.7598176e-03
5.0818837e-03
3.1019225e-03
1.5433103e-03
-4.7702384e-04
-1.1544352e-03
-1.2044249e-03
-3.5085734e-04
-1.2108203e-03
-3.3558779e-03
-4.3857239e-03
-5.0405733e-03
-4.4300845e-03
-4.9934375e-03
-7.2376731e-03
-9.8670766e-03
-1.4048411e-02
-1.8192255e-02
-2.3035707e-02
-2.7092419e-02
-2.7760660e-02
-2.5999879e-02
-2.1863268e-02
-1.9145410e-02
-1.8224834e-02
-1.6266244e-02
-1.3393614e-02
-8.6544286e-03
-5.0482039e-03
-3.1206518e-03
-7.6131367e-04
1.3960063e-03
4.1833179e-03
4.9555076e-03
3.2045607e-03
6.3551379e-04
-1.8859860e-03
-7.2543082e-04
1.1724582e-03
9.0926004e-04
4.8702526e-04
3.7399455e-04
1.6620285e-03
3.0030192e-03
3.8207469e-03
4.2567151e-03
4.0763981e-03
5.3739441e-03
6.5015729e-03
7.3368610e-03
9.0264351e-03
1.0374444e-02
1.1523103e-02
1.0944653e-02
9.3309975e-03
7.8379675e-03
6.3134864e-03
6.0117361e-03
4.3639278e-03
1.1103889e-03
-1.9088368e-03
-5.2018450e-03
-7.6439230e-03
-1.0480925e-02
-1.2430068e-02
-1.1727947e-02
-9.3985157e-03
-4.3814302e-03
-3.0850867e-04
1.3361457e-03
2.5180303e-03
3.8045359e-03
6.3581518e-03
7.4002344e-03
6.6115477e-03
6.3997958e-03
8.0996726e-03
1.1591748e-02
1.3055956e-02
1.3536586e-02
1.4439083e-02
1.4722571e-02
1.5510600e-02
1.4376993e-02
1.1780983e-02
9.5172788e-03
6.8408933e-03
5.6592466e-03
5.9499893e-03
7.2160865e-03
7.5825729e-03
6.0245430e-03
3.8378587e-03
-1.8056937e-03
-8.1677794e-03
-1.2187257e-02
-1.4728324e-02
-1.4161076e-02
-1.3018214e-02
-1.1152596e-02
-8.0712317e-03
-5.3880117e-03
-1.3727266e-03
2.0752346e-03
3.8538698e-03
3.9400673e-03
3.1487926e-03
4.4511578e-03
6.1723405e-03
7.9986328e-03
1.0928792e-02
1.4567444e-02
1.7873095e-02
1.7574326e-02
1.5332347e-02
1.1399661e-02
4.4995744e-03
-1.7098149e-03
-7.0489574e-03
-1.1066872e-02
-1.4652319e-02
-1.8945510e-02
-2.1301134e-02
-2.2335917e-02
-2.1811878e-02
-2.0201783e-02
-1.8691692e-02
-1.7200227e-02
-1.7924378e-02
-1.9662106e-02
-2.1692172e-02
-2.4400248e-02
-2.5892574e-02
-2.7837867e-02
-3.0295779e-02
-3.2858738e-02
-3.4598315e-02
-3.2950394e-02
-3.0308498e-02
-2.6498413e-02
-2.0760292e-02
-1.3402559e-02
-1.9347998e-03
1.1281829e-02
2.2552177e-02
2.9123230e-02
3.1164399e-02
3.1674803e-02
2.9531954e-02
2.6985536e-02
2.6763269e-02
2.7969018e-02
2.9060060e-02
2.7992088e-02
2.7464302e-02
2.7781500e-02
2.8220354e-02
3.0251095e-02
3.1270319e-02
3.1719980e-02
3.1757522e-02
3.0603952e-02
2.9630798e-02
2.6210546e-02
2.0052482e-02
1.2500054e-02
4.9382310e-03
-2.1782970e-03
-1.1604690e-02
-2.1108010e-02
-2.7978215e-02
-3.0338024e-02
-2.8921128e-02
-2.9404067e-02
-3.0632833e-02
-3.0142926e-02
-2.8391027e-02
-2.6012409e-02
-2.5329740e-02
-2.5514068e-02
-2.6538053e-02
-2.8123690e-02
-2.8849458e-02
-3.0056036e-02
-3.1040574e-02
-3.2256939e-02
-3.3133185e-02
-3.2532319e-02
-3.2068210e-02
-2.9003781e-02
-2.2998632e-02
-1.4704455e-02
-1.8875461e-03
1.2183140e-02
2.2997393e-02
2.8871759e-02
3.2514470e-02
3.5250920e-02
3.3607072e-02
2.9319220e-02
2.4086952e-02
1.8488384e-02
1.5106887e-02
1.3746837e-02
1.4861136e-02
1.6457690e-02
1.6740466e-02
1.7233453e-02
1.8261219e-02
2.0918114e-02
2.2610124e-02
2.3112310e-02
2.4937869e-02
2.5418360e-02
2.4100487e-02
1.9939744e-02
1.3602728e-02
7.3698245e-03
8.4943195e-04
-3.6623878e-03
-7.1804312e-03
-9.9613148e-03
-1.0414087e-02
-1.0796345e-02
-1.1165231e-02
-1.2632833e-02
-1.5111792e-02
-1.5845258e-02
-1.5446934e-02
-1.4510927e-02
-1.3376940e-02
-1.0090241e-02
-4.2661561e-03
4.2627662e-04
3.9776481e-03
5.5021817e-03
5.4939977e-03
5.8693224e-03
4.9771604e-03
3.1120800e-03
-1.2488122e-03
-7.6003774e-03
-1.3590066e-02
-1.8634253e-02
-1.8965814e-02
-1.6533575e-02
-1.3966930e-02
-1.0862684e-02
-8.9156019e-03
-6.5339594e-03
-3.6953748e-03
-6.0814934e-04
2.5364357e-03
4.0803319e-03
6.3292700e-03
8.0296532e-03
8.4861176e-03
9.4592531e-03
9.9085240e-03
1.1352447e-02
1.2572608e-02
1.3115841e-02
1.4558877e-02
1.5564839e-02
1.5765071e-02
1.3278938e-02
9.4591692e-03
6.6115442e-03
3.8003357e-03
1.8789819e-03
-7.1321919e-04
-4.0532747e-03
-7.1322921e-03
-1.0402332e-02
-1.1429122e-02
-1.2096028e-02
-1.3067575e-02
-1.2701469e-02
-1.2921622e-02
-1.3131504e-02
-1.3805594e-02
-1.3324618e-02
-1.0355099e-02
-8.4335492e-03
-7.9144817e-03
-9.1438658e-03
-1.0233162e-02
-9.7885434e-03
-9.3011152e-03
-8.0396130e-03
-8.1190085e-03
-8.1999409e-03
-5.8912606e-03
-2.8142729e-03
1.7099695e-03
5.1185402e-03
6.7656475e-03
9.3327487e-03
1.2171638e-02
1.4621826e-02
1.3678332e-02
1.0822185e-02
1.0007786e-02
1.1036414e-02
1.4954024e-02
1.8540413e-02
1.9520316e-02
2.0065435e-02
2.0397125e-02
2.0459255e-02
1.8273619e-02
1.4568775e-02
1.1248308e-02
7.5463052e-03
4.8702919e-03
1.7286983e-03
-2.2918962e-03
-5.3399733e-03
-7.2804002e-03
-6.3299909e-03
-5.2478505e-03
-5.4861120e-03
-4.8224796e-03
-4.2768011e-03
-4.1397027e-03
-6.8745448e-03
-1.2350721e-02
-1.6290755e-02
-1.7654395e-02
-1.7042018e-02
-1.7138464e-02
-1.7475902e-02
-1.7173451e-02
-1.7675705e-02
-1.7432580e-02
-1.7375350e-02
-1.7450789e-02
-1.6383363e-02
-1.4001543e-02
-9.9393395e-03
-7.0120067e-03
-3.6792293e-03
2.1853544e-03
8.7543510e-03
1.5230871e-02
1.8557459e-02
1.9645079e-02
2.1045881e-02
2.2252716e-02
2.4600470e-02
2.5389355e-02
2.3388024e-02
2.0518130e-02
1.7427169e-02
1.6047801e-02
1.4352126e-02
1.3371506e-02
1.5300748e-02
1.7511949e-02
1.9714742e-02
2.0194345e-02
1.9853205e-02
2.0212972e-02
1.9722092e-02
1.8990253e-02
1.5543248e-02
9.6402294e-03
3.7908781e-03
-1.4633398e-03
-3.8907082e-03
-6.2177254e-03
-1.0036609e-02
-1.4002988e-02
-1.7686421e-02
-1.8827823e-02
-2.0062627e-02
-2.2278412e-02
-2.3473531e-02
-2.4452877e-02
-2.4746490e-02
-2.6203504e-02
-2.8780949e-02
-3.1126992e-02
-3.3199135e-02
-3.3174682e-02
-3.3186880e-02
-3.3154061e-02
-3.1120050e-02
-2.8117844e-02
-2.3270252e-02
-1.8356924e-02
-1.4046490e-02
-8.2761650e-03
-9.5460315e-04
6.9498041e-03
1.1789402e-02
1.4443614e-02
1.7316254e-02
1.9647992e-02
2.2384873e-02
2.4244796e-02
2.6264371e-02
2.9591440e-02
3.2730667e-02
3.6326638e-02
3.7354579e-02
3.5115935e-02
3.1424667e-02
2.6087231e-02
2.0530324e-02
1.3996302e-02
7.3410938e-03
1.4473442e-03
-4.2321204e-03
-8.9375464e-03
-1.4464509e-02
-1.8921066e-02
-2.0520221e-02
-2.0196212e-02
-1.7645054e-02
-1.6766562e-02
-1.8348858e-02
-2.0760395e-02
-2.3735700e-02
-2.5518486e-02
-2.6925231e-02
-2.6417807e-02
-2.3491830e-02
-2.0502150e-02
-1.7104015e-02
-1.4937476e-02
-1.3534366e-02
-1.1634423e-02
-9.6014171e-03
-6.4635756e-03
-5.8125037e-03
-7.6412162e-03
-8.7462485e-03
-9.0564095e-03
-7.2880016e-03
-5.2375804e-03
-2.8454787e-03
1.0322976e-03
5.4832232e-03
1.0041470e-02
1.2096181e-02
1.2912661e-02
1.3078859e-02
1.1287612e-02
9.7853759e-03
8.3334414e-03
8.0389661e-03
8.6222127e-03
7.8436190e-03
6.9901481e-03
4.3269831e-03
8.1000301e-04
-1.3542791e-03
-2.5305246e-03
-2.0366390e-03
-2.2071935e-03
-2.6234173e-03
-2.9752337e-03
-3.6950140e-03
-1.6733898e-03
1.2289263e-03
3.6310137e-03
5.6484784e-03
6.2799927e-03
6.5841085e-03
5.6166887e-03
4.4919880e-03
4.8882249e-03
6.6166335e-03
1.0625261e-02
1.4417943e-02
1.7019616e-02
1.9151336e-02
2.1939431e-02
2.6975973e-02
3.0263159e-02
3.1282754e-02
3.1923799e-02
3.2783631e-02
3.5221116e-02
3.6366951e-02
3.5361059e-02
3.2431005e-02
2.8301400e-02
2.6213369e-02
2.3140469e-02
1.5377253e-02
1.9058425e-03
-1.4604179e-02
-2.7703936e-02
-3.7668782e-02
-4.4669886e-02
-4.7118917e-02
-4.6385843e-02
-4.3308918e-02
-3.9708329e-02
-3.4599511e-02
-2.7925399e-02
-2.1039495e-02
-1.3818420e-02
-9.8959830e-03
-9.8357475e-03
-1.2622763e-02
-1.5496279e-02
-1.3872411e-02
-1.1367155e-02
-1.0232034e-02
-1.0558146e-02
-1.2543108e-02
-1.3271242e-02
-1.3726943e-02
-1.3463847e-02
-1.1144761e-02
-7.1413205e-03
-1.9637049e-03
2.1394771e-03
6.0542355e-03
8.5618827e-03
8.9855786e-03
9.8871279e-03
8.6596102e-03
5.1204326e-03
5.8978684e-04
-4.8572158e-03
-9.4014877e-03
-1.3772574e-02
-1.6111155e-02
-1.5670190e-02
-1.3622172e-02
-9.8439650e-03
-8.2221856e-03
-8.4143138e-03
-8.7087881e-03
-8.9188219e-03
-7.2036183e-03
-5.2635600e-03
-2.7199817e-03
1.1081898e-03
6.4596027e-03
1.3274294e-02
1.7855096e-02
2.0447838e-02
2.1001694e-02
2.1119238e-02
2.4846890e-02
2.8640498e-02
3.0263157e-02
3.0304917e-02
2.9900278e-02
3.0695403e-02
2.9683249e-02
2.7071922e-02
2.3570109e-02
1.9594429e-02
1.7860479e-02
1.5716520e-02
1.3123969e-02
1.1116188e-02
9.2343647e-03
9.4027475e-03
1.0062654e-02
9.7588578e-03
6.6145656e-03
1.1678247e-03
-3.0380471e-03
-7.8072435e-03
-1.3794143e-02
-2.0827995e-02
-2.6563793e-02
-2.7879046e-02
-2.8324377e-02
-2.8679277e-02
-2.8855970e-02
-2.8716086e-02
-2.6762064e-02
-2.4917977e-02
-2.2872376e-02
-2.1490047e-02
-2.0528412e-02
-1.7748550e-02
-1.5072847e-02
-1.2101513e-02
-9.9287841e-03
-8.7608562e-03
-5.6242229e-03
-2.0151726e-03
2.5069825e-03
8.6457330e-03
1.5895449e-02
2.3462095e-02
2.8597649e-02
3.1415737e-02
3.0271846e-02
2.6517934e-02
2.4125776e-02
2.1339032e-02
1.8528028e-02
1.5037287e-02
1.0992627e-02
9.5662561e-03
9.4239700e-03
9.2740854e-03
7.3882248e-03
4.3029638e-03
2.4169083e-03
-1.4664369e-04
-2.5885358e-03
-4.9218385e-03
-7.7645563e-03
-9.4128455e-03
-1.0534246e-02
-9.6015534e-03
-7.6345228e-03
-6.5818534e-03
-4.9273631e-03
-2.7635330e-03
9.9157322e-04
4.6193106e-03
7.1970374e-03
1.0879315e-02
1.3406433e-02
1.4229331e-02
1.2808532e-02
9.9649990e-03
8.1241972e-03
6.2216700e-03
6.2637270e-03
7.1670023e-03
7.2626966e-03
8.3587920e-03
8.7113699e-03
7.7459927e-03
5.4084946e-03
3.7031366e-03
3.4421505e-03
1.2305036e-03
-2.4313019e-03
-8.6041176e-03
-1.5915757e-02
-1.9287549e-02
-1.9723533e-02
-1.8905654e-02
-1.8734449e-02
-1.8895961e-02
-1.8236544e-02
-1.9581784e-02
-2.1793061e-02
-2.3824460e-02
-2.4545547e-02
-2.2841442e-02
-2.1723457e-02
-2.0424096e-02
-1.9809493e-02
-1.9634266e-02
-1.6689096e-02
-1.3094131e-02
-1.0390959e-02
-1.0260175e-02
-1.1055128e-02
-9.6653694e-03
-7.6904477e-03
-4.3684300e-03
-1.8697569e-04
4.4876022e-03
1.0140359e-02
1.4033550e-02
1.6226733e-02
1.6885564e-02
1.7524347e-02
1.9648390e-02
2.0469584e-02
2.0087719e-02
1.8132260e-02
1.5205527e-02
1.3165810e-02
1.0828040e-02
9.2008944e-03
6.5918389e-03
2.6901414e-03
9.1091254e-04
6.9551440e-04
3.3940237e-04
-2.2963540e-03
-4.2281023e-03
-2.1787679e-03
1.6615102e-03
6.7251645e-03
1.0281253e-02
1.1761282e-02
1.3526793e-02
1.5121106e-02
1.8284169e-02
2.1704382e-02
2.3403995e-02
2.4619891e-02
2.4445483e-02
2.3061888e-02
1.9267850e-02
1.4645390e-02
1.2581316e-02
1.1184376e-02
9.7649972e-03
6.8560884e-03
2.7168690e-03
-7.7993694e-04
-4.5012476e-03
-7.2091982e-03
-9.3964826e-03
-1.0591098e-02
-9.8178249e-03
-8.9162452e-03
-7.6909775e-03
-8.5394933e-03
-1.0852409e-02
-1.0869892e-02
-9.6399326e-03
-8.2793452e-03
-9.0310511e-03
-1.0173847e-02
-8.7129062e-03
-6.2393612e-03
-1.9818392e-03
8.6609434e-04
7.1680153e-04
4.8834000e-04
-9.6942771e-04
-2.5800475e-03
-3.8983546e-03
-4.8713128e-03
-4.4187302e-03
-3.7638532e-03
-3.0495639e-03
-4.7258837e-03
-7.9025206e-03
-9.1527033e-03
-9.5278251e-03
-8.5287949e-03
-7.5524650e-03
-6.7437891e-03
-4.1290140e-03
-9.8171360e-04
1.8929128e-03
1.8066544e-03
6.2184217e-04
1.4532348e-03
1.3515365e-03
4.0015172e-04
-2.2959617e-03
-6.2876541e-03
-8.2640470e-03
-8.9061741e-03
-9.0381789e-03
-1.0664428e-02
-1.2380986e-02
-1.0971349e-02
-7.3039127e-03
-1.8398534e-03
1.8470371e-03
3.4274496e-03
5.8036316e-03
7.8042774e-03
9.7797125e-03
9.5994949e-03
8.0186194e-03
8.9878236e-03
1.0470623e-02
1.1407734e-02
1.1142160e-02
1.1273782e-02
1.3803029e-02
1.6545398e-02
1.9093169e-02
1.9359003e-02
1.7788214e-02
1.6280188e-02
1.4127843e-02
1.2440293e-02
8.8895662e-03
4.7270939e-03
3.9936423e-03
4.9124154e-03
5.9090775e-03
5.3002470e-03
4.6682322e-03
5.8310520e-03
6.2759424e-03
5.8845863e-03
2.6004146e-03
-2.5033856e-03
-4.9593098e-03
-5.6512523e-03
-5.8938776e-03
-8.4371974e-03
-1.2568782e-02
-1.4983986e-02
-1.6326686e-02
-1.6652492e-02
-1.8381700e-02
-2.1358184e-02
-2.2504114e-02
-2.2403062e-02
-2.1560221e-02
-2.2311950e-02
-2.4005761e-02
-2.3598041e-02
-2.1682037e-02
-1.8551978e-02
-1.7205424e-02
-1.7214215e-02
-1.5333211e-02
-1.2324901e-02
-7.4164932e-03
-1.6896850e-03
4.4801482e-03
1.0571236e-02
1.4087435e-02
1.6515342e-02
1.7605272e-02
1.7814614e-02
1.8824044e-02
2.0513326e-02
2.3969618e-02
2.7460006e-02
3.0770241e-02
3.3847997e-02
3.4969581e-02
3.5587684e-02
3.4286393e-02
3.1624098e-02
2.9130262e-02
2.5042878e-02
2.0174680e-02
1.4452412e-02
9.1411284e-03
4.9181825e-03
2.8959482e-04
-4.3655307e-03
-1.0901535e-02
-1.6973031e-02
-1.9600405e-02
-2.0527802e-02
-1.9593431e-02
-1.8815597e-02
-1.7405181e-02
-1.4036779e-02
-1.1205585e-02
-8.7073882e-03
-8.1358826e-03
-8.1077904e-03
-6.8353579e-03
-6.0202809e-03
-4.6820656e-03
-4.4712186e-03
-4.4270410e-03
-2.1432320e-03
1.1539580e-03
5.3190996e-03
8.2323501e-03
1.0134415e-02
1.1872667e-02
1.2584196e-02
1.3219189e-02
1.1021403e-02
7.3756581e-03
6.1417170e-03
5.8471259e-03
6.2572352e-03
4.5049828e-03
3.4673122e-04
-3.4174776e-03
-7.1212209e-03
-9.3634477e-03
-1.1723365e-02
-1.5014034e-02
-1.8086798e-02
-2.0214744e-02
-1.9660801e-02
-2.0110544e-02
-2.2318933e-02
-2.3747691e-02
-2.4068189e-02
-2.2256218e-02
-2.1518804e-02
-2.2139661e-02
-2.1999862e-02
-2.0947681e-02
-1.6921090e-02
-1.1921749e-02
-7.5501526e-03
-4.5227645e-03
-3.7631181e-03
-3.0631102e-03
-3.6930351e-03
-4.8870562e-03
-4.8990221e-03
-4.4429581e-03
-1.5082352e-03
1.9760741e-03
4.6369147e-03
6.8114454e-03
7.9157693e-03
1.0538139e-02
1.2906879e-02
1.4259746e-02
1.6052247e-02
1.7813252e-02
2.0359897e-02
2.0957578e-02
1.9617423e-02
1.7551353e-02
1.3984017e-02
1.1053224e-02
7.3117201e-03
3.2562443e-03
8.8735901e-04
-1.4130852e-03
-3.1890310e-03
-5.6082956e-03
-8.2006168e-03
-9.5841634e-03
-1.0945404e-02
-1.2145454e-02
-1.5429381e-02
-1.9566238e-02
-2.2340172e-02
-2.5216749e-02
-2.6690167e-02
-2.7755403e-02
-2.9080552e-02
-2.9606023e-02
-2.8515741e-02
-2.3681192e-02
-1.8613165e-02
-1.5224555e-02
-1.2164267e-02
-9.3909864e-03
-5.3009163e-03
-1.5542316e-03
1.6662120e-03
4.8746426e-03
6.8121631e-03
8.6590483e-03
8.4434320e-03
6.9406816e-03
5.5682801e-03
2.6715665e-03
2.8475232e-04
-2.5596261e-03
-5.0333677e-03
-5.0255991e-03
-4.4860310e-03
-2.9906154e-03
-2.4880122e-03
-3.3355677e-03
-4.1613742e-03
-5.6284469e-03
-6.1045317e-03
-6.5493229e-03
-6.6009400e-03
-5.8086978e-03
-5.1529454e-03
-2.0488665e-03
2.8989032e-03
7.8377557e-03
1.0894041e-02
1.1867560e-02
1.4345206e-02
1.6243131e-02
1.6205126e-02
1.6349653e-02
1.7215032e-02
2.0197104e-02
2.2482403e-02
2.3270768e-02
2.5045315e-02
2.8257206e-02
3.3395194e-02
3.7008273e-02
3.8513859e-02
3.9313550e-02
3.9412211e-02
4.1178265e-02
4.2062878e-02
4.1108771e-02
3.9032915e-02
3.4041087e-02
2.7716269e-02
1.8569160e-02
7.3328438e-03
-2.3593982e-03
-1.0551281e-02
-1.6511750e-02
-2.2116963e-02
-2.6700637e-02
-2.8331702e-02
-2.9005260e-02
-2.8534719e-02
-2.9712177e-02
-3.3582043e-02
-3.7139135e-02
-3.9343318e-02
-3.9867841e-02
-4.1480650e-02
-4.3520478e-02
-4.4473467e-02
-4.5300556e-02
-4.4051662e-02
-4.2402850e-02
-4.0970967e-02
-3.8099832e-02
-3.3358034e-02
-2.4911448e-02
-1.4210571e-02
-2.4976730e-03
7.7477187e-03
1.3704321e-02
1.7403384e-02
1.8284650e-02
1.8052138e-02
1.9882820e-02
2.3390672e-02
2.7783774e-02
2.9150168e-02
2.7852509e-02
2.6518107e-02
2.5009965e-02
2.4835139e-02
2.4448313e-02
2.3205001e-02
2.1616219e-02
1.8911439e-02
1.7065343e-02
1.5022441e-02
1.2307517e-02
8.8595442e-03
3.3110114e-03
-1.3563543e-03
-5.1349274e-03
-7.8041128e-03
-8.4915922e-03
-9.1880532e-03
-9.3442126e-03
-9.9234898e-03
-9.9616192e-03
-8.5961744e-03
-7.1334251e-03
-3.1384705e-03
5.9092420e-04
1.9850859e-03
3.1863642e-03
3.8884510e-03
5.0620103e-03
4.3151790e-03
2.2125397e-03
2.1059645e-03
3.0540043e-03
5.5963509e-03
7.4314311e-03
7.3365432e-03
7.5935228e-03
9.2454783e-03
1.2236013e-02
1.3357273e-02
1.3659826e-02
1.5079151e-02
1.6488847e-02
1.8031591e-02
1.6124825e-02
1.1659664e-02
8.7804444e-03
7.3215034e-03
8.0994666e-03
9.4061096e-03
1.0671817e-02
1.2201799e-02
1.2797158e-02
1.4271015e-02
1.5860275e-02
1.7742179e-02
2.0473267e-02
2.2371504e-02
2.4148662e-02
2.3928377e-02
2.2042520e-02
2.0254540e-02
1.6462877e-02
1.0796447e-02
7.7965007e-04
-1.3078549e-02
-2.4947764e-02
-3.3454118e-02
-3.8474187e-02
-4.1897995e-02
-4.3776137e-02
-4.3757043e-02
-4.3498844e-02
-4.0944899e-02
-3.7713739e-02
-3.4741960e-02
-3.0427877e-02
-2.5651013e-02
-1.9989829e-02
-1.5615009e-02
-1.2804016e-02
-1.0414817e-02
-9.7083666e-03
-9.0000147e-03
-8.8298668e-03
-9.3899569e-03
-9.0818825e-03
-8.4815634e-03
-6.5937783e-03
-5.5274609e-03
-5.3228204e-03
-2.9764542e-03
-3.1970289e-04
1.9942712e-03
2.5430169e-03
2.3646201e-03
3.8057394e-03
4.4797928e-03
4.7075414e-03
3.5629379e-03
2.4329047e-03
4.3736524e-03
6.6208835e-03
8.6704540e-03
9.5796553e-03
9.1640723e-03
8.4049211e-03
6.5641303e-03
5.5624423e-03
4.4835961e-03
3.4683768e-03
3.9226998e-03
4.5866670e-03
5.9609770e-03
5.7030002e-03
4.1770683e-03
4.9937252e-03
7.1634169e-03
9.2356840e-03
8.8265967e-03
6.6049933e-03
4.8702425e-03
2.6232944e-03
6.4775636e-04
-1.4277225e-03
-3.0573817e-03
-4.0217085e-03
-6.3797432e-03
-8.7938214e-03
-1.2797250e-02
-1.8773436e-02
-2.3793042e-02
-2.7917612e-02
-3.0675612e-02
-3.4012490e-02
-3.7009498e-02
-3.6313176e-02
-3.2831180e-02
-2.5440628e-02
-1.6186976e-02
-6.9250297e-03
2.9872788e-03
1.0987234e-02
1.7230366e-02
2.1228623e-02
2.4523128e-02
2.9016655e-02
3.2071703e-02
3.4921318e-02
3.6242253e-02
3.4833345e-02
3.3343199e-02
3.0937763e-02
2.8353930e-02
2.5666427e-02
2.3598972e-02
2.3009581e-02
2.1464248e-02
1.9767828e-02
1.7392895e-02
1.4569721e-02
1.2683406e-02
1.0184552e-02
7.8696763e-03
5.2267599e-03
2.9305918e-03
2.1994187e-03
6.6688382e-05
-3.0730817e-03
-6.3737845e-03
-7.5802110e-03
-5.2229284e-03
-3.4528840e-03
-3.0442995e-03
-4.6626093e-03
-6.5893300e-03
-6.1733971e-03
-6.1630339e-03
-7.2347388e-03
-1.0705123e-02
-1.5018911e-02
-1.6608189e-02
-1.6763230e-02
-1.5361424e-02
-1.4045318e-02
-1.2645173e-02
-8.4378520e-03
-3.5267874e-03
1.6217448e-03
6.9141732e-03
1.2889528e-02
2.0191262e-02
2.5804336e-02
2.9572783e-02
3.0809381e-02
2.9563992e-02
2.8590737e-02
2.8083114e-02
2.7692322e-02
2.5129981e-02
2.1288602e-02
1.9149958e-02
1.7520693e-02
1.5993301e-02
1.2764192e-02
8.3062917e-03
5.1496210e-03
2.0957246e-03
-1.2627506e-04
-2.7543496e-03
-5.6914325e-03
-6.5374329e-03
-7.3643549e-03
-9.1279583e-03
-1.4455642e-02
-2.2451910e-02
-2.8826227e-02
-3.4829768e-02
-3.9497075e-02
-4.3361124e-02
-4.6505383e-02
-4.5747686e-02
-4.3324365e-02
-4.0082888e-02
-3.6368781e-02
-3.2654014e-02
-2.8450929e-02
-2.5950327e-02
-2.3944994e-02
-2.2800248e-02
-2.1690181e-02
-1.7981077e-02
-1.5799836e-02
-1.5100644e-02
-1.3619352e-02
-1.1087756e-02
-7.5468440e-03
-5.5574385e-03
-3.4926635e-03
1.7103300e-04
5.2987165e-03
1.1526669e-02
1.6274362e-02
1.9893317e-02
2.2124321e-02
2.3616251e-02
2.5889071e-02
2.7537447e-02
2.9350250e-02
2.9975632e-02
2.9587937e-02
3.0587610e-02
3.0288744e-02
2.8896788e-02
2.7604087e-02
2.7588397e-02
3.0014563e-02
3.1777828e-02
3.3396741e-02
3.4142292e-02
3.2285621e-02
2.9752137e-02
2.5288692e-02
1.8404741e-02
7.9583102e-03
-4.1922349e-03
-1.1620370e-02
-1.5348647e-02
-1.8130628e-02
-2.1816554e-02
-2.5639428e-02
-2.5932989e-02
-2.4917349e-02
-2.4268158e-02
-2.4687960e-02
-2.5669104e-02
-2.4558672e-02
-2.2613271e-02
-2.0757421e-02
-2.1217430e-02
-2.4345451e-02
-2.7034750e-02
-2.9383040e-02
-3.0579473e-02
-3.1965033e-02
-3.3635807e-02
-3.2807865e-02
-3.0541293e-02
-2.5339385e-02
-1.7979393e-02
-1.0804065e-02
-3.0335355e-03
2.8185751e-03
6.5840109e-03
9.3978635e-03
1.2060074e-02
1.5866906e-02
1.9504481e-02
2.4203296e-02
2.8586540e-02
3.0642723e-02
3.1341103e-02
2.9760139e-02
2.9133401e-02
2.9971645e-02
3.0232580e-02
3.1126629e-02
3.1516090e-02
3.2765620e-02
3.4481943e-02
3.4911016e-02
3.4773869e-02
3.1239757e-02
2.4305194e-02
1.5791447e-02
7.4259162e-03
1.2408320e-03
-4.4058401e-03
-9.3610934e-03
-1.4518875e-02
-1.9438547e-02
-2.1611460e-02
-2.3994624e-02
-2.6129322e-02
-2.7089383e-02
-2.7463755e-02
-2.5775952e-02
-2.4446945e-02
-2.3614906e-02
-2.3040241e-02
-2.2694585e-02
-2.0138290e-02
-1.7411875e-02
-1.5561801e-02
-1.4511194e-02
-1.3122322e-02
-9.6415262e-03
-7.0919102e-03
-5.2962756e-03
-4.2274766e-03
-4.7325267e-03
-3.9712582e-03
-3.1385993e-03
-2.7272085e-03
-2.2672251e-03
-9.6592225e-04
3.8042245e-03
9.0268800e-03
1.2953263e-02
1.5439208e-02
1.6501615e-02
1.8738394e-02
1.9963472e-02
1.9223720e-02
1.7320620e-02
1.5442653e-02
1.6268029e-02
1.6947910e-02
1.6498757e-02
1.6183703e-02
1.5802805e-02
1.5520363e-02
1.2977327e-02
8.7362208e-03
3.6885775e-03
-1.6260009e-03
-4.6073105e-03
-7.0728722e-03
-9.3802768e-03
-1.1172974e-02
-1.1802802e-02
-9.2476097e-03
-7.8304445e-03
-9.4489813e-03
-1.2386767e-02
-1.5494817e-02
-1.6751042e-02
-1.7086000e-02
-1.6573249e-02
-1.6255204e-02
-1.6292516e-02
-1.4807782e-02
-1.3938825e-02
-1.2952499e-02
-1.1348943e-02
-9.4317500e-03
-5.0460037e-03
1.0317951e-04
5.9379710e-03
1.1696166e-02
1.5063984e-02
1.6857568e-02
1.5468761e-02
1.1765361e-02
7.7359525e-03
4.0132436e-03
2.1908555e-03
2.5177622e-04
-1.2615731e-03
-7.9780910e-04
1.6830795e-03
5.6170514e-03
5.4838387e-03
1.8135294e-03
-1.2789571e-03
-2.9715332e-03
-2.4559370e-03
-2.9205328e-03
-4.5210553e-03
-5.1520439e-03
-4.3889651e-03
-2.0827225e-03
-2.4806754e-03
-5.2735074e-03
-7.0090732e-03
-7.2515079e-03
-5.7807648e-03
-5.7619860e-03
-7.3117950e-03
-8.4383705e-03
-8.8671675e-03
-6.6548258e-03
-3.5722603e-03
-3.1539737e-04
3.8279458e-03
7.5014080e-03
1.0271670e-02
9.8815308e-03
7.1347797e-03
4.4921523e-03
3.5395791e-03
5.4335332e-03
6.6792288e-03
6.4183254e-03
5.3564012e-03
3.8053237e-03
4.0640035e-03
3.7840914e-03
1.8611632e-03
-4.7034636e-04
-2.7578987e-03
-3.2603454e-03
-5.1258315e-03
-9.3516324e-03
-1.3022187e-02
-1.5020337e-02
-1.4367334e-02
-1.3818778e-02
-1.4385880e-02
-1.5802002e-02
-1.7340972e-02
-1.6805373e-02
-1.7563047e-02
-1.8840148e-02
-1.7763979e-02
-1.6154701e-02
-1.3569033e-02
-1.1142792e-02
-8.7629798e-03
-5.9701780e-03
-4.7849868e-03
-4.3705420e-03
-5.6280338e-03
-6.3317690e-03
-2.9483513e-03
2.3790365e-03
7.8295437e-03
1.1556271e-02
1.4479491e-02
1.6972600e-02
1.8042353e-02
2.0067982e-02
2.1327680e-02
2.1188058e-02
2.1340527e-02
2.1132340e-02
2.1287809e-02
1.9983849e-02
1.6301533e-02
1.1705528e-02
7.0791952e-03
4.2427369e-03
1.4418730e-03
-1.2179779e-03
-1.9905428e-03
-1.8761516e-03
-3.9554562e-04
9.9200073e-04
2.5497816e-03
4.4156571e-03
5.2786730e-03
6.9209161e-03
7.3758432e-03
7.4092744e-03
9.0615745e-03
1.0572439e-02
1.2934145e-02
1.3305409e-02
1.0935996e-02
8.7052524e-03
6.0361926e-03
3.5477414e-03
1.7855613e-04
-2.7335913e-03
-3.4068901e-03
-2.8773403e-03
-2.6594789e-04
1.6261946e-03
2.5163219e-03
4.0563269e-03
5.5755287e-03
8.4144981e-03
9.4051932e-03
7.5410065e-03
5.0136475e-03
8.5658803e-04
-3.3663720e-03
-7.3561762e-03
-9.9858652e-03
-9.4663552e-03
-8.1138355e-03
-7.2225450e-03
-9.3782514e-03
-1.3152563e-02
-1.4063935e-02
-1.3292996e-02
-1.1049700e-02
-8.4001850e-03
-6.5299112e-03
-5.4075980e-03
-5.8723276e-03
-6.2937042e-03
-7.6155023e-03
-8.6988294e-03
-7.3691956e-03
-5.7899708e-03
-3.9026097e-03
-2.7751350e-03
-1.7579665e-03
1.1638022e-03
4.5236691e-03
7.9051078e-03
8.9392274e-03
7.7250208e-03
6.7440318e-03
5.2027444e-03
4.0848618e-03
2.8738453e-03
2.0546031e-03
2.2601091e-03
1.2867348e-03
1.0142714e-03
8.2405583e-04
5.8553105e-04
1.9403552e-03
2.2400781e-03
2.6491116e-03
3.9891335e-03
6.1793155e-03
9.7179792e-03
1.1243356e-02
1.0684520e-02
8.8140926e-03
6.9742388e-03
5.8601839e-03
3.2576684e-03
1.1310518e-03
-6.2419289e-04
-1.0918922e-03
1.3868345e-03
3.2100118e-03
4.2956973e-03
4.4732340e-03
3.9718908e-03
4.2594218e-03
3.8180767e-03
3.7170248e-03
3.3589612e-03
2.9513229e-03
4.5316788e-03
5.8382400e-03
5.8436368e-03
3.3899946e-03
4.5340394e-04
-1.0318328e-03
-3.7048950e-03
-5.8707577e-03
-7.7294653e-03
-8.8485572e-03
-7.1080239e-03
-5.8497672e-03
-6.1960813e-03
-8.2666100e-03
-1.0495780e-02
-1.1251486e-02
-1.2548538e-02
-1.3028109e-02
-1.3205496e-02
-1.2788352e-02
-9.7806166e-03
-7.3614536e-03
-6.3803608e-03
-7.2449062e-03
-9.1585986e-03
-9.8478247e-03
-1.1039941e-02
-1.2820740e-02
-1.6079638e-02
-1.9602772e-02
-1.9798165e-02
-1.7818159e-02
-1.3975412e-02
-1.0144156e-02
-6.9271027e-03
-2.7754444e-03
5.1943009e-04
3.6192112e-03
5.8649724e-03
6.7127169e-03
8.0215069e-03
9.0982941e-03
1.0068507e-02
9.2750132e-03
7.5304929e-03
8.5446513e-03
1.0582270e-02
1.2958037e-02
1.4655241e-02
1.5383254e-02
1.6816218e-02
1.6918340e-02
1.5677363e-02
1.2471768e-02
8.7526416e-03
7.1450894e-03
4.6507904e-03
2.2967086e-03
5.5378464e-04
-7.4372392e-04
-1.2141323e-04
-9.3132861e-04
-2.6234079e-03
-3.5251552e-03
-2.3225843e-03
1.5082565e-03
3.6043802e-03
4.6735410e-03
5.5627268e-03
6.6807440e-03
1.0191934e-02
1.3712834e-02
1.7471200e-02
2.1826250e-02
2.5899486e-02
2.9640032e-02
3.0234238e-02
2.8421146e-02
2.5811808e-02
2.3963599e-02
2.4455615e-02
2.4193847e-02
2.3216083e-02
2.1615390e-02
1.8353340e-02
1.2848656e-02
3.3403950e-03
-6.6200134e-03
-1.5720738e-02
-2.3134023e-02
-2.7127476e-02
-3.0705173e-02
-3.3529198e-02
-3.6020407e-02
-3.7674322e-02
-3.6139745e-02
-3.4507336e-02
-3.3811029e-02
-3.4419935e-02
-3.5663357e-02
-3.4719402e-02
-3.4201053e-02
-3.4904102e-02
-3.5582672e-02
-3.4925760e-02
-3.1619034e-02
-2.8571206e-02
-2.4739527e-02
-1.9046525e-02
-1.1755055e-02
-5.9160321e-05
1.3324844e-02
2.4454849e-02
3.1510896e-02
3.5954747e-02
4.0828812e-02
4.3443587e-02
4.3775439e-02
4.2662581e-02
4.0707706e-02
4.0553208e-02
4.1026575e-02
4.2518680e-02
4.4181022e-02
4.5321082e-02
4.7528020e-02
4.7926887e-02
4.6418000e-02
4.4239956e-02
4.2301305e-02
4.1705337e-02
3.9479369e-02
3.5781142e-02
2.9662239e-02
1.9861055e-02
7.7722887e-03
-7.6784018e-03
-2.2618563e-02
-3.4092200e-02
-4.1868352e-02
-4.5030819e-02
-4.7967950e-02
-5.1828706e-02
-5.5583097e-02
-5.8509487e-02
-5.8936991e-02
-5.9986434e-02
-6.1758098e-02
-6.3486206e-02
-6.6306640e-02
-6.9407399e-02
-7.3652039e-02
-7.8410743e-02
-8.2933994e-02
-8.6260659e-02
-8.6385183e-02
-8.4655616e-02
-8.0749941e-02
-7.3244892e-02
-5.9450319e-02
-3.6255902e-02
-1.0218449e-02
1.1615087e-02
2.7805040e-02
3.9040311e-02
4.7437500e-02
5.1256628e-02
5.1425750e-02
4.9692454e-02
4.6131306e-02
4.3422205e-02
4.0538306e-02
3.7139972e-02
3.3750941e-02
3.1277861e-02
3.1808518e-02
3.1607320e-02
2.9664205e-02
2.7777795e-02
2.6774767e-02
2.8314200e-02
2.9689423e-02
3.0221549e-02
2.9675256e-02
2.7452206e-02
2.6337329e-02
2.4639107e-02
2.1837191e-02
1.8410554e-02
1.4394308e-02
1.2050311e-02
1.0558559e-02
1.0879392e-02
1.1716407e-02
1.1188214e-02
1.1675536e-02
1.0847863e-02
8.1056333e-03
4.2366115e-03
-1.0642651e-03
-5.6187699e-03
-1.0749769e-02
-1.6562456e-02
-2.1763998e-02
-2.5152576e-02
-2.4944898e-02
-2.4263901e-02
-2.3373347e-02
-2.1994379e-02
-2.0712414e-02
-1.5291682e-02
-7.8024335e-03
-1.8292429e-03
2.7476237e-03
6.6072919e-03
1.1301046e-02
1.3783517e-02
1.4817802e-02
1.7227927e-02
1.9238890e-02
2.0097774e-02
1.8014966e-02
1.4927230e-02
1.3370213e-02
1.3166928e-02
1.5275021e-02
1.5857477e-02
1.4479674e-02
1.3245322e-02
1.1494033e-02
1.0023083e-02
6.9857481e-03
4.2148101e-03
3.4397078e-03
3.2313782e-03
4.1314151e-03
2.9676164e-03
3.3596842e-04
-2.2490235e-03
-5.5964340e-03
-7.7969006e-03
-1.1597838e-02
-1.6359568e-02
-1.8943183e-02
-2.0315252e-02
-2.0491266e-02
-2.1557313e-02
-2.3291083e-02
-2.5307145e-02
-2.7887330e-02
-2.7573007e-02
-2.6563423e-02
-2.6020245e-02
-2.4163289e-02
-2.2302561e-02
-1.9258936e-02
-1.5822273e-02
-1.2599134e-02
-8.7521742e-03
-3.4532098e-03
4.2897641e-03
9.7774690e-03
1.1595264e-02
1.1845917e-02
1.2067104e-02
1.4365986e-02
1.5971169e-02
1.7032095e-02
1.9368288e-02
2.2336686e-02
2.5960495e-02
2.7639373e-02
2.8855693e-02
3.1171886e-02
3.3265009e-02
3.6174334e-02
3.6977825e-02
3.5239276e-02
3.2490261e-02
2.9338210e-02
2.8820775e-02
2.8437411e-02
2.6373677e-02
2.2292710e-02
1.4748366e-02
6.1399676e-03
-3.1963865e-03
-1.1845576e-02
-1.8708968e-02
-2.3936685e-02
-2.5597493e-02
-2.6382324e-02
-2.6038519e-02
-2.2694641e-02
-1.8597462e-02
-1.3197548e-02
-7.9978708e-03
-3.8740802e-03
2.0984977e-04
3.4231893e-03
6.8414818e-03
9.0983678e-03
1.0157936e-02
1.0727912e-02
9.9901691e-03
9.1437436e-03
6.1095791e-03
1.7245754e-03
-2.3061962e-03
-6.9262107e-03
-1.0068579e-02
-1.2778157e-02
-1.4892026e-02
-1.5146805e-02
-1.5048837e-02
-1.4849689e-02
-1.6947465e-02
-1.9065215e-02
-1.8320873e-02
-1.7307778e-02
-1.7016653e-02
-1.9663884e-02
-2.4240617e-02
-2.8497570e-02
-3.1553144e-02
-3.2195001e-02
-3.5195624e-02
-4.0923242e-02
-4.5410928e-02
-4.7567056e-02
-4.5878059e-02
-4.2988395e-02
-3.9911086e-02
-3.5496046e-02
-2.9442856e-02
-2.0336160e-02
-1.1681472e-02
-4.1389043e-03
4.2302396e-03
1.2998320e-02
2.2164725e-02
2.7899305e-02
3.0853276e-02
3.3332052e-02
3.4762271e-02
3.6816584e-02
3.6344784e-02
3.3629755e-02
3.1732587e-02
3.0300506e-02
3.1212167e-02
3.2382712e-02
3.3109238e-02
3.4503823e-02
3.5619280e-02
3.6439072e-02
3.4019847e-02
2.9714740e-02
2.5810096e-02
2.1441318e-02
1.6841155e-02
9.2384614e-03
5.1679893e-04
-6.2078916e-03
-1.0861341e-02
-1.1422072e-02
-1.1402669e-02
-1.3261196e-02
-1.6379219e-02
-2.0695636e-02
-2.3564362e-02
-2.6031734e-02
-2.7737746e-02
-2.7533087e-02
-2.7140893e-02
-2.5663120e-02
-2.5317633e-02
-2.6560856e-02
-2.7129072e-02
-2.6812618e-02
-2.4070339e-02
-2.1469042e-02
-1.9350184e-02
-1.6007342e-02
-1.2924291e-02
-9.9103551e-03
-8.7159361e-03
-7.7026716e-03
-5.6010055e-03
-4.2644581e-03
-1.3522281e-03
2.5285136e-03
6.8298826e-03
1.1618780e-02
1.5559618e-02
1.8725803e-02
1.8493705e-02
1.6156894e-02
1.3514343e-02
9.6524176e-03
6.3580260e-03
2.2257778e-03
-1.9301821e-03
-4.5899809e-03
-7.0446227e-03
-7.7661943e-03
-7.5826835e-03
-6.8103622e-03
-5.4733186e-03
-3.3438792e-03
2.4801823e-03
8.9856585e-03
1.3511878e-02
1.5889115e-02
1.6914568e-02
1.9203017e-02
1.9697355e-02
1.8873849e-02
1.8682442e-02
1.6973125e-02
1.4675809e-02
1.1441306e-02
8.6235094e-03
7.3841073e-03
6.0884830e-03
5.3117581e-03
3.0245907e-03
-6.6624098e-04
-3.6376659e-03
-4.9865933e-03
-3.5466780e-03
-3.4977813e-03
-5.6471856e-03
-7.6124645e-03
-8.4513440e-03
-6.3445120e-03
-4.9034811e-03
-5.0657182e-03
-4.9793729e-03
-4.5352251e-03
-2.1858490e-03
9.8581131e-05
2.4567532e-03
5.7523519e-03
9.3108302e-03
1.4423008e-02
1.9186193e-02
2.3812056e-02
2.8265118e-02
3.1893610e-02
3.6284072e-02
3.8325904e-02
3.8192667e-02
3.8189217e-02
3.9043649e-02
4.1642198e-02
4.2504070e-02
4.1074883e-02
3.8158713e-02
3.4029551e-02
2.9876596e-02
2.3456002e-02
1.6810359e-02
1.1889588e-02
8.3525867e-03
7.5728835e-03
6.3202797e-03
3.7361359e-03
1.0127423e-03
-1.4211231e-03
-1.4226833e-03
-8.8965197e-04
-7.4775598e-04
-7.3688413e-04
-1.0360298e-05
3.2684256e-03
6.0387546e-03
7.9358527e-03
9.3306689e-03
1.0147297e-02
1.2936138e-02
1.5990349e-02
1.9078712e-02
2.1477237e-02
2.1411457e-02
1.9564956e-02
1.4886404e-02
1.1523057e-02
1.0731968e-02
9.5145244e-03
9.2199713e-03
8.5811416e-03
7.5861320e-03
5.9180369e-03
2.8566804e-03
-3.4434472e-04
-5.3055875e-03
-1.0357774e-02
-1.5276655e-02
-2.0697712e-02
-2.4749217e-02
-3.0489456e-02
-3.7166053e-02
-4.2227303e-02
-4.5568571e-02
-4.6952765e-02
-4.8679581e-02
-4.9817371e-02
-5.0146947e-02
-4.7002102e-02
-3.6545613e-02
-2.5181400e-02
-1.7248944e-02
-1.2641576e-02
-1.0491388e-02
-9.2957631e-03
-1.1002758e-02
-1.5211645e-02
-2.1006985e-02
-2.6538286e-02
-2.9355457e-02
-3.1549298e-02
-3.3329603e-02
-3.4333680e-02
-3.2958733e-02
-2.8052278e-02
-2.3789494e-02
-2.0675372e-02
-1.8815983e-02
-1.7918985e-02
-1.5034977e-02
-1.1703015e-02
-9.0122092e-03
-8.7311368e-03
-1.0985469e-02
-1.3098161e-02
-1.5628757e-02
-1.7281727e-02
-1.8619344e-02
-1.9217968e-02
-1.6460891e-02
-1.3203645e-02
-1.1262115e-02
-1.2097867e-02
-1.3781520e-02
-1.2258960e-02
-9.9350927e-03
-8.3012082e-03
-8.1440016e-03
-7.7557220e-03
-5.3380734e-03
-4.4153276e-03
-4.2104684e-03
-4.6697816e-03
-5.0189680e-03
-2.0670751e-03
1.3653826e-03
3.7872034e-03
4.5585440e-03
4.9705931e-03
6.7651825e-03
7.3171736e-03
7.4907640e-03
8.3595897e-03
9.9112906e-03
1.1814561e-02
1.2812664e-02
1.4727205e-02
1.6601706e-02
1.7974556e-02
2.0217589e-02
2.2821553e-02
2.7238194e-02
3.0911333e-02
3.3411658e-02
3.7668519e-02
4.2590149e-02
4.7637038e-02
4.9604157e-02
4.9337217e-02
4.9950032e-02
4.8701004e-02
4.5101487e-02
3.8561581e-02
3.0521106e-02
2.1217165e-02
8.7147751e-03
-1.2816256e-03
-7.8707114e-03
-1.3196987e-02
-1.6964933e-02
-2.0755720e-02
-2.3422056e-02
-2.6724444e-02
-3.0788665e-02
-3.3827675e-02
-3.6590018e-02
-3.8523777e-02
-4.2360289e-02
-4.6884869e-02
-4.8996948e-02
-4.9689924e-02
-4.9102938e-02
-4.9201189e-02
-4.9386151e-02
-4.7630992e-02
-4.3822190e-02
-3.6653310e-02
-2.7012051e-02
-1.4576346e-02
1.4655187e-03
1.8942785e-02
3.4264910e-02
4.2706418e-02
4.6362376e-02
4.8051417e-02
4.8175887e-02
4.9564084e-02
4.9371399e-02
4.7007905e-02
4.4084527e-02
4.0624101e-02
3.9251096e-02
3.6971773e-02
3.2820345e-02
2.8751488e-02
2.4916595e-02
2.3574845e-02
2.3053911e-02
2.2395446e-02
2.0774265e-02
1.7293844e-02
1.4474972e-02
1.0343572e-02
4.3240622e-03
-2.7617283e-03
-9.6608611e-03
-1.3229536e-02
-1.5529613e-02
-1.6101310e-02
-1.4307196e-02
-1.1471981e-02
-6.4202433e-03
-1.0720523e-03
4.1248361e-03
8.5848541e-03
1.1465512e-02
1.4680188e-02
1.7216020e-02
1.8867250e-02
1.8656064e-02
1.6964017e-02
1.7333477e-02
1.8460170e-02
1.9459796e-02
1.9692905e-02
1.9764805e-02
2.1074693e-02
1.9956369e-02
1.5070676e-02
5.7735346e-03
-4.8341985e-03
-1.0964121e-02
-1.4378420e-02
-1.6325919e-02
-1.9460044e-02
-2.4806215e-02
-2.8159316e-02
-3.0340036e-02
-3.1832327e-02
-3.3797049e-02
-3.5808517e-02
-3.4422563e-02
-3.2084646e-02
-2.9708201e-02
-2.8199540e-02
-2.7847591e-02
-2.6114678e-02
-2.4886317e-02
-2.4947745e-02
-2.6501457e-02
-2.7716507e-02
-2.6024031e-02
-2.3066448e-02
-1.8660784e-02
-1.3482792e-02
-7.4169219e-03
-7.4183287e-04
3.2394633e-03
5.0353979e-03
4.9629988e-03
4.6610815e-03
5.6970079e-03
6.8977788e-03
1.0153212e-02
1.2823527e-02
1.2711576e-02
1.1191158e-02
7.8032336e-03
5.2155049e-03
2.5385869e-03
-7.7345447e-04
-2.5995212e-03
-4.1596370e-03
-5.2352988e-03
-7.3048348e-03
-8.7718964e-03
-6.9752616e-03
-4.4350503e-03
-1.4617605e-03
-6.5325451e-04
-1.8475704e-03
-1.5850203e-03
-1.2847934e-03
-6.2532126e-04
4.1114127e-04
1.8436686e-03
3.7307818e-03
5.3159860e-03
8.0854126e-03
1.0646841e-02
1.3195277e-02
1.6390591e-02
1.9880916e-02
2.5358890e-02
2.9534799e-02
3.0911799e-02
3.0727178e-02
2.9774214e-02
2.9976798e-02
2.9077914e-02
2.6761489e-02
2.4022410e-02
2.0903942e-02
1.7717268e-02
9.9907683e-03
-1.0252501e-03
-1.0097609e-02
-1.6186916e-02
-1.8744116e-02
-2.1181063e-02
-2.3970666e-02
-2.5120184e-02
-2.5475743e-02
-2.5364678e-02
-2.7443017e-02
-3.1636033e-02
-3.6353553e-02
-4.0301572e-02
-4.1616703e-02
-4.2809497e-02
-4.3900422e-02
-4.3788093e-02
-4.2162423e-02
-3.7696546e-02
-3.2878934e-02
-2.8050239e-02
-2.2660579e-02
-1.6819399e-02
-8.2836401e-03
2.5991750e-03
1.3871987e-02
2.2370818e-02
2.9009060e-02
3.5839468e-02
3.9249873e-02
3.8997411e-02
3.5022348e-02
2.9699660e-02
2.7601640e-02
2.5526160e-02
2.2333172e-02
1.8302713e-02
1.4086891e-02
1.1623845e-02
9.0200674e-03
6.7024424e-03
3.5705562e-03
2.3401901e-04
-5.8298488e-04
-1.8409404e-03
-4.2599063e-03
-8.1140535e-03
-1.2182400e-02
-1.4825124e-02
-1.8272746e-02
-2.2029290e-02
-2.7558645e-02
-3.3906345e-02
-3.6497814e-02
-3.5312268e-02
-3.1369778e-02
-2.8269621e-02
-2.6233285e-02
-2.2009120e-02
-1.5817926e-02
-7.8041987e-03
-7.5636965e-04
5.3127520e-03
1.1566842e-02
1.6967635e-02
2.3781743e-02
2.9271399e-02
3.1513893e-02
3.3329137e-02
3.6026863e-02
3.9850204e-02
4.0725564e-02
3.8461646e-02
3.5208812e-02
3.0397780e-02
2.6243380e-02
2.1276063e-02
1.4529289e-02
7.5768353e-03
1.6696429e-03
-1.5520760e-03
-5.9503564e-03
-1.2750279e-02
-2.0541082e-02
-2.8038584e-02
-3.1612906e-02
-3.3306078e-02
-3.4656005e-02
-3.5490318e-02
-3.6625391e-02
-3.6711807e-02
-3.7247828e-02
-3.7980998e-02
-3.8600528e-02
-3.8605188e-02
-3.5499143e-02
-3.2871345e-02
-3.0793484e-02
-2.6352633e-02
-1.8084261e-02
-5.1572261e-03
6.8245484e-03
1.5558606e-02
2.1404556e-02
2.4927776e-02
2.7931924e-02
2.7885853e-02
2.5639692e-02
2.2867551e-02
2.0282527e-02
1.9708231e-02
1.9362829e-02
1.9627880e-02
1.9829067e-02
2.0054672e-02
2.2305619e-02
2.3619905e-02
2.4033801e-02
2.2807671e-02
1.9152711e-02
1.5248518e-02
1.0606545e-02
6.8874430e-03
2.8913989e-03
-1.1750408e-03
-2.3098809e-03
-3.0711306e-03
-3.3226327e-03
-4.0429079e-03
-4.9697988e-03
-2.8361383e-03
1.7227638e-04
3.3442259e-03
5.6520642e-03
7.8120310e-03
1.1821663e-02
1.5331683e-02
1.8195304e-02
1.8023684e-02
1.5223448e-02
1.4487085e-02
1.5362938e-02
1.6386385e-02
1.5790017e-02
1.4717061e-02
1.4211055e-02
1.2566567e-02
1.0275961e-02
5.1362806e-03
-2.1029390e-03
-7.8747730e-03
-1.1729528e-02
-1.2432756e-02
-1.1382296e-02
-9.7799071e-03
-8.1731335e-03
-7.0407723e-03
-5.3382389e-03
-5.6686392e-03
-7.2530925e-03
-8.1057867e-03
-8.2951969e-03
-6.5124951e-03
-5.3974948e-03
-4.6521789e-03
-2.5952217e-03
5.7210374e-04
5.3945276e-03
9.1012395e-03
1.1766404e-02
1.4144679e-02
1.6393726e-02
1.9017672e-02
1.8393024e-02
1.4308979e-02
8.4959364e-03
3.3560777e-03
7.3150939e-04
-2.2115954e-03
-4.8668346e-03
-7.5556201e-03
-1.0351079e-02
-1.0771933e-02
-1.0502667e-02
-9.3747652e-03
-8.1077184e-03
-6.6856640e-03
-3.7544213e-03
-1.2594002e-03
1.1824560e-03
2.1761880e-03
2.6641358e-03
5.1215005e-03
6.3559502e-03
6.0894848e-03
3.6253633e-03
-2.6356191e-04
-3.2376162e-03
-7.2699273e-03
-1.2255602e-02
-1.8304937e-02
-2.2273421e-02
-2.2494107e-02
-2.2714068e-02
-2.2685419e-02
-2.3871592e-02
-2.5410448e-02
-2.4000904e-02
-2.0432155e-02
-1.4780830e-02
-9.7822535e-03
-5.8211423e-03
-1.3009356e-03
1.6780197e-03
2.8595569e-03
1.5494284e-03
1.2218308e-04
8.2521543e-04
1.9823197e-03
4.2336503e-03
5.6354931e-03
5.5732573e-03
5.7130387e-03
6.4853610e-03
9.0917679e-03
1.1190232e-02
1.1266974e-02
9.9478201e-03
9.0205663e-03
9.6253224e-03
7.7908947e-03
4.5104376e-03
1.8550536e-03
-4.9588951e-04
-1.1307829e-03
-3.5114887e-03
-7.7784412e-03
-1.1076603e-02
-1.1809620e-02
-8.8904720e-03
-5.9560096e-03
-3.5770382e-03
-2.0789683e-03
-1.4555460e-03
2.2620775e-04
3.0408419e-04
-4.8124138e-04
-1.5896563e-03
-3.2820887e-03
-3.4482857e-03
-3.7664995e-03
-3.3969502e-03
-2.9741058e-03
-3.6800070e-03
-3.2845676e-03
-3.3065648e-03
-3.3813750e-03
-4.2350355e-03
-6.4814086e-03
-7.3351161e-03
-7.0117877e-03
-6.0806511e-03
-8.0549420e-03
-1.2093261e-02
-1.3577585e-02
-1.4023521e-02
-1.3581962e-02
-1.3487378e-02
-1.3747489e-02
-1.1878684e-02
-8.3779935e-03
-3.6081605e-03
-2.1353732e-04
2.3858353e-03
6.8310411e-03
1.2186649e-02
1.7016617e-02
1.7559394e-02
1.5642771e-02
1.4742789e-02
1.4080871e-02
1.5196288e-02
1.6285878e-02
1.6498929e-02
1.6309998e-02
1.5299493e-02
1.5488813e-02
1.4214336e-02
1.1034411e-02
8.0710497e-03
5.8699703e-03
6.0953174e-03
5.5222753e-03
3.9684667e-03
4.0889132e-03
5.8591246e-03
9.2500740e-03
1.0029209e-02
7.0566521e-03
1.9713385e-03
-4.2272900e-03
-9.1377553e-03
-1.3525880e-02
-1.6648176e-02
-1.8624390e-02
-1.9403852e-02
-1.6052241e-02
-1.1486718e-02
-8.7202457e-03
-8.9400575e-03
-1.1178251e-02
-1.2253084e-02
-1.3768136e-02
-1.5601384e-02
-1.6917033e-02
-1.7543139e-02
-1.6206325e-02
-1.4869891e-02
-1.3907591e-02
-1.4321322e-02
-1.4577108e-02
-1.1147494e-02
-6.2744007e-03
2.4601278e-04
7.8912731e-03
1.6018614e-02
2.4697186e-02
3.0128846e-02
3.2915033e-02
3.3551781e-02
3.3027247e-02
3.3860815e-02
3.3836648e-02
3.2978970e-02
3.1055062e-02
2.8014081e-02
2.5225608e-02
2.2221447e-02
1.9826416e-02
1.5121776e-02
8.3268577e-03
3.3680184e-03
-1.7360786e-04
-1.1815136e-03
-1.1492138e-03
-1.8469934e-03
-3.0556968e-03
-5.1832976e-03
-6.4701467e-03
-9.3803773e-03
-1.3892961e-02
-1.6770739e-02
-1.7802586e-02
-1.6598126e-02
-1.6070827e-02
-1.5691728e-02
-1.3303298e-02
-9.9185156e-03
-5.5018366e-03
-3.6321668e-03
-3.9225832e-03
-2.5942184e-03
-2.2359727e-04
2.1014519e-03
2.4453342e-03
2.2898176e-03
1.5342822e-03
-1.0854508e-03
-2.2819995e-03
-3.6783505e-03
-5.0305560e-03
-3.8494341e-03
-1.3980757e-03
1.4904483e-03
2.4343407e-03
