3.0005236e-03
6.2745109e-02
9.9805524e-02
1.2488873e-01
1.4681474e-01
1.7528839e-01
2.0213780e-01
2.0460590e-01
1.8341308e-01
1.4401328e-01
9.6536270e-02
3.7030922e-02
-4.9786165e-02
-1.5804896e-01
-2.7934561e-01
-3.9631101e-01
-5.0228833e-01
-6.0212534e-01
-6.8671033e-01
-7.5455860e-01
-7.9770637e-01
-8.1570849e-01
-8.1768054e-01
-7.9794520e-01
-7.5512951e-01
-6.8628865e-01
-6.0267995e-01
-5.1403827e-01
-4.0903112e-01
-2.8699482e-01
-1.4046510e-01
2.9530199e-02
2.0969516e-01
3.9342536e-01
5.6154211e-01
7.0764262e-01
8.2510293e-01
9.0095375e-01
9.3911008e-01
9.4331165e-01
9.3155055e-01
9.1363448e-01
8.8486173e-01
8.4850489e-01
7.9899158e-01
7.3896513e-01
6.6540109e-01
5.6727747e-01
4.3909677e-01
2.6232807e-01
5.9865156e-02
-1.1298864e-01
-2.3707625e-01
-3.2040489e-01
-3.7821680e-01
-4.1293015e-01
-4.2864127e-01
-4.3060700e-01
-4.2077130e-01
-4.0951091e-01
-3.9402764e-01
-3.7900242e-01
-3.6942776e-01
-3.6251191e-01
-3.6247673e-01
-3.6249779e-01
-3.6685304e-01
-3.7804292e-01
-3.8842439e-01
-3.9812704e-01
-3.9615157e-01
-3.8165066e-01
-3.5050728e-01
-2.8775993e-01
-1.8578775e-01
-5.2647864e-02
6.4132582e-02
1.4337710e-01
1.9819620e-01
2.3432522e-01
2.6880966e-01
3.0613576e-01
3.4704765e-01
3.9431182e-01
4.4476025e-01
5.0786370e-01
5.7941150e-01
6.5318247e-01
7.2777122e-01
7.9649773e-01
8.6535355e-01
9.3017101e-01
9.8658780e-01
1.0312698e+00
1.0567336e+00
1.0678442e+00
1.0542704e+00
1.0016911e+00
8.8940298e-01
6.8936592e-01
4.3857890e-01
2.1467511e-01
5.0665732e-02
-6.9909068e-02
-1.6388490e-01
-2.2737483e-01
-2.6647698e-01
-2.8632605e-01
-2.9598259e-01
-3.0759714e-01
-3.1385041e-01
-3.1437149e-01
-3.0583275e-01
-2.9340134e-01
-2.8963804e-01
-2.8766838e-01
-2.8576395e-01
-2.7765531e-01
-2.6353574e-01
-2.5135725e-01
-2.3278868e-01
-2.0531562e-01
-1.6502208e-01
-1.2294179e-01
-1.0379357e-01
-1.0509374e-01
-1.1384703e-01
-1.1791040e-01
-1.2051130e-01
-1.3200467e-01
-1.4953422e-01
-1.7238290e-01
-1.9111018e-01
-2.0743716e-01
-2.3342010e-01
-2.7060452e-01
-3.2072106e-01
-3.6661303e-01
-3.9633208e-01
-4.1153560e-01
-4.1125758e-01
-4.0025924e-01
-3.7101541e-01
-3.2665726e-01
-2.8032070e-01
-2.3943730e-01
-2.1788367e-01
-2.1759366e-01
-2.5133622e-01
-3.4118010e-01
-4.6216115e-01
-5.5518306e-01
-5.9042940e-01
-5.8443769e-01
-5.5518741e-01
-5.1477546e-01
-4.8042110e-01
-4.4793216e-01
-4.1461952e-01
-3.8306903e-01
-3.5383332e-01
-3.3588565e-01
-3.1877893e-01
-2.9039402e-01
-2.4369531e-01
-1.7580559e-01
-9.5006028e-02
2.5962990e-03
1.1353594e-01
2.3253246e-01
3.5542246e-01
4.7086860e-01
5.8527830e-01
7.0607662e-01
8.4988949e-01
9.9763068e-01
1.0809118e+00
1.0870993e+00
1.0410525e+00
9.6827555e-01
8.8658620e-01
7.9711201e-01
7.0790720e-01
6.1885065e-01
5.3816205e-01
4.7400850e-01
4.2004153e-01
3.7495555e-01
3.2595061e-01
2.7088406e-01
2.1296400e-01
1.4911341e-01
8.6370257e-02
1.5664695e-02
-6.4117416e-02
-1.4235842e-01
-2.1038239e-01
-2.5434613e-01
-2.8115832e-01
-2.9463507e-01
-2.9018210e-01
-2.6464602e-01
-2.1195545e-01
-1.4265582e-01
-6.0127558e-02
2.9036769e-02
1.0564544e-01
1.6091096e-01
1.8244454e-01
1.7205970e-01
1.3809677e-01
8.9165954e-02
4.4099018e-02
6.1268303e-03
-1.9470104e-02
-3.1161510e-02
-3.2956698e-02
-2.0558353e-02
-1.8315684e-03
1.9932625e-02
3.5877399e-02
3.4367814e-02
1.5256265e-02
-3.2224244e-02
-1.1140228e-01
-2.0758810e-01
-2.8564201e-01
-3.2236272e-01
-3.2843148e-01
-3.0757881e-01
-2.7190736e-01
-2.3527324e-01
-1.9681588e-01
-1.6434719e-01
-1.3484529e-01
-1.1124587e-01
-1.0042730e-01
-9.5310199e-02
-9.4384525e-02
-8.6219431e-02
-7.0176932e-02
-5.4250094e-02
-3.5106921e-02
-1.3768690e-02
1.7910946e-02
5.5837534e-02
8.7472751e-02
1.0984010e-01
1.1661372e-01
1.1172967e-01
9.8905879e-02
8.8397475e-02
8.7047656e-02
8.6139745e-02
9.1610708e-02
1.0067571e-01
1.0477987e-01
9.9179729e-02
7.7210114e-02
5.0785512e-02
2.3159113e-02
-8.0162902e-03
-4.4243103e-02
-9.0015768e-02
-1.3090700e-01
-1.6240424e-01
-1.8683926e-01
-2.0750985e-01
-2.3011110e-01
-2.4102698e-01
-2.3656830e-01
-2.1632317e-01
-1.8183212e-01
-1.4226384e-01
-8.6345678e-02
-1.9493076e-02
4.0360403e-02
8.3795468e-02
1.0265921e-01
1.0818798e-01
1.0635774e-01
9.9945243e-02
8.7134320e-02
5.7204913e-02
1.9444737e-02
-1.8970974e-02
-5.0567960e-02
-7.5033515e-02
-1.0254276e-01
-1.2570232e-01
-1.4236804e-01
-1.4871391e-01
-1.4491340e-01
-1.4069973e-01
-1.3307506e-01
-1.2214690e-01
-9.9071839e-02
-6.2749563e-02
-2.6863171e-02
7.7897490e-03
3.7798276e-02
7.0457186e-02
1.0809241e-01
1.3941144e-01
1.6283847e-01
1.7322192e-01
1.7825667e-01
1.7969129e-01
1.6855227e-01
1.4961370e-01
1.2315683e-01
1.0081354e-01
8.6926915e-02
7.2350330e-02
5.8281999e-02
4.0341176e-02
2.7987630e-02
2.8684831e-02
3.8779342e-02
5.9744706e-02
8.2358577e-02
1.0930188e-01
1.3974044e-01
1.6336733e-01
1.7692572e-01
1.7492319e-01
1.7310654e-01
1.7781815e-01
1.7968227e-01
1.7827069e-01
1.6561025e-01
1.4497390e-01
1.1823717e-01
8.5916949e-02
5.7111232e-02
2.8828701e-02
6.7199196e-03
-7.1490280e-03
-1.4869885e-02
-1.4060240e-02
-1.1786140e-02
-3.3373865e-03
1.0808712e-02
2.7360120e-02
4.8046703e-02
6.5414409e-02
8.2328302e-02
9.3246142e-02
9.2631348e-02
8.3424522e-02
6.5307856e-02
5.3840154e-02
4.7509664e-02
3.7060753e-02
2.3792399e-02
1.9677409e-03
-2.2618375e-02
-5.1709573e-02
-8.6654974e-02
-1.2120157e-01
-1.5640273e-01
-1.8149829e-01
-1.9762010e-01
-2.0943351e-01
-2.1634456e-01
-2.2404631e-01
-2.2284176e-01
-2.1326811e-01
-2.0081047e-01
-1.8582831e-01
-1.7345433e-01
-1.5541857e-01
-1.3401794e-01
-1.1414088e-01
-9.5772944e-02
-8.2494398e-02
-6.4177456e-02
-4.1791713e-02
-1.9879361e-02
-3.8061231e-03
-4.0491313e-03
-1.4012930e-02
-3.1934470e-02
-5.4791366e-02
-8.3134633e-02
-1.2255974e-01
-1.6076621e-01
-1.9406501e-01
-2.2014125e-01
-2.4193147e-01
-2.6717847e-01
-2.8497064e-01
-2.9307633e-01
-2.8857581e-01
-2.7365442e-01
-2.5683770e-01
-2.2851572e-01
-1.8777527e-01
-1.2951452e-01
-5.0822446e-02
2.9613990e-02
9.8003893e-02
1.4916915e-01
1.9463926e-01
2.3654485e-01
2.6435543e-01
2.8534325e-01
3.0109610e-01
3.1693209e-01
3.3267104e-01
3.3698094e-01
3.3529940e-01
3.3107230e-01
3.3237972e-01
3.3827046e-01
3.3548328e-01
3.2371566e-01
2.9854781e-01
2.6399457e-01
2.2055183e-01
1.6181340e-01
9.5253000e-02
2.6323867e-02
-2.9295577e-02
-6.4904735e-02
-9.1526840e-02
-1.1669421e-01
-1.4625982e-01
-1.6730538e-01
-1.7602355e-01
-1.8161174e-01
-1.8437569e-01
-1.9059804e-01
-1.9299226e-01
-1.8799699e-01
-1.8185940e-01
-1.7568395e-01
-1.7891264e-01
-1.8297908e-01
-1.8087750e-01
-1.7830616e-01
-1.7587182e-01
-1.7994250e-01
-1.8051110e-01
-1.7081742e-01
-1.5414074e-01
-1.3008672e-01
-1.0659424e-01
-7.4905738e-02
-2.8372103e-02
2.6272482e-02
8.2019471e-02
1.2750445e-01
1.6708341e-01
2.0115242e-01
2.2630467e-01
2.4364696e-01
2.4191998e-01
2.2111891e-01
1.8306043e-01
1.3194855e-01
7.6806490e-02
1.6681360e-02
-3.8215332e-02
-8.3244484e-02
-1.1628291e-01
-1.3380317e-01
-1.4258444e-01
-1.3817304e-01
-1.2372607e-01
-1.0294507e-01
-7.4484414e-02
-4.5168780e-02
-1.1197254e-02
2.1275435e-02
4.7899504e-02
7.2833202e-02
9.2236630e-02
1.1394989e-01
1.3652472e-01
1.5883565e-01
1.8464090e-01
2.0765014e-01
2.3354297e-01
2.5843809e-01
2.7966408e-01
3.0093147e-01
3.1688008e-01
3.3490329e-01
3.5346380e-01
3.6924854e-01
3.8244554e-01
3.8688385e-01
3.8867174e-01
3.8283114e-01
3.6238728e-01
3.2348280e-01
2.6010368e-01
1.8269788e-01
9.1985274e-02
-5.9549162e-03
-9.7210049e-02
-1.8030338e-01
-2.4734698e-01
-3.0016277e-01
-3.4046763e-01
-3.7168204e-01
-4.0221185e-01
-4.2238881e-01
-4.3255685e-01
-4.3555466e-01
-4.3725496e-01
-4.4747356e-01
-4.5579407e-01
-4.5937667e-01
-4.5691289e-01
-4.5211150e-01
-4.5248611e-01
-4.4545402e-01
-4.2724048e-01
-3.9407359e-01
-3.4746719e-01
-2.9484117e-01
-2.2467782e-01
-1.3370325e-01
-2.6408488e-02
7.5900214e-02
1.5144258e-01
2.0855834e-01
2.5114042e-01
2.8316803e-01
2.9987737e-01
2.8830167e-01
2.5712849e-01
2.1259748e-01
1.6424635e-01
1.1517550e-01
5.7845778e-02
-6.6097602e-04
-5.5504831e-02
-9.5657391e-02
-1.1867992e-01
-1.3492450e-01
-1.4378143e-01
-1.4663762e-01
-1.3475228e-01
-1.0755781e-01
-7.6564403e-02
-4.1594736e-02
-4.5142721e-03
3.9124110e-02
8.1468564e-02
1.0961002e-01
1.2635543e-01
1.2966770e-01
1.3159622e-01
1.3752556e-01
1.4008439e-01
1.4122243e-01
1.3612419e-01
1.3440216e-01
1.4233713e-01
1.5464837e-01
1.7178743e-01
1.8234157e-01
1.8857577e-01
1.9191852e-01
1.8414868e-01
1.6643052e-01
1.3264647e-01
9.1947614e-02
5.2816081e-02
1.3045298e-02
-2.2436400e-02
-5.7779947e-02
-8.6592275e-02
-1.0458594e-01
-1.1368276e-01
-1.0820788e-01
-9.5414218e-02
-7.6138684e-02
-5.2227050e-02
-2.7910956e-02
-5.0602478e-04
2.2121669e-02
4.2351998e-02
5.9713790e-02
7.1199605e-02
8.2198899e-02
8.8210801e-02
9.5123743e-02
1.0475136e-01
1.1588320e-01
1.3372366e-01
1.5280184e-01
1.7764414e-01
2.0257603e-01
2.1546050e-01
2.1320291e-01
1.8167469e-01
1.2942661e-01
7.4188189e-02
1.9919295e-02
-3.1523717e-02
-8.3983065e-02
-1.2921440e-01
-1.6823232e-01
-2.0481916e-01
-2.3272292e-01
-2.5513631e-01
-2.6429827e-01
-2.6150868e-01
-2.5390347e-01
-2.4021555e-01
-2.2487502e-01
-2.0066201e-01
-1.7074393e-01
-1.4362937e-01
-1.1903404e-01
-1.0133861e-01
-8.2447868e-02
-6.2761264e-02
-4.7173387e-02
-3.4201882e-02
-2.6474700e-02
-1.3805469e-02
3.3222475e-03
1.9609834e-02
3.6145773e-02
5.1347831e-02
7.6997556e-02
1.1334495e-01
1.5563279e-01
1.9996229e-01
2.3752719e-01
2.7828549e-01
3.2181048e-01
3.6229819e-01
3.9618647e-01
4.1392526e-01
4.2297574e-01
4.2133546e-01
4.0452513e-01
3.7314075e-01
3.2214593e-01
2.6329900e-01
1.9916903e-01
1.2732247e-01
4.4661172e-02
-6.2398608e-02
-1.7493444e-01
-2.6429584e-01
-3.2022710e-01
-3.4939088e-01
-3.6790610e-01
-3.7247130e-01
-3.6412054e-01
-3.4547179e-01
-3.2094034e-01
-3.0403175e-01
-2.8910277e-01
-2.7495201e-01
-2.5977050e-01
-2.4172547e-01
-2.2900184e-01
-2.1519981e-01
-1.9995768e-01
-1.8103901e-01
-1.5734247e-01
-1.3856224e-01
-1.1902004e-01
-9.7640427e-02
-7.0435028e-02
-3.5805904e-02
-3.9125015e-03
2.8397875e-02
5.8141923e-02
8.7329917e-02
1.1642959e-01
1.3633898e-01
1.5183572e-01
1.5846542e-01
1.5762921e-01
1.5025273e-01
1.2692050e-01
9.2936874e-02
4.4903014e-02
-1.2138562e-02
-6.9369462e-02
-1.2982391e-01
-1.8652900e-01
-2.4283397e-01
-2.9358935e-01
-3.3024104e-01
-3.5618847e-01
-3.6400471e-01
-3.5650453e-01
-3.3067198e-01
-2.7916095e-01
-2.0179940e-01
-1.0369622e-01
-1.7962787e-02
4.4641580e-02
9.2517595e-02
1.2474584e-01
1.5176254e-01
1.7303634e-01
1.8989133e-01
2.0387440e-01
2.1122102e-01
2.2116715e-01
2.3317021e-01
2.4931163e-01
2.6934584e-01
2.8734625e-01
3.1072930e-01
3.3785796e-01
3.7052101e-01
4.0445486e-01
4.2838309e-01
4.4691303e-01
4.5512479e-01
4.4936106e-01
4.1805135e-01
3.4427131e-01
2.4950948e-01
1.6611795e-01
1.0853327e-01
6.4129594e-02
1.6663716e-02
-2.8268422e-02
-7.1435846e-02
-1.0684392e-01
-1.3329065e-01
-1.6091079e-01
-1.8387913e-01
-2.0137979e-01
-2.0732123e-01
-2.0300945e-01
-2.0096458e-01
-1.9798171e-01
-1.9393334e-01
-1.8098397e-01
-1.6075322e-01
-1.4890931e-01
-1.4318080e-01
-1.4057723e-01
-1.3225338e-01
-1.2017129e-01
-1.1879320e-01
-1.2308721e-01
-1.2545991e-01
-1.1561203e-01
-9.4845713e-02
-7.4660564e-02
-5.6141564e-02
-4.3510634e-02
-2.8987912e-02
-1.1056899e-02
7.2457306e-04
5.8998833e-03
1.4840499e-03
-1.3981246e-03
-1.3159992e-03
-1.0875614e-02
-3.2965025e-02
-7.2667598e-02
-1.1817122e-01
-1.6306367e-01
-2.1113384e-01
-2.5473568e-01
-2.9277745e-01
-3.1084898e-01
-2.9776954e-01
-2.5241804e-01
-1.8360191e-01
-1.2678980e-01
-8.5042611e-02
-4.5879081e-02
-1.0258142e-02
2.3240256e-02
4.4773008e-02
6.1261081e-02
8.0218378e-02
9.8353860e-02
1.1896558e-01
1.3545378e-01
1.5161886e-01
1.6973440e-01
1.8736915e-01
2.0990355e-01
2.3011311e-01
2.5027112e-01
2.7133406e-01
2.8962211e-01
3.0838169e-01
3.1850800e-01
3.1949697e-01
3.0852587e-01
2.7880162e-01
2.4028815e-01
2.0192140e-01
1.7051686e-01
1.3878803e-01
9.9314148e-02
5.6512862e-02
8.4204378e-03
-3.7852327e-02
-8.3340461e-02
-1.2935774e-01
-1.6603107e-01
-1.9476792e-01
-2.1023870e-01
-2.1759444e-01
-2.2362595e-01
-2.2283892e-01
-2.2099475e-01
-2.1448333e-01
-2.0628045e-01
-2.0167182e-01
-1.9438223e-01
-1.8751226e-01
-1.7401075e-01
-1.5520255e-01
-1.3905715e-01
-1.2343535e-01
-1.1157793e-01
-9.4454543e-02
-7.3098299e-02
-5.6156565e-02
-4.0752503e-02
-2.8061268e-02
-8.5167280e-03
1.6903554e-02
3.8836690e-02
5.8051196e-02
7.2732965e-02
9.0923867e-02
1.1085777e-01
1.2385192e-01
1.2693143e-01
1.1624124e-01
1.0333464e-01
8.9748955e-02
7.0935937e-02
4.6371325e-02
1.2080850e-02
-1.5749846e-02
-2.7267992e-02
-2.1428226e-02
-6.8788774e-03
-5.1581648e-03
-7.0341969e-03
-3.6111035e-03
2.8063112e-03
8.5042622e-03
4.3322402e-03
3.6339301e-03
1.1732877e-02
2.6523458e-02
4.8514110e-02
6.7644551e-02
9.0501951e-02
1.1854790e-01
1.4803696e-01
1.7696202e-01
1.9387346e-01
2.0588494e-01
2.1742768e-01
2.2784502e-01
2.3316266e-01
2.1756988e-01
1.8654664e-01
1.4235187e-01
7.8350520e-02
3.8596469e-03
-6.2033766e-02
-1.0181148e-01
-1.2022501e-01
-1.2270167e-01
-1.1286589e-01
-1.0483330e-01
-1.0033175e-01
-1.0318559e-01
-1.1325492e-01
-1.2989412e-01
-1.6343299e-01
-2.0845555e-01
-2.5929937e-01
-3.0718468e-01
-3.4622483e-01
-3.8354352e-01
-4.1335916e-01
-4.3587093e-01
-4.4751946e-01
-4.4202386e-01
-4.2430393e-01
-3.8566454e-01
-3.2481372e-01
-2.3790569e-01
-1.3298237e-01
-4.3789874e-02
2.3781292e-02
7.0347328e-02
1.0097917e-01
1.2474533e-01
1.3854115e-01
1.5065787e-01
1.5909260e-01
1.6312060e-01
1.6855813e-01
1.7238729e-01
1.8146253e-01
1.9322828e-01
2.0463333e-01
2.1634492e-01
2.2538673e-01
2.4239466e-01
2.6324072e-01
2.8042315e-01
2.9136556e-01
2.8821974e-01
2.7624892e-01
2.4930338e-01
2.0108607e-01
1.3885669e-01
7.3572724e-02
2.1767793e-02
-1.8091351e-02
-4.7946163e-02
-7.0191087e-02
-9.1567482e-02
-1.0129065e-01
-9.8156176e-02
-8.2380827e-02
-5.9635108e-02
-4.1843880e-02
-1.8623674e-02
1.2423568e-02
5.0199950e-02
8.8619214e-02
1.1592985e-01
1.4079876e-01
1.6299602e-01
1.8082612e-01
1.9024634e-01
1.8112939e-01
1.6160251e-01
1.3069200e-01
8.7886485e-02
3.9303319e-02
-9.1963473e-03
-4.2224119e-02
-5.8430721e-02
-5.6723115e-02
-4.4152133e-02
-4.0361775e-02
-4.4008293e-02
-5.5802569e-02
-7.4341999e-02
-1.0119246e-01
-1.4748761e-01
-2.0343986e-01
-2.6102821e-01
-3.1182421e-01
-3.5303829e-01
-3.9404585e-01
-4.3026352e-01
-4.5993578e-01
-4.7425033e-01
-4.6780520e-01
-4.4783060e-01
-4.1035543e-01
-3.5429747e-01
-2.6884586e-01
-1.6080212e-01
-6.2757028e-02
1.9247956e-02
8.7100580e-02
1.4769497e-01
2.0215829e-01
2.4003867e-01
2.6449547e-01
2.7209279e-01
2.6869877e-01
2.6119453e-01
2.4692434e-01
2.3538583e-01
2.2678790e-01
2.2795756e-01
2.4200228e-01
2.5909523e-01
2.7996900e-01
2.9318051e-01
2.9555109e-01
2.8719936e-01
2.6082806e-01
2.2369740e-01
1.7397064e-01
1.1664339e-01
6.0953287e-02
8.7520894e-03
-3.0190574e-02
-6.0106437e-02
-8.3046500e-02
-9.9040580e-02
-1.1153943e-01
-1.1257737e-01
-1.0633682e-01
-9.4447877e-02
-7.8844304e-02
-6.5516992e-02
-4.8223708e-02
-3.0579031e-02
-1.2134230e-02
4.4808248e-03
1.3018084e-02
2.1280009e-02
2.7530197e-02
3.5635419e-02
4.4768323e-02
4.8793308e-02
5.7033255e-02
6.9585949e-02
8.9869713e-02
1.1357755e-01
1.3046739e-01
1.4578763e-01
1.5415131e-01
1.5460676e-01
1.4143836e-01
1.0662106e-01
6.2697024e-02
1.3076293e-02
-3.4158870e-02
-7.6917133e-02
-1.2298491e-01
-1.6318211e-01
-1.9509299e-01
-2.1046940e-01
-2.0907442e-01
-2.0511470e-01
-1.9490597e-01
-1.7691544e-01
-1.4547647e-01
-1.0452477e-01
-7.0410977e-02
-4.2671431e-02
-2.1046075e-02
2.9335371e-03
2.8559702e-02
4.3301232e-02
5.2244788e-02
5.8154566e-02
6.9040820e-02
8.6095142e-02
1.0070237e-01
1.1530542e-01
1.2742760e-01
1.4535590e-01
1.7096608e-01
1.9144187e-01
2.0208214e-01
1.9625558e-01
1.8205629e-01
1.6122927e-01
1.2591813e-01
8.2165039e-02
3.0541676e-02
-1.6601793e-02
-5.4718927e-02
-9.1002935e-02
-1.2019053e-01
-1.4553706e-01
-1.5984920e-01
-1.6015782e-01
-1.5386357e-01
-1.3997927e-01
-1.2702889e-01
-1.1095000e-01
-8.9270335e-02
-6.9055424e-02
-4.9553745e-02
-4.0053756e-02
-3.5694493e-02
-2.9972644e-02
-2.6237469e-02
-1.9743864e-02
-1.5192193e-02
-8.5665660e-03
2.1815167e-03
1.3071774e-02
2.9908015e-02
4.6994510e-02
6.3791383e-02
7.7245558e-02
8.2471046e-02
8.4560992e-02
7.7829498e-02
6.7234583e-02
5.2371303e-02
2.3827139e-02
-1.3271802e-02
-5.8454742e-02
-1.0322927e-01
-1.4419254e-01
-1.8196113e-01
-2.0661529e-01
-2.2047495e-01
-2.2056019e-01
-2.1079540e-01
-1.9868924e-01
-1.7858710e-01
-1.5458001e-01
-1.2428205e-01
-9.3298784e-02
-7.0469775e-02
-4.8447489e-02
-2.8557344e-02
-5.3842567e-03
1.9119451e-02
3.9005740e-02
6.3325605e-02
9.2317864e-02
1.3412144e-01
1.8337625e-01
2.2059393e-01
2.4470754e-01
2.5441378e-01
2.5805178e-01
2.5489999e-01
2.3473579e-01
2.0339442e-01
1.6537850e-01
1.3332042e-01
1.0801128e-01
8.0711393e-02
5.6593484e-02
3.5596711e-02
2.5136209e-02
2.5705759e-02
2.9405801e-02
3.5710376e-02
4.0856651e-02
5.4765120e-02
7.6207556e-02
9.2146738e-02
9.6955401e-02
8.1693533e-02
5.3194748e-02
1.9841072e-02
-1.0020100e-02
-3.1248241e-02
-5.0879893e-02
-5.9223406e-02
-5.5978505e-02
-5.0327643e-02
-4.5727516e-02
-5.2523112e-02
-6.4344940e-02
-7.9185385e-02
-1.0145512e-01
-1.2856506e-01
-1.6684626e-01
-2.0641241e-01
-2.4050907e-01
-2.7181835e-01
-2.9839877e-01
-3.2651828e-01
-3.4637751e-01
-3.5198162e-01
-3.4394454e-01
-3.1616421e-01
-2.7398471e-01
-2.0848322e-01
-1.2439874e-01
-4.5630207e-02
2.1555013e-02
7.3604838e-02
1.1836546e-01
1.5900101e-01
1.9304647e-01
2.2298059e-01
2.4199129e-01
2.5511500e-01
2.6494540e-01
2.7276225e-01
2.8452886e-01
2.9411005e-01
3.0461386e-01
3.1386171e-01
3.1728153e-01
3.1554348e-01
2.9991173e-01
2.7393764e-01
2.3693374e-01
1.8856236e-01
1.3485483e-01
7.1619144e-02
3.9044174e-03
-6.6829937e-02
-1.3123356e-01
-1.7638995e-01
-2.0815875e-01
-2.2364408e-01
-2.2800882e-01
-2.2743026e-01
-2.1875937e-01
-2.0724626e-01
-1.8825947e-01
-1.6728358e-01
-1.5168620e-01
-1.3760658e-01
-1.2674083e-01
-1.0972220e-01
-8.8523545e-02
-7.0217539e-02
-5.2782245e-02
-3.8581118e-02
-1.7521513e-02
7.4840628e-03
2.6496603e-02
4.1158165e-02
5.2157769e-02
7.0975208e-02
9.4985103e-02
1.1497581e-01
1.2846308e-01
1.2921546e-01
1.2434939e-01
1.1215531e-01
8.7802884e-02
5.1508481e-02
1.5691743e-03
-4.7485061e-02
-9.0895432e-02
-1.2989433e-01
-1.6555514e-01
-2.0222924e-01
-2.2637082e-01
-2.3573554e-01
-2.3380727e-01
-2.2385518e-01
-2.1641923e-01
-2.0239433e-01
-1.7904757e-01
-1.4919706e-01
-1.1669355e-01
-9.1944293e-02
-6.3822964e-02
-3.1305044e-02
-1.9527611e-03
2.1429956e-02
3.0680293e-02
3.5784059e-02
4.2422667e-02
5.2653408e-02
6.5880930e-02
7.1355828e-02
7.7465801e-02
8.8281145e-02
1.0425488e-01
1.2416141e-01
1.3597345e-01
1.4439540e-01
1.5096871e-01
1.5502463e-01
1.5583252e-01
1.4282279e-01
1.1877252e-01
8.5227725e-02
4.8824729e-02
1.6413194e-02
-1.6890425e-02
-4.4613281e-02
-6.7177019e-02
-8.2196373e-02
-8.6865069e-02
-8.9864805e-02
-8.7799347e-02
-8.2599430e-02
-7.2228078e-02
-5.6396813e-02
-4.4781510e-02
-3.3014706e-02
-2.4208415e-02
-1.4685400e-02
9.2902948e-04
1.5665791e-02
3.2605050e-02
4.4870290e-02
5.3313345e-02
6.4100170e-02
7.3350921e-02
8.7839285e-02
1.0217243e-01
1.1552390e-01
1.3109455e-01
1.4018482e-01
1.4602981e-01
1.4746930e-01
1.4983346e-01
1.5537973e-01
1.5344606e-01
1.4822133e-01
1.3394377e-01
1.0471808e-01
6.1336705e-02
4.9686904e-03
-4.9587418e-02
-1.0049810e-01
-1.4663683e-01
-1.8546328e-01
-2.1904996e-01
-2.3797142e-01
-2.4478291e-01
-2.4072183e-01
-2.2782269e-01
-2.1380442e-01
-1.9211905e-01
-1.6522096e-01
-1.3360714e-01
-1.0219871e-01
-8.0124038e-02
-5.7052362e-02
-3.2632123e-02
-6.3779208e-03
1.7923412e-02
3.2994535e-02
5.0836450e-02
7.2900857e-02
1.0092929e-01
1.3171578e-01
1.5653124e-01
1.8527984e-01
2.1896382e-01
2.5961157e-01
3.0182019e-01
3.2884859e-01
3.4183530e-01
3.3908745e-01
3.2547730e-01
3.0114961e-01
2.5538026e-01
1.9726604e-01
1.3367975e-01
7.3411534e-02
1.5271629e-02
-5.5932152e-02
-1.3760870e-01
-2.1752733e-01
-2.6919443e-01
-2.8696492e-01
-2.8898511e-01
-2.7901241e-01
-2.6216381e-01
-2.3315979e-01
-1.9441909e-01
-1.6094747e-01
-1.3271601e-01
-1.1201155e-01
-8.9896554e-02
-6.2796872e-02
-4.0825902e-02
-2.2833249e-02
-1.0100364e-02
8.1173358e-03
3.5931377e-02
6.3854369e-02
9.1634002e-02
1.1424487e-01
1.3910645e-01
1.6645199e-01
1.8449394e-01
1.9209490e-01
1.8004390e-01
1.5438109e-01
1.2173340e-01
7.8125892e-02
2.9358525e-02
-2.8618976e-02
-8.6425897e-02
-1.3341237e-01
-1.7200111e-01
-1.9915646e-01
-2.2135318e-01
-2.3277716e-01
-2.2937352e-01
-2.1783215e-01
-1.9665975e-01
-1.7505908e-01
-1.5294068e-01
-1.3012970e-01
-1.1185991e-01
-9.3754632e-02
-8.0790139e-02
-6.7907399e-02
-5.0284231e-02
-2.8850957e-02
3.7329804e-03
3.9625398e-02
7.2716613e-02
1.0035555e-01
1.2240357e-01
1.4666192e-01
1.7027753e-01
1.9764032e-01
2.2598060e-01
2.4864413e-01
2.6776306e-01
2.7292896e-01
2.6622382e-01
2.4620849e-01
2.0758021e-01
1.6054119e-01
1.0828970e-01
6.0273261e-02
1.5937642e-02
-2.9155658e-02
-6.6588381e-02
-9.7337936e-02
-1.1470856e-01
-1.2103871e-01
-1.2375628e-01
-1.1917583e-01
-1.1204472e-01
-9.5457825e-02
-7.1988397e-02
-5.4204824e-02
-4.1188428e-02
-3.4243989e-02
-2.3119809e-02
-8.9688342e-03
-2.9961559e-03
-2.2373205e-03
-4.6583160e-03
1.0392397e-03
1.3307223e-02
2.2066538e-02
2.8934652e-02
3.4374027e-02
5.0137132e-02
7.6583974e-02
1.0462754e-01
1.2939606e-01
1.4240388e-01
1.5081776e-01
1.5402514e-01
1.4407556e-01
1.1709205e-01
6.8463177e-02
1.4467290e-02
-3.6445769e-02
-8.5423711e-02
-1.3222070e-01
-1.8090023e-01
-2.1792148e-01
-2.3902852e-01
-2.4690392e-01
-2.4310473e-01
-2.3668386e-01
-2.1914975e-01
-1.9055205e-01
-1.5633010e-01
-1.2041625e-01
-9.5025052e-02
-7.1455356e-02
-4.5710853e-02
-1.8719950e-02
9.2769579e-03
2.6651236e-02
4.0989168e-02
5.8116992e-02
7.9030643e-02
1.0493694e-01
1.2563247e-01
1.4548292e-01
1.6677704e-01
1.8844145e-01
2.0678665e-01
2.0768037e-01
1.9362692e-01
1.6746280e-01
1.3500808e-01
1.0153023e-01
5.9319967e-02
1.3142267e-02
-3.4182667e-02
-7.4961814e-02
-1.0300724e-01
-1.2570865e-01
-1.3866302e-01
-1.4337584e-01
-1.3796788e-01
-1.2165998e-01
-1.0497979e-01
-8.5014976e-02
-6.7098367e-02
-5.3371942e-02
-4.4663105e-02
-4.5454538e-02
-4.0878489e-02
-3.2542706e-02
-2.3435082e-02
-1.1352991e-02
-3.9442298e-03
3.4587851e-03
7.1481743e-03
9.6127204e-03
1.4081673e-02
1.0032423e-02
4.8007422e-04
-2.0129811e-02
-5.3505294e-02
-9.5617363e-02
-1.4695941e-01
-1.9505078e-01
-2.4000004e-01
-2.8200676e-01
-3.1904114e-01
-3.5195286e-01
-3.6749516e-01
-3.6472725e-01
-3.4140014e-01
-2.9186885e-01
-2.2666605e-01
-1.5633150e-01
-9.0944226e-02
-2.8834849e-02
2.8974759e-02
7.6294968e-02
1.2174761e-01
1.6341588e-01
2.0175799e-01
2.3496630e-01
2.5708338e-01
2.7904589e-01
3.0167051e-01
3.2684400e-01
3.4959401e-01
3.6055402e-01
3.6845951e-01
3.7161120e-01
3.7014535e-01
3.5706997e-01
3.2252782e-01
2.7738617e-01
2.2257994e-01
1.6272045e-01
9.5371995e-02
1.5904012e-02
-5.4781060e-02
-1.0879210e-01
-1.4053640e-01
-1.5290539e-01
-1.6006908e-01
-1.5832060e-01
-1.4844463e-01
-1.2664940e-01
-9.7501689e-02
-7.5446880e-02
-5.6732341e-02
-3.9394927e-02
-1.5548744e-02
1.2939324e-02
3.3556828e-02
4.8346172e-02
5.7356349e-02
7.0566389e-02
9.0015114e-02
1.0568658e-01
1.1738967e-01
1.2235787e-01
1.2981184e-01
1.4014659e-01
1.4000701e-01
1.2463770e-01
9.1738872e-02
5.6006345e-02
2.2933039e-02
-1.3412414e-02
-5.1576324e-02
-9.4578234e-02
-1.3039033e-01
-1.5439218e-01
-1.7077794e-01
-1.7678410e-01
-1.8005756e-01
-1.7447668e-01
-1.5710566e-01
-1.3298076e-01
-1.0304842e-01
-7.8528599e-02
-5.4570544e-02
-2.8239878e-02
-3.4516502e-03
2.0673094e-02
3.5271187e-02
4.7688417e-02
6.2820429e-02
7.8185372e-02
9.7204002e-02
1.1314152e-01
1.2955690e-01
1.4601957e-01
1.5749707e-01
1.6368884e-01
1.5495050e-01
1.3352632e-01
1.0220867e-01
6.5682346e-02
3.0358291e-02
-1.0151297e-02
-5.0252367e-02
-8.7489808e-02
-1.1929566e-01
-1.4126801e-01
-1.6000016e-01
-1.6952026e-01
-1.7086806e-01
-1.6571166e-01
-1.5372797e-01
-1.4578000e-01
-1.4021095e-01
-1.4451468e-01
-1.5907284e-01
-1.7096215e-01
-1.8240541e-01
-1.8967040e-01
-1.9789917e-01
-2.1074125e-01
-2.2436877e-01
-2.4379162e-01
-2.6457557e-01
-2.9446387e-01
-3.3995861e-01
-3.9868329e-01
-4.7510458e-01
-5.6068134e-01
-6.5649814e-01
-7.6356497e-01
-8.7580170e-01
-9.9334352e-01
-1.1045620e+00
-1.2105007e+00
-1.3157410e+00
-1.4217232e+00
-1.5337628e+00
-1.6423949e+00
-1.7485429e+00
-1.8505381e+00
-1.9399986e+00
-2.0145683e+00
-2.0609173e+00
-2.0754065e+00
-2.0550372e+00
-1.9980787e+00
-1.9065699e+00
-1.7696388e+00
-1.5897643e+00
-1.3707273e+00
-1.1225142e+00
-8.6212324e-01
-5.8808221e-01
-3.0855030e-01
-3.0684920e-02
2.3471793e-01
4.7262065e-01
6.8825220e-01
8.7694751e-01
1.0376194e+00
1.1611931e+00
1.2257171e+00
1.2254744e+00
1.1409279e+00
1.0135112e+00
9.3331260e-01
9.1617530e-01
9.4637624e-01
1.0139557e+00
1.1207935e+00
1.2608600e+00
1.4143702e+00
1.5835993e+00
1.7680196e+00
1.9765883e+00
2.2107365e+00
2.4556998e+00
2.7125022e+00
2.9745209e+00
3.2404857e+00
3.4963200e+00
3.7102216e+00
3.8634530e+00
3.9321221e+00
3.9041310e+00
3.7514653e+00
3.4196726e+00
2.8533825e+00
1.9773558e+00
9.2197150e-01
1.0790229e-02
-6.3742882e-01
-1.0817024e+00
-1.3742632e+00
-1.5403270e+00
-1.6067523e+00
-1.6086638e+00
-1.5658661e+00
-1.4998699e+00
-1.4107260e+00
-1.3033824e+00
-1.1932714e+00
-1.0845251e+00
-9.9041926e-01
-9.0418641e-01
-8.1923493e-01
-7.4002235e-01
-6.6423445e-01
-5.9770470e-01
-5.2678261e-01
-4.4558513e-01
-3.6313339e-01
-2.7799279e-01
-1.8926244e-01
-9.7457145e-02
-3.1653846e-02
-6.1235625e-03
-6.0837660e-03
-3.1532714e-02
-7.3068503e-02
-1.2674754e-01
-1.9102785e-01
-2.5724574e-01
-3.2920526e-01
-3.9927641e-01
-4.6459983e-01
-5.2402740e-01
-5.7255054e-01
-6.1809614e-01
-6.5497052e-01
-6.8315616e-01
-7.0343304e-01
-7.1121818e-01
-7.1084266e-01
-6.9066658e-01
-6.4649170e-01
-5.7064663e-01
-4.4725237e-01
-2.7020339e-01
-5.5727285e-02
1.3131169e-01
2.6554360e-01
3.6563756e-01
4.3455037e-01
4.8542738e-01
5.1883405e-01
5.3605362e-01
5.4582464e-01
5.4647452e-01
5.4927963e-01
5.5061230e-01
5.4094769e-01
5.1492930e-01
4.6350991e-01
3.9895883e-01
3.2451113e-01
2.4248040e-01
1.6062782e-01
8.0984384e-02
2.0182709e-02
-2.2533634e-02
-5.3820680e-02
-7.6119927e-02
-9.4154163e-02
-9.6101533e-02
-8.4950338e-02
-6.7317682e-02
-4.8799243e-02
-3.7000479e-02
-2.0751146e-02
2.9615602e-05
2.4274833e-02
4.5543271e-02
5.3126329e-02
5.8890074e-02
6.5069055e-02
7.4041737e-02
8.2008138e-02
7.9770941e-02
8.0375965e-02
8.5774573e-02
9.8221089e-02
1.1244592e-01
1.1509112e-01
1.1334170e-01
1.0456111e-01
9.0366949e-02
6.5838187e-02
1.7726221e-02
-4.0558732e-02
-9.8241343e-02
-1.4408666e-01
-1.8051018e-01
-2.2175957e-01
-2.6015667e-01
-2.9202172e-01
-3.0858812e-01
-3.1114701e-01
-3.1371498e-01
-3.1119795e-01
-3.0294040e-01
-2.8432932e-01
-2.5978045e-01
-2.4245679e-01
-2.3008048e-01
-2.2418774e-01
-2.1405220e-01
-1.9618929e-01
-1.7892352e-01
-1.5972409e-01
-1.3711611e-01
-9.2559064e-02
-1.9279616e-02
7.6417809e-02
1.8327691e-01
2.6975465e-01
3.3689783e-01
3.8978818e-01
4.1828842e-01
4.2019345e-01
3.9008067e-01
3.4425222e-01
2.9450040e-01
2.4390004e-01
1.9914891e-01
1.5190358e-01
1.1015971e-01
8.0036801e-02
5.9528310e-02
4.8151736e-02
3.2446601e-02
2.0043229e-02
1.7265822e-02
2.0700581e-02
2.8943771e-02
2.8553813e-02
2.4398226e-02
1.9261931e-02
9.2784187e-03
-2.2697896e-03
-1.9106972e-02
-3.4504713e-02
-4.6899973e-02
-5.4520467e-02
-5.4706980e-02
-5.8042660e-02
-6.2473020e-02
-7.0073975e-02
-8.0014835e-02
-9.0923901e-02
-1.1547798e-01
-1.4976561e-01
-1.9147480e-01
-2.3483050e-01
-2.7321957e-01
-3.1230975e-01
-3.4418774e-01
-3.6938363e-01
-3.8416794e-01
-3.8098732e-01
-3.6375830e-01
-3.2324422e-01
-2.6140127e-01
-1.7349972e-01
-6.5106169e-02
2.7525663e-02
9.6958411e-02
1.4198392e-01
1.6804437e-01
1.8511761e-01
1.8914157e-01
1.8942571e-01
1.8394945e-01
1.7416453e-01
1.6610802e-01
1.5672093e-01
1.5668286e-01
1.6280965e-01
1.7240006e-01
1.8599338e-01
1.9824092e-01
2.1762207e-01
2.3757701e-01
2.5322171e-01
2.6377133e-01
2.6264908e-01
2.5475733e-01
2.3131269e-01
1.8628925e-01
1.2298550e-01
5.1520462e-02
-1.0616112e-02
-6.5150013e-02
-1.0862977e-01
-1.4347753e-01
-1.7558506e-01
-1.9079452e-01
-1.8702889e-01
-1.6062646e-01
-1.2016341e-01
-8.3905752e-02
-4.9479728e-02
-2.1105812e-02
3.5875399e-03
1.9632629e-02
1.8284849e-02
1.1327260e-02
-2.3354839e-04
-8.9897594e-03
-1.5831214e-02
-3.0814256e-02
-4.5081961e-02
-5.4364859e-02
-4.5858000e-02
-2.5214669e-02
-1.3997158e-02
-8.0132049e-03
-2.8714227e-03
1.2509645e-02
3.5344529e-02
5.1071671e-02
6.4917422e-02
7.8178036e-02
9.7432457e-02
1.1723525e-01
1.2278945e-01
1.1361065e-01
8.8152342e-02
5.8895436e-02
2.9674080e-02
-4.8263864e-03
-4.2987232e-02
-8.6322711e-02
-1.1823103e-01
-1.3419872e-01
-1.4243071e-01
-1.4605389e-01
-1.5310911e-01
-1.5188976e-01
-1.3847190e-01
-1.1805831e-01
-9.4705815e-02
-7.9876950e-02
-6.2161334e-02
-3.8663545e-02
-1.5406719e-02
4.8483129e-03
1.1590206e-02
1.7184418e-02
2.6940734e-02
3.7859673e-02
4.8956041e-02
4.9594844e-02
5.2108995e-02
6.4075064e-02
8.3225235e-02
1.0513900e-01
1.1447403e-01
1.1715779e-01
1.1680900e-01
1.1371903e-01
1.0746907e-01
8.5696565e-02
5.6943094e-02
2.6898204e-02
-2.8208637e-03
-2.9019871e-02
-5.8421134e-02
-8.4485656e-02
-1.0548325e-01
-1.1693421e-01
-1.1722089e-01
-1.1810923e-01
-1.1652050e-01
-1.1463278e-01
-1.0835430e-01
-9.6629766e-02
-9.3370260e-02
-9.5591013e-02
-1.0432074e-01
-1.1376456e-01
-1.2031764e-01
-1.3113523e-01
-1.3621115e-01
-1.3723523e-01
-1.2981101e-01
-1.0542998e-01
-6.7241778e-02
-5.8002998e-03
6.1711971e-02
1.1083175e-01
1.3668452e-01
1.3852412e-01
1.2740236e-01
1.0246508e-01
7.0228082e-02
3.6845250e-02
-3.5782347e-03
-4.0628517e-02
-7.4958939e-02
-1.0453316e-01
-1.2778217e-01
-1.5050120e-01
-1.6364855e-01
-1.7083364e-01
-1.7272147e-01
-1.7003061e-01
-1.6771741e-01
-1.5669610e-01
-1.4030614e-01
-1.1637070e-01
-8.1913906e-02
-3.6522834e-02
3.4305814e-02
1.1842106e-01
1.9276589e-01
2.4454771e-01
2.7404375e-01
2.9581761e-01
3.0995308e-01
3.2101654e-01
3.2434507e-01
3.1173892e-01
2.9528466e-01
2.7599823e-01
2.6030129e-01
2.4512931e-01
2.2326278e-01
2.0611080e-01
1.9281518e-01
1.8921705e-01
1.9110133e-01
1.8697910e-01
1.8231703e-01
1.7310088e-01
1.6440286e-01
1.4859909e-01
1.0591916e-01
3.2940928e-02
-6.0082447e-02
-1.3363406e-01
-1.7725484e-01
-2.0848018e-01
-2.2869856e-01
-2.4129110e-01
-2.3897761e-01
-2.2681350e-01
-2.1722191e-01
-2.0700423e-01
-1.9601662e-01
-1.7422804e-01
-1.4475002e-01
-1.1986384e-01
-1.0329530e-01
-1.0083402e-01
-1.0042924e-01
-9.9692746e-02
-1.0464034e-01
-1.1622139e-01
-1.3814562e-01
-1.5410511e-01
-1.5833154e-01
-1.5420713e-01
-1.4309081e-01
-1.3514508e-01
-1.2303576e-01
-1.0495249e-01
-8.4030036e-02
-6.4851072e-02
-5.9240349e-02
-5.5407286e-02
-4.9577366e-02
-4.4606534e-02
-4.4427080e-02
-6.3450859e-02
-9.2111066e-02
-1.2367760e-01
-1.5414795e-01
-1.8179859e-01
-2.1817091e-01
-2.5239145e-01
-2.7640403e-01
-2.8616823e-01
-2.8056863e-01
-2.6981506e-01
-2.4495273e-01
-1.9986745e-01
-1.2785476e-01
-2.4613832e-02
8.3318739e-02
1.6626574e-01
2.1245874e-01
2.3668760e-01
2.4940824e-01
2.4535593e-01
2.3284704e-01
2.1562513e-01
2.0531094e-01
2.0771528e-01
2.1133243e-01
2.1999364e-01
2.3292611e-01
2.5557009e-01
2.8809171e-01
3.1804555e-01
3.4697986e-01
3.6699377e-01
3.8157749e-01
3.9306950e-01
3.9026525e-01
3.7514885e-01
3.3596262e-01
2.7178262e-01
1.8311347e-01
7.5259106e-02
-1.3883828e-02
-7.6917015e-02
-1.1531480e-01
-1.2919774e-01
-1.3076981e-01
-1.1966353e-01
-1.0697084e-01
-9.5887335e-02
-8.8534200e-02
-9.2158315e-02
-9.8338355e-02
-1.1023592e-01
-1.2448014e-01
-1.3853546e-01
-1.5530293e-01
-1.6475479e-01
-1.7135066e-01
-1.7348418e-01
-1.7031925e-01
-1.6551972e-01
-1.5134093e-01
-1.3292951e-01
-1.0548894e-01
-6.7598867e-02
-3.0306309e-02
2.5436044e-03
2.3395012e-02
3.8618255e-02
4.6104170e-02
4.0343329e-02
3.1352278e-02
1.7589851e-02
5.1281277e-03
-9.9877466e-03
-3.4636115e-02
-5.7688353e-02
-8.0282081e-02
-9.6443956e-02
-1.0942036e-01
-1.2813392e-01
-1.4727915e-01
-1.7126925e-01
-1.9213694e-01
-2.1033486e-01
-2.3171344e-01
-2.4426679e-01
-2.4260479e-01
-2.1025621e-01
-1.4040385e-01
-5.4357934e-02
1.9347846e-02
6.7835902e-02
1.0975283e-01
1.4856665e-01
1.7621129e-01
1.9564537e-01
2.0712342e-01
2.2216106e-01
2.3895516e-01
2.4844259e-01
2.4811987e-01
2.3440630e-01
2.2284030e-01
2.1599533e-01
2.0888970e-01
1.9985160e-01
1.8124311e-01
1.6647663e-01
1.6010841e-01
1.5744980e-01
1.5211272e-01
1.3462844e-01
1.1809244e-01
1.0093247e-01
8.0708986e-02
6.2445273e-02
3.7349166e-02
1.3243711e-02
-8.6663548e-03
-2.8682316e-02
-4.8179788e-02
-7.8808337e-02
-1.0878017e-01
-1.3210888e-01
-1.4515256e-01
-1.4808867e-01
-1.5502170e-01
-1.5737621e-01
-1.4998693e-01
-1.3138445e-01
-1.0526557e-01
-8.7366657e-02
-7.2050739e-02
-5.5707005e-02
-3.4984125e-02
-1.2188212e-02
-3.0185719e-04
5.0709151e-03
3.7398906e-03
2.5801207e-03
3.9591704e-03
-3.1437983e-03
-1.2864062e-02
-2.4302636e-02
-2.8445080e-02
-2.1411898e-02
-1.5689357e-02
-8.3281392e-03
1.3382987e-03
2.1006525e-02
4.9124297e-02
7.0981928e-02
8.6314577e-02
8.8197353e-02
8.2910489e-02
7.3979999e-02
5.3535164e-02
2.8751649e-02
-3.0265633e-03
-3.3279067e-02
-5.5659503e-02
-7.6290977e-02
-8.9053722e-02
-1.0033579e-01
-1.0516754e-01
-9.8704435e-02
-8.8796242e-02
-7.1908292e-02
-5.6251900e-02
-4.0780018e-02
-2.5173826e-02
-1.7584482e-02
-1.2673931e-02
-1.6262727e-02
-2.5596434e-02
-3.7502673e-02
-5.4338599e-02
-6.7871372e-02
-8.2986083e-02
-9.6860852e-02
-1.0735948e-01
-1.1604601e-01
-1.1527009e-01
-1.1008579e-01
-9.6418606e-02
-7.4002842e-02
-4.6217153e-02
-6.5298258e-03
3.9698016e-02
8.9909843e-02
1.2685119e-01
1.3859553e-01
1.3552970e-01
1.1910394e-01
1.0014384e-01
7.8709797e-02
5.3874965e-02
3.7339756e-02
2.8106536e-02
3.3805383e-02
4.9742761e-02
7.0003266e-02
1.0106141e-01
1.3658400e-01
1.8165614e-01
2.2976392e-01
2.6774225e-01
2.9624243e-01
3.1133267e-01
3.2047039e-01
3.1714927e-01
2.8866564e-01
2.3297278e-01
1.4179597e-01
3.9981823e-02
-4.2275971e-02
-1.0091881e-01
-1.3879617e-01
-1.6312361e-01
-1.6804623e-01
-1.5941178e-01
-1.4872577e-01
-1.4051594e-01
-1.4276054e-01
-1.4770498e-01
-1.5611330e-01
-1.7160332e-01
-1.9681738e-01
-2.3714645e-01
-2.7677859e-01
-3.0976649e-01
-3.3451095e-01
-3.5164890e-01
-3.6643140e-01
-3.6241105e-01
-3.3595784e-01
-2.8621119e-01
-2.1329746e-01
-1.2297724e-01
-1.4156366e-02
8.6738934e-02
1.6943058e-01
2.3653775e-01
2.7857205e-01
3.0936724e-01
3.3600001e-01
3.6279927e-01
3.8416784e-01
3.8053322e-01
3.5909015e-01
3.2769912e-01
2.9647414e-01
2.6622432e-01
2.2411676e-01
1.7877303e-01
1.3343660e-01
9.4416820e-02
6.2292729e-02
2.4819233e-02
-1.1672802e-02
-4.4443854e-02
-6.5519353e-02
-7.3879938e-02
-8.2461975e-02
-9.0558626e-02
-1.0083262e-01
-1.0276298e-01
-9.2675202e-02
-8.4466751e-02
-7.8296071e-02
-7.7539003e-02
-7.2902549e-02
-6.1899353e-02
-5.6835786e-02
-5.6363340e-02
-6.3816443e-02
-6.8379276e-02
-6.6466955e-02
-6.8925018e-02
-7.2554030e-02
-8.2016030e-02
-8.8942909e-02
-9.0665164e-02
-9.7256175e-02
-1.0367447e-01
-1.1278735e-01
-1.1277807e-01
-9.3186245e-02
-5.5703727e-02
-3.2394989e-03
3.8531372e-02
6.8224774e-02
9.3426148e-02
1.1049530e-01
1.2699019e-01
1.3916324e-01
1.5290700e-01
1.6986739e-01
1.8389515e-01
2.0008363e-01
2.1198944e-01
2.2369295e-01
2.3497691e-01
2.4068398e-01
2.4681873e-01
2.4739107e-01
2.4679196e-01
2.4413750e-01
2.3547666e-01
2.2625515e-01
2.0647460e-01
1.7558231e-01
1.2650079e-01
4.5910296e-02
-5.2364929e-02
-1.4388817e-01
-2.0902137e-01
-2.5566774e-01
-2.9398564e-01
-3.2137593e-01
-3.4418711e-01
-3.5583879e-01
-3.6051742e-01
-3.6541603e-01
-3.6481157e-01
-3.6396171e-01
-3.5594165e-01
-3.4298893e-01
-3.3319080e-01
-3.2480479e-01
-3.2252724e-01
-3.1564194e-01
-3.0450711e-01
-2.9524130e-01
-2.8231633e-01
-2.6610567e-01
-2.3030016e-01
-1.6756518e-01
-7.8845195e-02
2.4320695e-02
1.0786584e-01
1.7185975e-01
2.2233835e-01
2.5794940e-01
2.8364515e-01
2.9650362e-01
3.0763213e-01
3.1768544e-01
3.1904825e-01
3.0450643e-01
2.6529091e-01
2.1740631e-01
1.6871235e-01
1.2141331e-01
7.7077325e-02
3.1932762e-02
1.8334493e-03
-1.1186776e-02
-1.2069349e-02
-7.7345417e-03
-1.0004926e-02
-9.0298609e-03
-6.6150412e-03
-7.9807901e-03
-1.3135671e-02
-2.3954267e-02
-2.6247430e-02
-1.9492993e-02
-4.3552283e-03
1.6431116e-02
2.8702770e-02
4.1435979e-02
5.9428588e-02
8.5765460e-02
1.1834043e-01
1.4327427e-01
1.6867575e-01
1.9713396e-01
2.2920772e-01
2.5927019e-01
2.7110259e-01
2.6859986e-01
2.5253582e-01
2.2970544e-01
2.0240667e-01
1.6046962e-01
1.1030696e-01
5.0738820e-02
-1.4310769e-02
-7.5323459e-02
-1.2689007e-01
-1.5918742e-01
-1.7763828e-01
-1.7785246e-01
-1.6041134e-01
-1.3985666e-01
-1.1456062e-01
-8.9110794e-02
-5.9467494e-02
-2.7043714e-02
-4.2664850e-03
1.3679586e-02
2.2906030e-02
2.9488579e-02
3.6246861e-02
3.5706044e-02
3.5805814e-02
3.2152795e-02
3.1033835e-02
3.7200368e-02
4.1284637e-02
4.5420515e-02
3.8722527e-02
1.9815242e-02
-7.4644739e-03
-4.4060757e-02
-8.0294746e-02
-1.2001441e-01
-1.5692413e-01
-1.8715964e-01
-2.1664367e-01
-2.3623162e-01
-2.4976981e-01
-2.5527049e-01
-2.5233233e-01
-2.4766293e-01
-2.3473421e-01
-2.1948075e-01
-2.0115773e-01
-1.8067647e-01
-1.6444158e-01
-1.4707997e-01
-1.3434024e-01
-1.2230714e-01
-1.0996493e-01
-1.0165989e-01
-8.8230745e-02
-7.0055590e-02
-3.7932073e-02
3.1744432e-03
3.6385738e-02
6.6646768e-02
9.2618294e-02
1.2066444e-01
1.4820855e-01
1.6599209e-01
1.8074690e-01
1.8877750e-01
1.9538373e-01
1.9558704e-01
1.7943667e-01
1.5678725e-01
1.2840329e-01
1.0376364e-01
8.2781413e-02
5.8027903e-02
3.7137461e-02
1.8887088e-02
1.1440758e-02
1.1332512e-02
4.4112831e-03
-8.7007277e-03
-3.2333378e-02
-6.0190085e-02
-8.9344124e-02
-1.1797013e-01
-1.3855353e-01
-1.5559223e-01
-1.5984996e-01
-1.5460919e-01
-1.5369319e-01
-1.5586058e-01
-1.6246320e-01
-1.6242289e-01
-1.5424001e-01
-1.4428285e-01
-1.3233609e-01
-1.2200733e-01
-9.9395838e-02
-6.3584029e-02
-2.5308906e-02
1.1356129e-02
3.9130172e-02
6.8584385e-02
9.9667711e-02
1.2455440e-01
1.3973338e-01
1.3505142e-01
1.2364262e-01
1.1002106e-01
9.0123924e-02
6.7512051e-02
3.7297515e-02
1.3141697e-02
7.4511458e-04
-2.6253418e-03
2.3589054e-03
3.3453442e-03
8.7469029e-03
2.4118623e-02
4.7570773e-02
7.5046794e-02
9.1133397e-02
1.0202361e-01
1.1058142e-01
1.1589077e-01
1.1873483e-01
1.0849108e-01
9.2382564e-02
7.3741163e-02
5.4840308e-02
3.9851756e-02
2.0527063e-02
3.7280947e-03
-9.5104536e-03
-1.6978518e-02
-1.4931677e-02
-1.4177502e-02
-1.0635779e-02
-4.9477950e-03
5.5715500e-03
2.2588643e-02
3.3510095e-02
4.2882515e-02
4.9043778e-02
5.4283193e-02
6.0572460e-02
5.6755071e-02
4.8282990e-02
3.0644809e-02
3.3786283e-03
-2.7818930e-02
-6.6198467e-02
-9.9588636e-02
-1.2817053e-01
-1.4989392e-01
-1.5671239e-01
-1.4965558e-01
-1.1657628e-01
-6.9955960e-02
-2.7864893e-02
7.8470357e-03
3.1397506e-02
5.0285793e-02
6.2079048e-02
6.6723612e-02
6.6949930e-02
5.6863668e-02
4.7551352e-02
3.8300037e-02
2.7914365e-02
1.7906877e-02
4.6339371e-03
-5.8276215e-04
-9.8392754e-04
1.4748900e-03
7.6699925e-03
1.2206911e-02
2.5223335e-02
4.3208808e-02
6.3477016e-02
8.3122150e-02
9.1529293e-02
9.7124424e-02
1.0075862e-01
1.0538885e-01
1.0670030e-01
9.3057960e-02
7.5548157e-02
5.4507994e-02
3.3766328e-02
1.4168491e-02
-1.1678826e-02
-3.0401966e-02
-4.0175723e-02
-3.7697759e-02
-2.4979099e-02
-1.4124362e-02
3.6687688e-03
2.7413497e-02
5.8627523e-02
9.3591901e-02
1.1695365e-01
1.3368156e-01
1.4214824e-01
1.4459330e-01
1.3682024e-01
1.0376659e-01
5.2032586e-02
-8.5204098e-03
-5.4706201e-02
-8.0834132e-02
-1.0385928e-01
-1.2022319e-01
-1.2985917e-01
-1.2589183e-01
-1.0874929e-01
-9.2459476e-02
-7.5692214e-02
-6.2203091e-02
-4.6069486e-02
-2.8679243e-02
-2.4836755e-02
-3.4140061e-02
-6.0601045e-02
-9.3629903e-02
-1.2572424e-01
-1.6306516e-01
-1.9914798e-01
-2.3338828e-01
-2.5183329e-01
-2.4712708e-01
-2.2637153e-01
-1.8338819e-01
-1.3010814e-01
-7.5482358e-02
-2.3862721e-02
1.8103275e-02
5.4721322e-02
7.6946773e-02
9.0808574e-02
1.0125755e-01
1.0149681e-01
9.6824148e-02
8.1458556e-02
6.3859933e-02
5.0093327e-02
3.3830693e-02
2.1182715e-02
7.6234400e-03
-9.6726648e-04
-1.0456404e-03
2.6517260e-03
1.5606845e-02
3.0505823e-02
5.0501326e-02
7.5332398e-02
9.7161285e-02
1.2094925e-01
1.3633243e-01
1.3960623e-01
1.3102399e-01
1.1003787e-01
8.7119826e-02
6.0048700e-02
3.5955276e-02
1.9113516e-02
6.7322095e-03
4.7466469e-03
8.5190373e-03
2.2930477e-02
4.3665147e-02
6.1105412e-02
8.0226711e-02
9.5091428e-02
1.1067206e-01
1.2406488e-01
1.2537813e-01
1.2089624e-01
1.0796098e-01
9.3048955e-02
7.2549744e-02
3.8048253e-02
-2.1547948e-03
-4.5009186e-02
-7.1657365e-02
-7.9827646e-02
-8.2798955e-02
-7.8322311e-02
-7.0993965e-02
-5.3747470e-02
-3.0724994e-02
-1.7777962e-02
-1.5593940e-02
-2.7765930e-02
-4.4377795e-02
-6.4830450e-02
-9.7680156e-02
-1.3630941e-01
-1.7698384e-01
-2.0483654e-01
-2.1716866e-01
-2.2064542e-01
-2.1252010e-01
-1.9857614e-01
-1.7106228e-01
-1.3135767e-01
-8.9581420e-02
-4.4937311e-02
-6.3598216e-03
2.7173662e-02
5.3220361e-02
6.6347633e-02
6.8694217e-02
5.6473458e-02
4.3595992e-02
3.5078847e-02
2.5392106e-02
1.4467304e-02
-3.7367178e-03
-1.5543598e-02
-1.6227204e-02
-1.0888789e-02
1.6201678e-04
6.7309470e-03
1.8396146e-02
3.7847878e-02
5.9394781e-02
8.2474153e-02
9.4845828e-02
1.0465869e-01
1.1494649e-01
1.1977613e-01
1.1834835e-01
9.8912392e-02
7.0459468e-02
4.0202735e-02
8.2027777e-03
-2.2394244e-02
-5.8972687e-02
-9.0727116e-02
-1.1249834e-01
-1.2550747e-01
-1.2673119e-01
-1.2498763e-01
-1.1576126e-01
-1.0012963e-01
-8.1310953e-02
-5.9192845e-02
-4.5144684e-02
-3.4297685e-02
-2.6890130e-02
-2.3790068e-02
-2.1583939e-02
-2.8056424e-02
-3.5770725e-02
-4.4234849e-02
-5.2991569e-02
-5.9840427e-02
-7.1236364e-02
-7.2888933e-02
-6.4787124e-02
-5.1424245e-02
-2.8856961e-02
-4.9820246e-03
2.5718954e-02
5.8603537e-02
8.7930058e-02
1.1601245e-01
1.3496408e-01
1.5103260e-01
1.6009014e-01
1.5817299e-01
1.5064984e-01
1.3281595e-01
1.1579518e-01
1.0158324e-01
8.8104112e-02
7.7866325e-02
6.5312265e-02
6.1171115e-02
6.2016912e-02
5.7928867e-02
4.5386758e-02
2.2827512e-02
1.2069421e-02
1.3387537e-02
1.6642186e-02
2.1607929e-02
2.2482213e-02
2.8225998e-02
3.7606899e-02
4.6465406e-02
5.3536195e-02
5.2479082e-02
5.6077036e-02
6.6148031e-02
7.9404159e-02
9.1700492e-02
9.4185841e-02
1.0168672e-01
1.1763381e-01
1.3790303e-01
1.5558281e-01
1.5874048e-01
1.5895516e-01
1.5455187e-01
1.3740537e-01
9.8180218e-02
3.1096466e-02
-3.5338972e-02
-9.0446046e-02
-1.3427347e-01
-1.6794715e-01
-2.0405035e-01
-2.3164350e-01
-2.4602316e-01
-2.4593476e-01
-2.3191890e-01
-2.1744988e-01
-1.9659073e-01
-1.6899945e-01
-1.3677643e-01
-1.0438300e-01
-8.6294684e-02
-7.5722172e-02
-6.9946815e-02
-6.5252098e-02
-6.0487803e-02
-6.6637417e-02
-7.6405774e-02
-8.6970632e-02
-9.2735854e-02
-8.9840883e-02
-8.7099230e-02
-7.9835662e-02
-6.8583433e-02
-4.7727958e-02
-1.6312283e-02
1.2537446e-02
4.1988446e-02
6.9030409e-02
9.6836611e-02
1.2512999e-01
1.4001653e-01
1.4452535e-01
1.3502481e-01
1.1594795e-01
9.1018449e-02
5.4102183e-02
1.7432082e-02
-1.8817854e-02
-4.9004463e-02
-6.7376537e-02
-8.1686550e-02
-8.4702268e-02
-7.9735031e-02
-6.3719561e-02
-3.4190547e-02
-4.8518937e-03
2.4547442e-02
4.8359952e-02
6.9386920e-02
9.0544712e-02
1.0285527e-01
1.1308516e-01
1.1856043e-01
1.2117573e-01
1.2462594e-01
1.2449964e-01
1.3121274e-01
1.4197332e-01
1.5439101e-01
1.6710212e-01
1.7573300e-01
1.9184906e-01
2.1133097e-01
2.3076351e-01
2.4559724e-01
2.4540155e-01
2.3597113e-01
2.1158581e-01
1.7049610e-01
1.0676268e-01
2.0991779e-02
-5.3547970e-02
-1.0954626e-01
-1.5191133e-01
-1.8855329e-01
-2.3020659e-01
-2.6495853e-01
-2.9105633e-01
-3.0530971e-01
-3.1224386e-01
-3.2223332e-01
-3.2366180e-01
-3.1742808e-01
-3.0132698e-01
-2.7915100e-01
-2.6373585e-01
-2.4678016e-01
-2.2825646e-01
-2.0282354e-01
-1.7299244e-01
-1.5325824e-01
-1.3658636e-01
-1.1858678e-01
-8.7424914e-02
-4.1218588e-02
9.5674782e-04
3.3270969e-02
5.2885777e-02
6.9360423e-02
8.4292376e-02
8.7465741e-02
8.5797438e-02
8.1674346e-02
8.4692702e-02
9.4969361e-02
9.9979288e-02
1.0278809e-01
1.0139009e-01
1.0316538e-01
1.0683925e-01
9.9691328e-02
8.3463870e-02
5.5195475e-02
2.5695572e-02
-2.6320266e-03
-3.9536564e-02
-7.9658861e-02
-1.2355810e-01
-1.5814503e-01
-1.7943766e-01
-1.9783063e-01
-2.0917435e-01
-2.1756767e-01
-2.1498098e-01
-1.9959130e-01
-1.8228338e-01
-1.6056915e-01
-1.4113674e-01
-1.1701094e-01
-8.4278845e-02
-4.9563208e-02
-8.1523808e-03
3.3131726e-02
8.1760269e-02
1.4212438e-01
2.0646610e-01
2.7716947e-01
3.4393557e-01
4.0762956e-01
4.6484992e-01
5.0282100e-01
5.2393126e-01
5.2056280e-01
4.9466044e-01
4.4675331e-01
3.8047188e-01
3.1822958e-01
2.6072064e-01
2.0959971e-01
1.6310833e-01
1.1504358e-01
7.0732306e-02
2.4748272e-02
-1.6791870e-02
-5.3611702e-02
-9.0232138e-02
-1.1842582e-01
-1.4155297e-01
-1.5432975e-01
-1.6098691e-01
-1.6893423e-01
-1.6946578e-01
-1.6555564e-01
-1.5298605e-01
-1.3800480e-01
-1.3017795e-01
-1.2387939e-01
-1.2405371e-01
-1.2476177e-01
-1.2959469e-01
-1.4390913e-01
-1.5555934e-01
-1.6602200e-01
-1.6798260e-01
-1.6464689e-01
-1.6684567e-01
-1.6880514e-01
-1.7246870e-01
-1.6824488e-01
-1.5597087e-01
-1.4550273e-01
-1.3427683e-01
-1.2567833e-01
-1.1174915e-01
-9.6191952e-02
-9.1069763e-02
-9.3724647e-02
-1.0598176e-01
-1.1781689e-01
-1.2868323e-01
-1.4465252e-01
-1.5895941e-01
-1.6829426e-01
-1.5521538e-01
-1.1235231e-01
-5.2501528e-02
5.7675763e-03
4.8019558e-02
8.7190025e-02
1.2392860e-01
1.5072944e-01
1.6868599e-01
1.7182217e-01
1.7199954e-01
1.7217859e-01
1.6702729e-01
1.5620849e-01
1.3351482e-01
1.1338945e-01
1.0097659e-01
9.2943877e-02
8.8882737e-02
7.8430130e-02
7.1929230e-02
7.4325227e-02
8.3711087e-02
1.0146938e-01
1.1743602e-01
1.3913241e-01
1.7046750e-01
2.0471574e-01
2.3130404e-01
2.3535344e-01
2.2678357e-01
2.0973849e-01
1.8462928e-01
1.5585997e-01
1.1623383e-01
7.5944350e-02
4.0988406e-02
1.4248673e-02
-3.2677845e-04
-1.1761558e-02
-1.4365972e-02
-6.9406290e-03
1.0984285e-02
3.8765548e-02
6.3455145e-02
8.7192813e-02
1.0459487e-01
1.1266170e-01
1.1146062e-01
8.8552384e-02
4.6127093e-02
-2.3059930e-02
-1.0901242e-01
-1.8103451e-01
-2.3525913e-01
-2.6899261e-01
-2.9028142e-01
-3.0298142e-01
-3.0316741e-01
-2.9911074e-01
-2.8557330e-01
-2.6890009e-01
-2.5195978e-01
-2.3017708e-01
-2.1058213e-01
-1.8640101e-01
-1.6307053e-01
-1.4528421e-01
-1.3320287e-01
-1.3595775e-01
-1.4294363e-01
-1.5251076e-01
-1.6408084e-01
-1.7231490e-01
-1.7660395e-01
-1.5777795e-01
-1.1018306e-01
-4.4999288e-02
1.6303594e-02
5.8755054e-02
9.6942067e-02
1.3124548e-01
1.5972355e-01
1.8347885e-01
1.9589134e-01
2.0527318e-01
2.0911182e-01
2.0705104e-01
1.9827188e-01
1.7521559e-01
1.5081415e-01
1.2652060e-01
1.0340685e-01
8.0189948e-02
4.8233369e-02
2.1157479e-02
3.6230487e-03
-1.1086778e-03
3.7475867e-03
7.2410321e-03
2.0772515e-02
4.5475809e-02
7.9013448e-02
1.0895413e-01
1.1783809e-01
1.1689154e-01
1.0837747e-01
9.6499498e-02
8.1238007e-02
4.9614423e-02
1.2117247e-02
-2.5092363e-02
-5.3435365e-02
-6.9641302e-02
-8.4107837e-02
-8.8469027e-02
-8.0948764e-02
-5.7766932e-02
-2.2533285e-02
7.9988455e-03
3.6812598e-02
6.2291154e-02
8.8162026e-02
1.1253650e-01
1.2002805e-01
1.1159487e-01
8.3186139e-02
4.6030957e-02
1.3290674e-02
-2.1358382e-02
-5.4127049e-02
-8.5128173e-02
-1.0444829e-01
-1.1006808e-01
-1.1360734e-01
-1.0971630e-01
-1.0015142e-01
-7.7597334e-02
-4.2894272e-02
-1.3889763e-02
4.9787138e-03
4.1658377e-03
-9.9082233e-03
-3.1675314e-02
-6.5825375e-02
-1.0225797e-01
-1.4179652e-01
-1.7343856e-01
-1.8829975e-01
-1.9069923e-01
-1.7178561e-01
-1.3342960e-01
-7.8003581e-02
-2.0694094e-02
2.2844174e-02
6.1005227e-02
8.9491131e-02
1.1324244e-01
1.3665043e-01
1.5194204e-01
1.6335075e-01
1.6499351e-01
1.5941621e-01
1.4863846e-01
1.2954331e-01
1.1227361e-01
9.3437414e-02
7.7370720e-02
6.6819155e-02
5.8017509e-02
5.8000164e-02
5.9336294e-02
6.2367009e-02
6.4546475e-02
5.7812151e-02
4.9104666e-02
3.6110392e-02
2.3905042e-02
1.0189221e-02
-1.2139586e-02
-3.2810435e-02
-5.1272246e-02
-6.0571420e-02
-6.3964367e-02
-6.9889498e-02
-6.7957730e-02
-5.8971005e-02
-3.8315791e-02
-1.3481064e-02
3.5067638e-03
2.1583435e-02
3.7572918e-02
5.6014458e-02
7.2000894e-02
7.2477074e-02
6.4530246e-02
4.9272838e-02
3.9545990e-02
3.8683350e-02
3.4252945e-02
2.8143428e-02
2.0942135e-02
2.4738663e-02
3.8643075e-02
4.8609463e-02
5.6454535e-02
6.0666048e-02
6.9779966e-02
8.0888678e-02
7.9917558e-02
6.6761823e-02
4.0534798e-02
1.5479373e-02
-6.1722989e-03
-3.2596374e-02
-5.9582833e-02
-8.8587625e-02
-1.0594658e-01
-1.0737514e-01
-1.0247456e-01
-9.5209598e-02
-9.2538187e-02
-8.1910301e-02
-6.1594366e-02
-4.2206368e-02
-2.8013201e-02
-2.7833121e-02
-2.7852483e-02
-2.3791571e-02
-2.3049870e-02
-2.4208604e-02
-3.6427754e-02
-5.0045138e-02
-5.7655525e-02
-6.2148361e-02
-6.3613853e-02
-7.3600451e-02
-8.2558557e-02
-8.2887125e-02
-7.7210328e-02
-6.5696404e-02
-5.9483981e-02
-4.8938249e-02
-2.9992683e-02
-1.0835844e-02
6.2755611e-03
1.0747868e-02
8.6492055e-03
3.9308067e-03
-2.5447656e-03
-3.7664275e-03
-1.4058141e-03
8.9999795e-03
1.7001161e-02
1.8896594e-02
2.3664066e-02
2.4340839e-02
2.6754507e-02
3.2548311e-02
4.1364565e-02
5.6497973e-02
6.7187238e-02
7.7227656e-02
8.5177980e-02
8.7884861e-02
8.8905055e-02
8.2432999e-02
7.6321657e-02
6.7420936e-02
5.3063721e-02
4.0756680e-02
2.8154356e-02
2.2940956e-02
1.7150838e-02
3.8585269e-03
-1.2007677e-02
-3.7142898e-02
-6.0434095e-02
-7.4702967e-02
-7.9306157e-02
-7.1058102e-02
-5.7855843e-02
-3.4995164e-02
-9.8889583e-03
7.5639151e-03
1.8638051e-02
1.6429680e-02
9.4410720e-03
-3.3991016e-03
-2.7120910e-02
-5.5827063e-02
-8.8163258e-02
-1.0991244e-01
-1.2005792e-01
-1.2459344e-01
-1.2438190e-01
-1.2301810e-01
-1.0766582e-01
-8.0031645e-02
-4.8342125e-02
-1.5424533e-02
1.3411559e-02
4.8218427e-02
8.5065832e-02
1.1727826e-01
1.4015412e-01
1.4564299e-01
1.5019285e-01
1.5991612e-01
1.7246088e-01
1.8279359e-01
1.8270590e-01
1.8845555e-01
2.0330936e-01
2.2398273e-01
2.4684868e-01
2.6203425e-01
2.8262288e-01
3.0972119e-01
3.3919399e-01
3.6336419e-01
3.6055814e-01
3.3400710e-01
2.8590840e-01
2.1568625e-01
1.2123293e-01
-4.6240650e-03
-1.3635672e-01
-2.4858672e-01
-3.3108310e-01
-3.8840668e-01
-4.3631462e-01
-4.6787232e-01
-4.8172780e-01
-4.7784084e-01
-4.5909352e-01
-4.4185216e-01
-4.2306000e-01
-4.0005517e-01
-3.6837061e-01
-3.3167637e-01
-3.0608179e-01
-2.8887699e-01
-2.8111323e-01
-2.7492694e-01
-2.6288561e-01
-2.5242324e-01
-2.3619865e-01
-2.0960191e-01
-1.6169040e-01
-8.7372815e-02
8.5883504e-03
1.2174115e-01
2.1940946e-01
2.9219416e-01
3.4664094e-01
3.7674468e-01
3.9064825e-01
3.8425138e-01
3.6255328e-01
3.3390974e-01
2.9399230e-01
2.5334850e-01
2.1074466e-01
1.7134238e-01
1.4251802e-01
1.1848524e-01
1.0664211e-01
1.0283758e-01
1.0692414e-01
1.1845001e-01
1.2791197e-01
1.4039822e-01
1.4732135e-01
1.4364522e-01
1.2537358e-01
8.1236108e-02
2.7895832e-02
-1.8891636e-02
-5.2973873e-02
-7.7910717e-02
-1.0252672e-01
-1.1929190e-01
-1.2991002e-01
-1.3424817e-01
-1.3576488e-01
-1.4242846e-01
-1.4429811e-01
-1.4261090e-01
-1.3524850e-01
-1.2578628e-01
-1.2451780e-01
-1.2021287e-01
-1.1451612e-01
-1.0918624e-01
-1.1108090e-01
-1.3051151e-01
-1.5190580e-01
-1.6746993e-01
-1.6776218e-01
-1.5107235e-01
-1.2071893e-01
-7.1158833e-02
-2.1976488e-02
2.3709661e-02
6.8170542e-02
1.0104763e-01
1.3156137e-01
1.6171661e-01
1.9685667e-01
2.3074792e-01
2.4570742e-01
2.4955510e-01
2.4632757e-01
2.4392353e-01
2.3997193e-01
2.2103063e-01
1.9719106e-01
1.7314050e-01
1.5722488e-01
1.4971342e-01
1.3762260e-01
1.2499990e-01
1.1191482e-01
1.0594525e-01
1.0680144e-01
9.9371155e-02
8.6080171e-02
7.0609744e-02
6.3853868e-02
6.4702586e-02
5.7794416e-02
4.1395712e-02
1.2639591e-02
-1.5754448e-02
-3.9940071e-02
-6.9731741e-02
-1.0010347e-01
-1.3267902e-01
-1.5571513e-01
-1.6463524e-01
-1.6898019e-01
-1.6528867e-01
-1.5998403e-01
-1.4739951e-01
-1.2562351e-01
-1.0431790e-01
-8.2535233e-02
-7.1463404e-02
-6.6869963e-02
-6.4392506e-02
-7.1590817e-02
-8.1538802e-02
-9.6283383e-02
-1.0864553e-01
-1.1442161e-01
-1.1964566e-01
-1.1897934e-01
-1.1724429e-01
-1.0770422e-01
-8.8272677e-02
-6.7797156e-02
-4.1040717e-02
-1.4164353e-02
1.3250555e-02
3.9772020e-02
5.9414723e-02
7.9475884e-02
9.2935170e-02
9.7971604e-02
9.1713251e-02
7.0613344e-02
4.5669683e-02
1.4653780e-02
-1.6419893e-02
-4.4208367e-02
-6.9057256e-02
-8.2256586e-02
-9.0612304e-02
-8.9606805e-02
-8.1819917e-02
-7.6013159e-02
-6.3476557e-02
-4.6637596e-02
-2.2614744e-02
2.1919339e-03
1.8061564e-02
3.1662599e-02
3.8852839e-02
4.6090177e-02
5.1142312e-02
4.4820002e-02
3.6825110e-02
2.8037563e-02
2.8170851e-02
3.6779878e-02
4.2495128e-02
5.2523183e-02
6.8373732e-02
9.6353852e-02
1.2586980e-01
1.3513749e-01
1.2978100e-01
1.1810548e-01
1.1008666e-01
9.8204032e-02
6.7716011e-02
2.5175818e-02
-2.4849704e-02
-6.9095630e-02
-1.0468877e-01
-1.3835825e-01
-1.6541117e-01
-1.8677665e-01
-1.9147902e-01
-1.7912127e-01
-1.6109387e-01
-1.3965659e-01
-1.2132576e-01
-9.6159002e-02
-6.2826898e-02
-3.2400824e-02
-8.3946428e-03
3.4153198e-03
1.7365687e-02
3.8194828e-02
5.9789765e-02
8.1295432e-02
9.0140385e-02
9.4646066e-02
9.9679081e-02
1.0125177e-01
1.0266107e-01
9.5481601e-02
8.9215256e-02
8.8716886e-02
8.8233739e-02
8.7019563e-02
7.1858542e-02
4.9528128e-02
2.5502492e-02
-4.7036407e-03
-3.7416982e-02
-7.8295264e-02
-1.1539174e-01
-1.4017065e-01
-1.5552171e-01
-1.5800121e-01
-1.5622440e-01
-1.4614400e-01
-1.2446403e-01
-9.2430462e-02
-4.9783342e-02
-1.3451388e-02
1.5707348e-02
3.7519239e-02
4.9196435e-02
5.7228628e-02
5.5226806e-02
4.7341963e-02
3.5892813e-02
2.1544589e-02
1.1673297e-02
1.4403819e-03
-3.9022347e-03
-5.4366979e-03
-4.4652765e-03
6.0485519e-03
1.9855491e-02
4.2872980e-02
7.0592498e-02
9.2375262e-02
1.1023344e-01
1.1790552e-01
1.2038287e-01
1.1447852e-01
9.8331187e-02
8.1237336e-02
5.8129766e-02
3.6944419e-02
1.6615748e-02
-8.1332816e-03
-2.8779915e-02
-4.6994922e-02
-5.3880781e-02
-5.1373252e-02
-4.9754078e-02
-4.6130130e-02
-4.3293683e-02
-3.3689953e-02
-2.1883327e-02
-2.0455180e-02
-2.6452381e-02
-3.8588378e-02
-4.5181897e-02
-4.6236669e-02
-4.7575044e-02
-4.6300063e-02
-4.5378163e-02
-3.1228856e-02
7.7786880e-04
4.7085655e-02
1.0204668e-01
1.4563915e-01
1.8304216e-01
2.1884584e-01
2.4730541e-01
2.6511407e-01
2.6517079e-01
2.6021739e-01
2.5256057e-01
2.3394958e-01
2.0106360e-01
1.5004462e-01
9.7930253e-02
4.9758711e-02
2.3915782e-03
-4.2551139e-02
-9.1251947e-02
-1.3018850e-01
-1.5495343e-01
-1.6951856e-01
-1.7372080e-01
-1.7684156e-01
-1.6885665e-01
-1.4637373e-01
-1.1310330e-01
-7.3721852e-02
-4.9095355e-02
-3.6205316e-02
-2.9841894e-02
-3.0511746e-02
-3.5831529e-02
-5.3723133e-02
-7.3942112e-02
-9.1462644e-02
-1.0777854e-01
-1.1973873e-01
-1.3471868e-01
-1.4583142e-01
-1.4969004e-01
-1.4541921e-01
-1.3003643e-01
-1.1319955e-01
-9.2171385e-02
-6.9164434e-02
-4.5177187e-02
-1.8971913e-02
-1.7531389e-03
1.2406010e-02
2.5851871e-02
4.2819974e-02
6.4678593e-02
7.2914950e-02
7.0887208e-02
6.2429365e-02
5.0662738e-02
4.2296327e-02
3.3565396e-02
3.4216189e-02
4.0048979e-02
4.5801679e-02
5.6399941e-02
6.5092917e-02
7.5280631e-02
8.1820622e-02
8.2647913e-02
8.3142135e-02
7.8042967e-02
7.5913947e-02
7.2967904e-02
6.3690600e-02
5.3059820e-02
3.8355446e-02
3.0103165e-02
2.7337425e-02
2.5322404e-02
2.5890453e-02
2.4438760e-02
3.1029640e-02
4.2844693e-02
5.2551297e-02
5.9395762e-02
5.7593813e-02
5.6244602e-02
5.2209333e-02
4.0654664e-02
2.5101013e-02
3.4500140e-03
-1.1603626e-02
-1.8363391e-02
-1.9892217e-02
-1.7180386e-02
-1.7030432e-02
-7.9391631e-03
1.0383071e-02
3.1194487e-02
4.7823826e-02
5.1403330e-02
5.3638418e-02
5.1599198e-02
3.6463614e-02
8.3317853e-03
-2.9467262e-02
-5.8947282e-02
-7.9066540e-02
-9.1120096e-02
-9.7514406e-02
-1.1095742e-01
-1.2169426e-01
-1.2641062e-01
-1.2481153e-01
-1.1696450e-01
-1.1569576e-01
-1.1441833e-01
-1.0934805e-01
-9.9666290e-02
-8.7729427e-02
-8.7129176e-02
-9.1011463e-02
-9.5862343e-02
-9.9324261e-02
-9.8315726e-02
-9.8453120e-02
-8.6412563e-02
-5.3498556e-02
6.9593660e-03
8.7649338e-02
1.5693373e-01
2.0894240e-01
2.4483445e-01
2.6749213e-01
2.7836280e-01
2.6759856e-01
2.4128409e-01
2.0325730e-01
1.6284390e-01
1.2635185e-01
8.5401899e-02
4.5801743e-02
7.5570412e-03
-2.5996962e-02
-5.2226065e-02
-7.8281148e-02
-9.7716201e-02
-1.1510358e-01
-1.2831695e-01
-1.3084356e-01
-1.2812312e-01
-1.1112075e-01
-8.1398762e-02
-3.7617437e-02
1.8329284e-02
6.5500276e-02
1.0398932e-01
1.3147108e-01
1.4773113e-01
1.5674825e-01
1.5358282e-01
1.4531566e-01
1.2763422e-01
9.9841679e-02
6.5739473e-02
2.2743552e-02
-1.6621436e-02
-5.3312871e-02
-8.8984566e-02
-1.2050796e-01
-1.5018655e-01
-1.6750820e-01
-1.7580903e-01
-1.7897318e-01
-1.7735591e-01
-1.7594648e-01
-1.6510975e-01
-1.4762795e-01
-1.2682099e-01
-1.0712959e-01
-9.8583710e-02
-9.2031214e-02
-8.8045436e-02
-8.6153148e-02
-8.7552818e-02
-9.9772607e-02
-1.0987166e-01
-1.1545840e-01
-1.1722812e-01
-1.1796422e-01
-1.2407423e-01
-1.2317215e-01
-1.1466175e-01
-9.8537634e-02
-7.9294365e-02
-6.8089782e-02
-5.3972716e-02
-3.5870385e-02
-1.2682262e-02
1.3316932e-02
3.0501040e-02
4.6567743e-02
6.1353854e-02
7.8308550e-02
9.2479039e-02
8.3708511e-02
5.9405549e-02
2.7527255e-02
-3.1892233e-03
-3.1188671e-02
-6.6451497e-02
-9.8586300e-02
-1.2369314e-01
-1.3750603e-01
-1.4041711e-01
-1.4475532e-01
-1.4652914e-01
-1.4582903e-01
-1.3691185e-01
-1.1857947e-01
-1.0309491e-01
-8.8077135e-02
-7.2512164e-02
-4.5312011e-02
-4.0736394e-03
3.6170188e-02
7.3734481e-02
1.0226918e-01
1.2610307e-01
1.4720262e-01
1.5758998e-01
1.6490456e-01
1.6851098e-01
1.7556668e-01
1.8973996e-01
2.0336173e-01
2.2071910e-01
2.3335988e-01
2.4375929e-01
2.5581867e-01
2.6025096e-01
2.6088842e-01
2.5272920e-01
2.4023966e-01
2.2726291e-01
2.0690838e-01
1.8680031e-01
1.6319318e-01
1.4171613e-01
1.2859252e-01
1.1509728e-01
1.0477882e-01
9.0925193e-02
7.0647942e-02
4.6302610e-02
1.8253481e-02
-4.5442696e-03
-2.7898001e-02
-5.1437173e-02
-7.3997559e-02
-1.0002811e-01
-1.2173487e-01
-1.4316616e-01
-1.6287779e-01
-1.7988845e-01
-1.9848521e-01
-2.0929146e-01
-2.1385994e-01
-2.0971665e-01
-1.9871314e-01
-1.8816077e-01
-1.7016085e-01
-1.4770373e-01
-1.1849885e-01
-8.6963122e-02
-6.4760699e-02
-4.3482325e-02
-2.1969632e-02
6.4511759e-03
3.4320660e-02
4.0736564e-02
3.2254093e-02
1.4044683e-02
-3.2107178e-03
-1.6739726e-02
-3.3803010e-02
-4.3958630e-02
-4.6978867e-02
-3.8167633e-02
-1.9610568e-02
-4.6453526e-03
1.1325807e-02
2.6932676e-02
4.6767582e-02
6.7404599e-02
7.4470139e-02
7.3094064e-02
6.4154301e-02
5.6082916e-02
5.0297812e-02
3.6287556e-02
2.0492503e-02
4.5276291e-03
-3.9405850e-03
-4.3228904e-03
-6.7280993e-03
-8.7674960e-03
-1.2765188e-02
-1.0824824e-02
-4.2033537e-03
-7.0337233e-03
-2.0207014e-02
-4.7443062e-02
-7.7736113e-02
-1.0479791e-01
-1.3505936e-01
-1.6403816e-01
-1.9073351e-01
-1.9979643e-01
-1.8572137e-01
-1.6096018e-01
-1.3031897e-01
-1.0421495e-01
-7.4748974e-02
-3.8269589e-02
-4.3122751e-03
2.8383509e-02
5.1134509e-02
6.8864153e-02
8.4546773e-02
9.1455297e-02
9.4349390e-02
8.6538721e-02
7.5441517e-02
6.9043379e-02
6.3206958e-02
6.3651128e-02
6.6014297e-02
7.5266124e-02
9.3715425e-02
1.1409175e-01
1.3965602e-01
1.6383708e-01
1.8884687e-01
2.1259593e-01
2.2482416e-01
2.2863626e-01
2.1877979e-01
1.9878719e-01
1.7093873e-01
1.3431750e-01
9.9381437e-02
6.3956747e-02
3.2434994e-02
5.4656798e-03
-1.9636849e-02
-3.4800134e-02
-4.5194038e-02
-4.7609505e-02
-4.3872260e-02
-4.1922090e-02
-3.6529346e-02
-3.1150022e-02
-2.1745713e-02
-1.4050164e-02
-1.7450819e-02
-2.2531110e-02
-3.1216385e-02
-3.8275595e-02
-4.3549905e-02
-5.1971631e-02
-5.4150072e-02
-5.2559983e-02
-4.2698100e-02
-2.8057606e-02
-2.0129370e-02
-1.5421607e-02
-1.7990611e-02
-2.2185512e-02
-3.0229859e-02
-5.2377213e-02
-8.1383563e-02
-1.1437644e-01
-1.3859436e-01
-1.5032343e-01
-1.5659462e-01
-1.4946051e-01
-1.2721717e-01
-8.2059129e-02
-1.8365125e-02
4.4480018e-02
9.8689916e-02
1.3540071e-01
1.6069657e-01
1.7646660e-01
1.7653186e-01
1.6493051e-01
1.4073238e-01
1.1741600e-01
9.9461553e-02
7.8013183e-02
5.3299831e-02
2.1602698e-02
-6.5134435e-03
-2.6118511e-02
-4.0638824e-02
-5.0781195e-02
-6.7350732e-02
-8.3087189e-02
-9.6783970e-02
-1.1747279e-01
-1.4476380e-01
-1.8545028e-01
-2.2916691e-01
-2.6914970e-01
-3.0876882e-01
-3.4372293e-01
-3.7945492e-01
-4.0589274e-01
-4.1557780e-01
-4.1130789e-01
-3.9027208e-01
-3.6203173e-01
-3.2073925e-01
-2.6135266e-01
-1.9022918e-01
-1.0726216e-01
-2.0472442e-02
7.8198458e-02
1.8382744e-01
2.7148594e-01
3.3730800e-01
3.7930307e-01
4.0591183e-01
4.2171892e-01
4.2527469e-01
4.2484038e-01
4.1753475e-01
4.0888822e-01
3.9997647e-01
3.8658532e-01
3.7228985e-01
3.4930981e-01
3.1973901e-01
2.8124252e-01
2.2925907e-01
1.7116419e-01
1.0544202e-01
4.1863676e-02
-1.9076266e-02
-8.2772238e-02
-1.4074751e-01
-1.9528096e-01
-2.4139320e-01
-2.7884457e-01
-3.0731090e-01
-3.1769127e-01
-3.1605929e-01
-3.0004496e-01
-2.7553164e-01
-2.5250623e-01
-2.2606898e-01
-1.9926224e-01
-1.6495239e-01
-1.2485694e-01
-8.8078511e-02
-5.0279335e-02
-1.5890056e-02
2.0052628e-02
5.5472258e-02
8.0603934e-02
9.9160906e-02
1.1106445e-01
1.2768025e-01
1.4830280e-01
1.6085098e-01
1.6725813e-01
1.6502493e-01
1.6191287e-01
1.6045699e-01
1.5676955e-01
1.5116364e-01
1.3590631e-01
1.1953760e-01
1.0320661e-01
7.7493232e-02
4.1979252e-02
-4.6966330e-03
-4.6272297e-02
-7.7168931e-02
-1.0575697e-01
-1.3191866e-01
-1.5746725e-01
-1.6915454e-01
-1.6570471e-01
-1.5796990e-01
-1.4771645e-01
-1.4174938e-01
-1.3140000e-01
-1.1493911e-01
-9.9052916e-02
-8.3368187e-02
-7.5859561e-02
-6.6250576e-02
-5.1468849e-02
-4.0924336e-02
-3.3232412e-02
-3.3056689e-02
-3.0677831e-02
-2.1041353e-02
-8.3108932e-03
8.2503683e-03
1.9742168e-02
3.3910677e-02
5.4608459e-02
7.6299059e-02
1.0052457e-01
1.1910682e-01
1.3742582e-01
1.5809515e-01
1.7693828e-01
1.9644226e-01
2.0741086e-01
2.1177096e-01
2.0893146e-01
1.9455592e-01
1.7161715e-01
1.3270673e-01
8.2716723e-02
2.8564367e-02
-2.1354980e-02
-5.8519820e-02
-8.9841509e-02
-1.0891074e-01
-1.1585797e-01
-1.1531805e-01
-1.0324768e-01
-8.5213071e-02
-5.7460222e-02
-2.6414171e-02
-4.4925585e-04
2.4799826e-02
4.3646985e-02
5.9765612e-02
6.7255250e-02
5.9705947e-02
4.6986443e-02
3.0025760e-02
1.8190307e-02
8.4144377e-03
-6.2765639e-03
-1.8231278e-02
-2.9877916e-02
-3.2768902e-02
-2.7661540e-02
-2.4411973e-02
-2.0386314e-02
-1.6870618e-02
-4.6746444e-03
1.2006054e-02
1.8042232e-02
1.2110019e-02
-7.0860434e-03
-2.9019354e-02
-5.4021353e-02
-9.0694268e-02
-1.3574887e-01
-1.8669843e-01
-2.2863540e-01
-2.5861004e-01
-2.8271067e-01
-2.9881117e-01
-3.0938381e-01
-3.0179573e-01
-2.7433704e-01
-2.3715907e-01
-1.9343695e-01
-1.4790637e-01
-8.4892463e-02
-8.9194143e-03
5.2539838e-02
9.0100730e-02
1.0349329e-01
1.1023191e-01
1.1620972e-01
1.1672714e-01
1.1340610e-01
1.0064784e-01
9.0471887e-02
8.7854955e-02
8.8583004e-02
9.3665009e-02
9.2997564e-02
9.4852777e-02
1.0487874e-01
1.1802920e-01
1.3323254e-01
1.3985423e-01
1.4452655e-01
1.5033551e-01
1.5083090e-01
1.4446975e-01
1.2128146e-01
9.0042152e-02
5.7349670e-02
2.2030621e-02
-1.0040629e-02
-4.3588267e-02
-7.1338684e-02
-8.8792054e-02
-9.7475204e-02
-9.6052924e-02
-9.4856685e-02
-9.1251610e-02
-8.5508102e-02
-8.0074381e-02
-7.0442327e-02
-6.5157293e-02
-6.2230573e-02
-6.1838164e-02
-6.5330642e-02
-6.5874750e-02
-6.7367422e-02
-6.4262725e-02
-5.9131826e-02
-5.5603076e-02
-4.4634336e-02
-2.7718506e-02
3.4592953e-03
4.2035114e-02
7.1946454e-02
9.6107432e-02
1.1290788e-01
1.3020372e-01
1.4594990e-01
1.5369482e-01
1.6054133e-01
1.6267328e-01
1.6545012e-01
1.6523828e-01
1.5179340e-01
1.2912725e-01
9.6212334e-02
6.5163811e-02
3.7432520e-02
3.5736679e-03
-3.0611976e-02
-6.2861428e-02
-8.1185704e-02
-8.5760706e-02
-8.8008554e-02
-8.5121275e-02
-7.9190344e-02
-6.5927207e-02
-5.2038600e-02
-4.9901329e-02
-5.5937261e-02
-6.8905560e-02
-7.5698424e-02
-7.4354545e-02
-7.5277332e-02
-7.8565428e-02
-8.6472462e-02
-8.8013526e-02
-8.1758892e-02
-7.6749069e-02
-7.4815182e-02
-8.0599957e-02
-8.0705517e-02
-7.0843574e-02
-5.8831347e-02
-4.5313446e-02
-3.6172263e-02
-2.0188614e-02
5.4841299e-03
3.3305525e-02
6.4485539e-02
9.1221800e-02
1.2265102e-01
1.5751398e-01
1.7897994e-01
1.8492771e-01
1.6878418e-01
1.4168142e-01
1.1395323e-01
8.4551928e-02
5.8517247e-02
3.0122468e-02
9.2628041e-03
2.6970895e-03
3.9575281e-03
1.3775983e-02
2.4007179e-02
4.0013630e-02
6.4611060e-02
9.1102302e-02
1.2024179e-01
1.4239006e-01
1.5946311e-01
1.7063793e-01
1.6904706e-01
1.5769193e-01
1.2668475e-01
7.3336096e-02
6.4912280e-03
-5.4214473e-02
-9.3723964e-02
-1.2188339e-01
-1.3675167e-01
-1.3962931e-01
-1.3722096e-01
-1.2491176e-01
-1.0751479e-01
-8.2520836e-02
-5.6313657e-02
-3.9276396e-02
-2.6971429e-02
-2.4976515e-02
-3.0532793e-02
-4.7722102e-02
-8.2506804e-02
-1.2121476e-01
-1.5991870e-01
-1.8997815e-01
-2.1218679e-01
-2.3206327e-01
-2.3709916e-01
-2.2398563e-01
-1.8395623e-01
-1.2703863e-01
-7.8529273e-02
-3.8310387e-02
-6.0359912e-03
2.7085362e-02
6.0236625e-02
7.9845839e-02
8.9206161e-02
9.0768113e-02
9.5515482e-02
1.0323490e-01
1.0231824e-01
9.6527484e-02
8.7387025e-02
8.5756038e-02
9.1652983e-02
9.2818301e-02
9.1496783e-02
8.7587954e-02
9.2146762e-02
1.0676469e-01
1.1880267e-01
1.2742080e-01
1.2869663e-01
1.3123917e-01
1.3501944e-01
1.2705156e-01
1.0634648e-01
6.8774248e-02
2.6784461e-02
-1.2161818e-02
-5.3446188e-02
-9.2918478e-02
-1.3298970e-01
-1.6218399e-01
-1.7658946e-01
-1.8575505e-01
-1.8834727e-01
-1.9144301e-01
-1.8865433e-01
-1.7637399e-01
-1.6234047e-01
-1.4548292e-01
-1.3523459e-01
-1.2627090e-01
-1.1287452e-01
-1.0007021e-01
-8.3016247e-02
-6.7883850e-02
-4.8656841e-02
-2.3026172e-02
-3.4233407e-03
1.3208102e-02
2.3423207e-02
3.1899878e-02
4.2419332e-02
4.8809402e-02
5.6856527e-02
6.3340321e-02
6.9029075e-02
7.2756694e-02
7.0902526e-02
7.1505813e-02
6.8577331e-02
6.1927110e-02
5.1221044e-02
3.0942108e-02
7.4277488e-03
-2.2410351e-02
-5.3713366e-02
-8.4807279e-02
-1.1883190e-01
-1.4322573e-01
-1.5637574e-01
-1.5148427e-01
-1.3338201e-01
-1.1910725e-01
-1.0342649e-01
-8.6322624e-02
-6.3866785e-02
-3.9952164e-02
-2.5695639e-02
-1.3501370e-02
-5.1049786e-03
2.5679989e-03
7.6938224e-03
1.8540766e-03
-5.5193922e-03
-1.3694897e-02
-1.6633094e-02
-1.5083416e-02
-2.0150875e-02
-2.4053719e-02
-2.4626935e-02
-1.5593177e-02
6.1091439e-04
9.4586461e-03
1.5352265e-02
1.7982277e-02
2.1225442e-02
2.5686078e-02
2.4662138e-02
2.5916999e-02
2.9759531e-02
4.0908527e-02
5.6030031e-02
6.1236382e-02
5.9677730e-02
5.0692081e-02
4.2726573e-02
4.0256889e-02
3.5089760e-02
3.1667971e-02
2.9574797e-02
3.7304620e-02
5.8210031e-02
8.1119069e-02
1.0532699e-01
1.2646868e-01
1.5138666e-01
1.7965274e-01
1.9731459e-01
2.0508300e-01
1.9551915e-01
1.6946132e-01
1.3499707e-01
9.9097750e-02
7.3443849e-02
5.0742022e-02
3.3077823e-02
2.3758457e-02
1.5831004e-02
1.3912812e-02
1.1827893e-02
1.2548750e-02
1.9117145e-02
2.3385123e-02
3.0940174e-02
3.5867790e-02
3.7578877e-02
3.7740198e-02
2.9420953e-02
1.7841413e-02
-3.1981674e-03
-3.2760594e-02
-6.7549088e-02
-1.1211829e-01
-1.5415477e-01
-1.9110039e-01
-2.1800069e-01
-2.3316061e-01
-2.4536332e-01
-2.4553033e-01
-2.3488295e-01
-2.1408298e-01
-1.8360152e-01
-1.5139342e-01
-1.1147302e-01
-6.8311874e-02
-2.4167768e-02
1.7228390e-02
4.7765820e-02
7.7303171e-02
1.0591462e-01
1.3518185e-01
1.6221850e-01
1.7812001e-01
1.9420135e-01
2.1246261e-01
2.3314829e-01
2.4902797e-01
2.4814805e-01
2.4048125e-01
2.2399023e-01
1.9479564e-01
1.5700487e-01
1.2139183e-01
1.0544995e-01
1.0268822e-01
1.0865780e-01
1.1563219e-01
1.0669871e-01
8.8070010e-02
6.1597854e-02
3.1362804e-02
-1.7145726e-03
-4.7669263e-02
-9.5168281e-02
-1.3667169e-01
-1.6601976e-01
-1.8320008e-01
-2.0097004e-01
-2.1318043e-01
-2.1782425e-01
-2.1303411e-01
-1.9907798e-01
-1.8695059e-01
-1.7229180e-01
-1.5240260e-01
-1.1824309e-01
-7.4168502e-02
-4.6207939e-02
-3.5992738e-02
-4.0206438e-02
-4.8233930e-02
-5.2676241e-02
-6.1342340e-02
-6.8136544e-02
-7.1524750e-02
-6.5222438e-02
-4.6562105e-02
-2.6455600e-02
-1.4762086e-03
2.5548815e-02
5.6987322e-02
9.3947317e-02
1.2454569e-01
1.5091356e-01
1.6559292e-01
1.6726717e-01
1.6014208e-01
1.3830778e-01
1.0874422e-01
6.7774949e-02
1.8903472e-02
-2.5776308e-02
-6.3914314e-02
-8.3951161e-02
-9.0210368e-02
-8.7522289e-02
-7.5563720e-02
-6.2067284e-02
-4.1511945e-02
-1.9404994e-02
-1.5964616e-03
1.1906785e-02
1.6146907e-02
2.0550774e-02
2.2315919e-02
1.6348393e-02
4.2179159e-03
-1.5176798e-02
-2.8794318e-02
-3.6554400e-02
-4.1330905e-02
-4.2551333e-02
-4.4859829e-02
-3.7710630e-02
-2.0856937e-02
2.0636588e-03
2.6631853e-02
4.5054848e-02
6.8404912e-02
9.5955149e-02
1.2235113e-01
1.4180752e-01
1.4451489e-01
1.4115509e-01
1.3238274e-01
1.1555960e-01
8.9647852e-02
4.9670189e-02
1.1035194e-02
-2.1593846e-02
-4.7636487e-02
-6.6161765e-02
-8.5238618e-02
-9.3948916e-02
-9.0263547e-02
-7.7065222e-02
-5.8179876e-02
-4.8424383e-02
-4.1685456e-02
-3.5327912e-02
-3.0917112e-02
-2.9642394e-02
-3.9892636e-02
-5.0934243e-02
-5.8952857e-02
-6.3860257e-02
-6.4488213e-02
-7.0897319e-02
-7.6647889e-02
-7.8485346e-02
-7.4699993e-02
-6.2452145e-02
-5.1174189e-02
-3.6679636e-02
-1.8298931e-02
4.5195510e-03
3.3323782e-02
5.6732701e-02
7.7245093e-02
9.4194922e-02
1.0694643e-01
1.1624107e-01
1.1194567e-01
9.8778700e-02
7.6899840e-02
4.8929480e-02
2.1272132e-02
-1.0260291e-02
-3.6753512e-02
-5.9070501e-02
-7.5989075e-02
-8.0437049e-02
-7.7883789e-02
-6.2845916e-02
-4.1656111e-02
-1.9678667e-02
7.1618902e-03
3.0732333e-02
5.2703094e-02
6.7212101e-02
7.1669024e-02
7.2659505e-02
6.5749251e-02
5.9783060e-02
5.4815627e-02
4.7584822e-02
4.3205906e-02
3.7517193e-02
3.8933340e-02
4.5540633e-02
5.0772755e-02
5.8196477e-02
6.4067314e-02
7.6622938e-02
9.3267203e-02
1.0388686e-01
1.0799438e-01
1.0275949e-01
9.6858045e-02
8.6788379e-02
6.4821363e-02
3.3691625e-02
-6.7490497e-03
-4.2639180e-02
-7.0432868e-02
-9.3329204e-02
-1.1019256e-01
-1.2628192e-01
-1.2863004e-01
-1.1410566e-01
-9.1638076e-02
-6.6592051e-02
-4.7732768e-02
-2.5240824e-02
2.0898343e-04
2.0354979e-02
3.3116245e-02
3.1195812e-02
2.6627451e-02
2.2506619e-02
1.4369415e-02
3.8187777e-03
-1.6520452e-02
-3.6278073e-02
-5.0457257e-02
-6.2492916e-02
-7.1344919e-02
-8.5941217e-02
-9.7761551e-02
-1.0094032e-01
-9.8544234e-02
-9.1276898e-02
-8.9818391e-02
-8.7914493e-02
-8.3374987e-02
-8.1748910e-02
-8.2226044e-02
-9.2328275e-02
-1.0251642e-01
-1.0283503e-01
-8.7743863e-02
-5.7486825e-02
-3.4838281e-02
-2.0642102e-02
-8.2032159e-03
4.7283320e-03
2.4887398e-02
4.5123137e-02
6.8042159e-02
9.2938448e-02
1.1573038e-01
1.3884082e-01
1.5368821e-01
1.6252066e-01
1.6277731e-01
1.5189236e-01
1.3792082e-01
1.1766231e-01
9.8420469e-02
7.9237122e-02
5.6129562e-02
3.8208290e-02
2.2945378e-02
1.5753800e-02
1.2329160e-02
4.6553141e-03
8.6238419e-04
-7.8288723e-04
5.6394108e-03
1.6758508e-02
2.3326747e-02
2.9661183e-02
3.1126347e-02
3.2387405e-02
2.9821114e-02
1.3731657e-02
-1.0755368e-02
-4.3308316e-02
-7.1604631e-02
-9.3715396e-02
-1.1907649e-01
-1.4138494e-01
-1.5826662e-01
-1.6019891e-01
-1.4916761e-01
-1.3808231e-01
-1.2420985e-01
-1.0838575e-01
-8.4486427e-02
-5.6834089e-02
-4.0037328e-02
-3.2304040e-02
-3.0828021e-02
-2.3167287e-02
-8.7937151e-03
9.6378236e-04
4.6958778e-03
-7.2147651e-04
-1.9205357e-03
5.5022084e-03
1.2324060e-02
1.7499155e-02
1.7025594e-02
2.2911239e-02
3.6470412e-02
4.6980587e-02
5.6147124e-02
5.9522968e-02
6.7463132e-02
8.4115065e-02
9.9071425e-02
1.1007630e-01
1.0800289e-01
9.9853364e-02
9.0155633e-02
7.4811571e-02
5.8883303e-02
3.4442899e-02
9.0784289e-03
-9.7440565e-03
-2.6178309e-02
-3.5499290e-02
-4.3804749e-02
-4.4830901e-02
-3.4823443e-02
-2.1900850e-02
-3.2594789e-03
1.5588207e-02
3.6829864e-02
5.8922986e-02
7.4160266e-02
8.6629372e-02
8.9860342e-02
8.5995726e-02
7.6356142e-02
5.7716664e-02
3.8567973e-02
1.5995282e-02
-5.8879410e-03
-2.5383145e-02
-4.6512279e-02
-5.9735956e-02
-6.4691968e-02
-5.8348130e-02
-4.5637930e-02
-3.5440042e-02
-2.0715479e-02
-4.1879716e-03
1.5348725e-02
3.1226672e-02
3.3694306e-02
3.1214431e-02
2.2171162e-02
9.7151187e-03
-8.2841677e-03
-3.6650785e-02
-6.2489293e-02
-8.5267738e-02
-1.0095350e-01
-1.1166512e-01
-1.2680700e-01
-1.3671042e-01
-1.3987862e-01
-1.3046097e-01
-1.1089596e-01
-9.6133245e-02
-8.2805719e-02
-7.2047768e-02
-5.8020830e-02
-4.2961936e-02
-4.1941570e-02
-4.8130996e-02
-5.6538131e-02
-5.9167426e-02
-5.5910076e-02
-5.7625791e-02
-5.7692862e-02
-5.3635740e-02
-3.9417490e-02
-1.6493990e-02
2.9645852e-03
2.2593752e-02
4.1621462e-02
6.6478619e-02
9.7845116e-02
1.2389265e-01
1.4510057e-01
1.5748625e-01
1.6816269e-01
1.7703554e-01
1.7023269e-01
1.5094573e-01
1.1958632e-01
8.6651277e-02
5.7505489e-02
2.5182496e-02
-3.5205948e-03
-3.0002973e-02
-4.7588121e-02
-5.2376532e-02
-5.1767328e-02
-4.2039431e-02
-3.1234890e-02
-1.8452766e-02
-1.5763228e-03
1.0138193e-02
1.9240236e-02
1.9340921e-02
1.4804730e-02
1.2661377e-02
7.5810673e-03
6.3308726e-03
5.8842932e-03
8.5595295e-03
1.7281414e-02
2.4476474e-02
3.6975276e-02
5.1647200e-02
6.7673426e-02
8.6182568e-02
1.0089764e-01
1.1929396e-01
1.3798191e-01
1.5397928e-01
1.6535897e-01
1.6578373e-01
1.6356860e-01
1.5516576e-01
1.3896810e-01
1.1624295e-01
8.3954139e-02
5.3932861e-02
2.7427573e-02
6.1669689e-03
-1.0105265e-02
-2.7524061e-02
-3.5759086e-02
-3.6462128e-02
-3.3677585e-02
-3.6196999e-02
-5.8212033e-02
-8.4718449e-02
-1.0357481e-01
-1.1313344e-01
-1.2036780e-01
-1.3507860e-01
-1.4529780e-01
-1.4844629e-01
-1.4470679e-01
-1.3749715e-01
-1.3715824e-01
-1.3292201e-01
-1.2184299e-01
-1.0267830e-01
-7.7776750e-02
-6.1043659e-02
-4.5059278e-02
-2.5328033e-02
6.5052820e-04
2.9537073e-02
4.5757948e-02
5.6463530e-02
6.7043016e-02
7.9141293e-02
8.9726030e-02
8.7337005e-02
7.8506263e-02
6.2825542e-02
4.3148489e-02
2.4064126e-02
-2.1119950e-03
-2.8436375e-02
-5.1685825e-02
-6.6645728e-02
-7.0634157e-02
-7.3551930e-02
-7.1143862e-02
-6.4921282e-02
-5.3998234e-02
-3.7106489e-02
-2.5166082e-02
-1.6549313e-02
-1.3403997e-02
-1.1514197e-02
-7.4844483e-03
-1.0400309e-02
-1.2929711e-02
-1.5317893e-02
-1.6337214e-02
-1.1162930e-02
-5.2771906e-03
5.0436402e-03
1.1158875e-02
1.2694420e-02
1.7783549e-02
2.1136021e-02
2.7614771e-02
3.1653330e-02
3.0744840e-02
2.9151380e-02
1.9863728e-02
7.8614010e-03
-1.1850358e-02
-4.3697807e-02
-8.1888604e-02
-1.2572268e-01
-1.6016071e-01
-1.8300719e-01
-1.9904969e-01
-2.0735873e-01
-2.1134201e-01
-1.9964367e-01
-1.7419851e-01
-1.4298775e-01
-1.0568366e-01
-6.5453873e-02
-1.6972491e-02
2.9668140e-02
6.4132348e-02
8.5150233e-02
8.8784527e-02
8.7763193e-02
8.5354709e-02
7.9260867e-02
6.8714915e-02
5.0473741e-02
3.9860182e-02
3.9855522e-02
4.4781676e-02
5.0770583e-02
5.0988593e-02
5.7527314e-02
7.1497281e-02
8.6920585e-02
9.9786844e-02
1.0195842e-01
1.0593244e-01
1.1350296e-01
1.1892425e-01
1.1792266e-01
9.8542006e-02
7.0521891e-02
3.9471823e-02
6.4328109e-03
-2.6650346e-02
-6.8360999e-02
-1.0635640e-01
-1.3189346e-01
-1.4601737e-01
-1.4973960e-01
-1.5180624e-01
-1.4360367e-01
-1.2374726e-01
-9.7766972e-02
-6.6903920e-02
-4.2043487e-02
-1.8752736e-02
4.2015880e-03
2.4799440e-02
4.4289800e-02
5.2866136e-02
5.5838027e-02
5.6776441e-02
5.6999777e-02
6.0364375e-02
6.0540890e-02
6.2300721e-02
6.4558760e-02
6.7739570e-02
7.6510057e-02
8.3081040e-02
9.1024843e-02
9.9497749e-02
1.0851981e-01
1.2008097e-01
1.2419647e-01
1.2543215e-01
1.2004232e-01
1.0330983e-01
8.1718713e-02
5.2057177e-02
2.0595503e-02
-1.4567627e-02
-5.4057628e-02
-8.7934393e-02
-1.1651811e-01
-1.3008044e-01
-1.3122700e-01
-1.2714611e-01
-1.1358999e-01
-9.5650052e-02
-6.9543087e-02
-4.0184728e-02
-1.5543342e-02
6.4638606e-03
2.0609858e-02
3.4270487e-02
4.6773309e-02
5.1124068e-02
4.8850245e-02
3.6741211e-02
2.6752475e-02
1.9824240e-02
7.3789842e-03
-6.9360871e-03
-2.2041041e-02
-2.5674078e-02
-1.7812277e-02
-7.9669480e-03
2.8360444e-03
1.1557039e-02
2.8121358e-02
4.9569606e-02
6.5234107e-02
7.1763704e-02
6.1625061e-02
4.4610368e-02
2.3795065e-02
-3.9867154e-03
-3.6303424e-02
-7.5947354e-02
-1.0827661e-01
-1.2775365e-01
-1.3844764e-01
-1.3996273e-01
-1.3875754e-01
-1.2350218e-01
-9.1541544e-02
-5.0715466e-02
-5.0432011e-03
3.1761604e-02
6.4625254e-02
9.5019753e-02
1.1690065e-01
1.3055330e-01
1.2722154e-01
1.1455127e-01
9.6334182e-02
6.8137976e-02
3.0044949e-02
-2.7291410e-02
-8.7294027e-02
-1.2858589e-01
-1.4889174e-01
-1.5054199e-01
-1.4499664e-01
-1.2855187e-01
-1.0002767e-01
-6.4147441e-02
-2.0612978e-02
2.0604323e-02
6.2048499e-02
1.0196938e-01
1.3586759e-01
1.6603854e-01
1.8308277e-01
1.9023524e-01
1.8763960e-01
1.7329359e-01
1.5341795e-01
1.2457455e-01
9.4654683e-02
6.4294915e-02
2.9619671e-02
-5.9738087e-03
-4.8330273e-02
-8.6011167e-02
-1.1110367e-01
-1.2510580e-01
-1.2553287e-01
-1.2068554e-01
-1.0810796e-01
-9.3073634e-02
-8.4194135e-02
-7.8709589e-02
-8.2547619e-02
-8.8829996e-02
-9.7722651e-02
-1.1388420e-01
-1.3087511e-01
-1.5101996e-01
-1.6473278e-01
-1.7208242e-01
-1.7989572e-01
-1.8222551e-01
-1.7964264e-01
-1.6227965e-01
-1.3164248e-01
-9.6438475e-02
-5.1147571e-02
6.0056753e-03
7.8166514e-02
1.4673137e-01
1.9352702e-01
2.2251576e-01
2.3444072e-01
2.4132812e-01
2.4474079e-01
2.3687297e-01
2.1978339e-01
1.9369921e-01
1.7231178e-01
1.5920853e-01
1.4753008e-01
1.3578062e-01
1.2036205e-01
1.1637004e-01
1.2748751e-01
1.4220649e-01
1.5321294e-01
1.5147521e-01
1.4787877e-01
1.4471767e-01
1.3387311e-01
1.1157517e-01
6.7345442e-02
1.5590568e-02
-2.9516819e-02
-6.8165101e-02
-1.0065196e-01
-1.3620132e-01
-1.6623961e-01
-1.8504003e-01
-1.9530089e-01
-1.9754867e-01
-2.0344589e-01
-2.0564278e-01
-1.9909760e-01
-1.8857032e-01
-1.7391018e-01
-1.6385426e-01
-1.5178543e-01
-1.3319725e-01
-1.1075391e-01
-8.3747116e-02
-6.1893032e-02
-4.3192488e-02
-2.9573349e-02
-2.5396369e-02
-2.8459763e-02
-4.5297377e-02
-6.7435958e-02
-8.8315096e-02
-1.0517694e-01
-1.1214905e-01
-1.1417866e-01
-1.0366984e-01
-7.9041238e-02
-4.4007091e-02
7.1418959e-04
4.2624403e-02
8.2438080e-02
1.1627135e-01
1.3871289e-01
1.5269073e-01
1.5255176e-01
1.4538717e-01
1.3012337e-01
1.0536413e-01
8.1188670e-02
5.8032788e-02
4.5356070e-02
4.0078526e-02
3.8170654e-02
4.8287410e-02
6.9893361e-02
1.0551424e-01
1.3909475e-01
1.5865486e-01
1.7159057e-01
1.7667695e-01
1.8246465e-01
1.8731636e-01
1.8172925e-01
1.6448564e-01
1.3177378e-01
9.4665850e-02
5.3736191e-02
3.6098437e-03
-4.9914645e-02
-1.0438749e-01
-1.4565243e-01
-1.7214108e-01
-1.8957085e-01
-1.9573948e-01
-1.9348596e-01
-1.7358355e-01
-1.3841825e-01
-9.8364041e-02
-5.8907367e-02
-2.7864301e-02
4.4568769e-03
3.7492142e-02
6.3208274e-02
7.7106251e-02
7.2654046e-02
6.4487009e-02
5.7762555e-02
4.9303179e-02
3.7524659e-02
1.5842480e-02
-1.9936133e-03
-1.2384613e-02
-1.9720767e-02
-2.5421444e-02
-3.7674588e-02
-4.4408140e-02
-4.0543891e-02
-2.8306355e-02
-1.0528667e-02
-1.8798173e-03
2.5698002e-03
4.5134962e-03
4.7514928e-04
-1.3110475e-02
-4.9871947e-02
-9.8617619e-02
-1.4528341e-01
-1.8407207e-01
-2.1469603e-01
-2.4649043e-01
-2.6996556e-01
-2.7963136e-01
-2.7413793e-01
-2.5361834e-01
-2.2953885e-01
-1.9986326e-01
-1.6816468e-01
-1.3562867e-01
-1.0111720e-01
-7.6228612e-02
-5.8921184e-02
-4.9610989e-02
-4.4833678e-02
-4.0593685e-02
-4.5322937e-02
-5.5616573e-02
-7.4125666e-02
-9.9811741e-02
-1.3288385e-01
-1.8430019e-01
-2.4125188e-01
-2.9122699e-01
-3.2651638e-01
-3.4486810e-01
-3.5341872e-01
-3.4502083e-01
-3.2493074e-01
-2.9637690e-01
-2.5725085e-01
-2.1568615e-01
-1.6730011e-01
-1.1892707e-01
-7.4286644e-02
-3.2258887e-02
-1.2173238e-03
2.6202967e-02
4.9025228e-02
6.8530438e-02
8.7996743e-02
1.0111398e-01
1.1730765e-01
1.3301690e-01
1.4208469e-01
1.4349619e-01
1.2856024e-01
1.1327267e-01
1.1665649e-01
1.4358627e-01
1.8638684e-01
2.3366500e-01
2.9056662e-01
3.5036891e-01
4.0681537e-01
4.5620542e-01
4.9203934e-01
5.2641745e-01
5.6014423e-01
5.9357816e-01
6.2314789e-01
6.3980046e-01
6.5557800e-01
6.7124811e-01
6.8645952e-01
6.9491930e-01
6.8597214e-01
6.7052577e-01
6.4614296e-01
6.1015696e-01
5.5340718e-01
4.5912708e-01
3.4641320e-01
2.3725680e-01
1.4114437e-01
5.0773708e-02
-4.7265440e-02
-1.4317335e-01
-2.3288951e-01
-3.0945807e-01
-3.7251137e-01
-4.3269593e-01
-4.8072311e-01
-5.1232694e-01
-5.2120033e-01
-5.1074977e-01
-4.9789236e-01
-4.8136071e-01
-4.6138878e-01
-4.3222547e-01
-3.9658539e-01
-3.6772000e-01
-3.4220188e-01
-3.1947126e-01
-2.8760281e-01
-2.4071896e-01
-1.8587148e-01
-1.2736196e-01
-8.2164179e-02
-4.3569670e-02
-4.1590485e-03
2.8124971e-02
5.6717596e-02
8.0532828e-02
1.1035154e-01
1.4742993e-01
1.8129479e-01
2.1426808e-01
2.4166673e-01
2.7015414e-01
2.9954888e-01
3.1926917e-01
3.3006037e-01
3.2363727e-01
3.0672803e-01
2.8577827e-01
2.5724186e-01
2.2439516e-01
1.7946207e-01
1.3176627e-01
8.9266847e-02
4.5122959e-02
5.0338223e-03
-2.7767544e-02
-4.3434739e-02
-4.2585126e-02
-3.4691626e-02
-1.9436119e-02
-6.4085943e-03
6.1656989e-03
1.9068979e-02
2.8973011e-02
4.1003643e-02
4.7693952e-02
5.0513109e-02
4.9836495e-02
4.4532595e-02
4.0337802e-02
2.8701562e-02
1.2580488e-02
-4.8946327e-03
-2.1906337e-02
-3.0320376e-02
-3.4186707e-02
-2.6622167e-02
-7.4503650e-03
2.2474451e-02
5.9736195e-02
7.7842809e-02
7.2690377e-02
4.3550159e-02
-9.2003150e-03
-7.2381325e-02
-1.4405306e-01
-2.1529557e-01
-2.8667383e-01
-3.5733942e-01
-4.1664161e-01
-4.6607085e-01
-4.9904808e-01
-5.1884446e-01
-5.2933145e-01
-5.2556206e-01
-5.1144809e-01
-4.8018711e-01
-4.3752306e-01
-3.9355743e-01
-3.4802315e-01
-3.0439655e-01
-2.5265708e-01
-1.9449112e-01
-1.3675160e-01
-8.1084465e-02
-3.4412279e-02
1.2527819e-02
5.9013359e-02
1.0008537e-01
1.3555282e-01
1.6116991e-01
1.8837384e-01
2.1810019e-01
2.4695934e-01
2.7221163e-01
2.8734508e-01
3.0198842e-01
3.1340841e-01
3.1757810e-01
3.1017565e-01
2.8347472e-01
2.5225795e-01
2.2009477e-01
1.8680371e-01
1.4964113e-01
1.0021917e-01
5.0342626e-02
-3.9334846e-04
-5.3968224e-02
-1.0572096e-01
-1.5150394e-01
-1.7693695e-01
-1.8376798e-01
-1.7343152e-01
-1.5285966e-01
-1.3928378e-01
-1.2839240e-01
-1.1777696e-01
-1.0276730e-01
-8.6752697e-02
-8.3293929e-02
-8.4653725e-02
-8.6737203e-02
-8.1776581e-02
-6.8920727e-02
-5.9061190e-02
-4.5524634e-02
-2.7033120e-02
3.2692188e-03
4.5638861e-02
8.6182603e-02
1.2455538e-01
1.5742117e-01
1.9155628e-01
2.2546056e-01
2.4391472e-01
2.4520411e-01
2.2588452e-01
1.9963180e-01
1.7379383e-01
1.4008571e-01
1.0212905e-01
5.8919293e-02
2.3409168e-02
1.5522091e-03
-1.4930958e-02
-2.4521581e-02
-3.3165487e-02
-3.3225679e-02
-2.2474519e-02
-9.6308344e-03
4.8782969e-03
9.6731931e-03
1.1052736e-02
1.5178899e-02
1.7009229e-02
1.7707058e-02
7.8823677e-03
-3.3544107e-03
-7.4933820e-03
-8.0201130e-03
-3.3875886e-03
-2.3056761e-03
1.4340449e-03
1.1077423e-02
2.2957662e-02
4.1032406e-02
5.7792420e-02
7.7216377e-02
9.9915704e-02
1.2244354e-01
1.4690886e-01
1.6208576e-01
1.6849793e-01
1.6522528e-01
1.5073211e-01
1.2955427e-01
9.6170998e-02
5.8659574e-02
1.9018578e-02
-2.2390412e-02
-5.9703144e-02
-9.7876261e-02
-1.3017427e-01
-1.5626050e-01
-1.7257057e-01
-1.7316508e-01
-1.6703096e-01
-1.5151646e-01
-1.3426477e-01
-1.2067279e-01
-1.0772724e-01
-1.0190227e-01
-9.6531897e-02
-9.5460718e-02
-1.0044829e-01
-1.0553094e-01
-1.1546432e-01
-1.2156420e-01
-1.2486638e-01
-1.2690154e-01
-1.2434257e-01
-1.2200579e-01
-1.1013228e-01
-8.9937142e-02
-6.5228442e-02
-3.6449021e-02
-7.5725495e-03
3.2047325e-02
7.3999039e-02
1.0535099e-01
1.2301516e-01
1.2266160e-01
1.1348432e-01
9.6034333e-02
7.2219003e-02
4.3135098e-02
7.4986904e-03
-2.0058514e-02
-3.7334675e-02
-4.1933828e-02
-3.8093511e-02
-3.5634560e-02
-2.5255577e-02
-8.4233182e-03
1.4663363e-02
3.7710034e-02
5.0667361e-02
6.2870583e-02
7.2965950e-02
8.4245673e-02
9.3013806e-02
8.8945104e-02
8.1635440e-02
7.1807668e-02
6.6164334e-02
6.3253817e-02
5.1214219e-02
3.6937508e-02
2.2029723e-02
1.4822529e-02
1.3718506e-02
7.2196986e-03
2.8706802e-03
2.7720539e-03
1.4810939e-02
3.5831304e-02
4.9911196e-02
5.6814386e-02
5.3962284e-02
4.7956230e-02
3.7352032e-02
1.3173963e-02
-2.0859238e-02
-6.4463193e-02
-1.0421801e-01
-1.3609014e-01
-1.6659451e-01
-1.9660175e-01
-2.2830061e-01
-2.4374984e-01
-2.3913602e-01
-2.2460820e-01
-2.0482159e-01
-1.8787258e-01
-1.6476308e-01
-1.3721728e-01
-1.1268279e-01
-9.3201432e-02
-8.6388365e-02
-8.0461438e-02
-7.2544793e-02
-6.4979963e-02
-5.8170610e-02
-6.1802618e-02
-6.4081147e-02
-5.7947264e-02
-4.1939512e-02
-1.5954647e-02
8.9394609e-03
4.0446526e-02
8.1955361e-02
1.3425450e-01
1.9552798e-01
2.4752065e-01
2.8612667e-01
3.0826631e-01
3.1688689e-01
3.1358359e-01
2.8794506e-01
2.4613991e-01
1.9174313e-01
1.3441681e-01
8.0757659e-02
2.3220098e-02
-3.1977028e-02
-8.1690951e-02
-1.1502176e-01
-1.2762511e-01
-1.3082291e-01
-1.2473151e-01
-1.1581021e-01
-1.0087346e-01
-8.1108662e-02
-6.8665150e-02
-5.9587633e-02
-5.6605074e-02
-5.0966085e-02
-3.3706614e-02
-1.3124606e-02
5.5537657e-03
1.2204071e-02
1.5807031e-02
2.4787233e-02
3.5119274e-02
5.0268485e-02
6.1327781e-02
7.4491554e-02
9.6073580e-02
1.1923215e-01
1.4583327e-01
1.6706751e-01
1.8541350e-01
2.0171689e-01
2.0956303e-01
2.1235338e-01
2.0058947e-01
1.7627673e-01
1.4395876e-01
1.0443115e-01
6.5075746e-02
2.0459976e-02
-2.4072783e-02
-6.4804909e-02
-9.9548025e-02
-1.1960097e-01
-1.3044601e-01
-1.2790679e-01
-1.1469060e-01
-9.7288888e-02
-7.5753675e-02
-5.9094987e-02
-4.2384610e-02
-2.8339823e-02
-2.0396040e-02
-1.4528714e-02
-1.5735942e-02
-1.5700079e-02
-1.6228062e-02
-1.8839576e-02
-1.7148450e-02
-1.5866752e-02
-8.7438473e-03
3.5364328e-04
9.1945467e-03
2.2191684e-02
3.2459522e-02
4.5567142e-02
5.6906117e-02
6.4299566e-02
7.3909727e-02
8.1158287e-02
9.2361225e-02
1.0158836e-01
1.0085627e-01
8.8423345e-02
6.1188598e-02
3.2286325e-02
2.7062639e-03
-2.7454972e-02
-5.6392598e-02
-8.7295962e-02
-1.0896336e-01
-1.2176139e-01
-1.2512778e-01
-1.2024381e-01
-1.1451139e-01
-1.0169836e-01
-8.5472783e-02
-6.5680066e-02
-4.8281163e-02
-4.4161188e-02
-4.4765354e-02
-5.0772997e-02
-5.7207827e-02
-6.2581912e-02
-7.2403196e-02
-7.6586227e-02
-7.4976673e-02
-6.4393388e-02
-5.0277156e-02
-4.1227909e-02
-2.7774635e-02
-1.1189450e-02
1.4345747e-02
4.5820425e-02
7.1615074e-02
9.5535537e-02
1.1543680e-01
1.3893892e-01
1.6283576e-01
1.7307220e-01
1.7005535e-01
1.5309210e-01
1.3341508e-01
1.1054888e-01
7.5113849e-02
2.9910493e-02
-2.5724371e-02
-7.4864654e-02
-1.0643931e-01
-1.2449168e-01
-1.3225680e-01
-1.3683774e-01
-1.3048153e-01
-1.1462445e-01
-9.6206263e-02
-8.0214995e-02
-7.5869086e-02
-7.2140971e-02
-6.6624882e-02
-6.2117427e-02
-6.0890769e-02
-6.9325821e-02
-7.4078153e-02
-7.2803323e-02
-6.7647214e-02
-6.1944913e-02
-6.4774598e-02
-6.3471364e-02
-5.2921069e-02
-3.0254717e-02
2.8698565e-03
3.4927435e-02
7.0108975e-02
1.0174185e-01
1.2810770e-01
1.4659353e-01
1.4320884e-01
1.2622091e-01
1.0219561e-01
8.0085303e-02
6.1574024e-02
3.5958359e-02
1.0470598e-02
-1.2130147e-02
-2.4041288e-02
-2.2283247e-02
-1.7249590e-02
-8.9523289e-03
-9.9902019e-04
1.4123828e-02
3.6227495e-02
5.2753536e-02
6.3202100e-02
6.2661487e-02
6.0315609e-02
5.8325684e-02
4.4834456e-02
2.1916573e-02
-8.2801879e-03
-3.0971047e-02
-4.0726540e-02
-4.4416246e-02
-4.2778871e-02
-4.4716888e-02
-4.1446689e-02
-2.8698515e-02
-1.2410517e-02
7.6545390e-03
1.9572907e-02
2.7574895e-02
3.4817678e-02
3.6329349e-02
3.0769675e-02
7.4434994e-03
-2.3674167e-02
-5.2796043e-02
-7.8156145e-02
-9.6813980e-02
-1.1727489e-01
-1.3204609e-01
-1.3456652e-01
-1.2142465e-01
-9.4124111e-02
-7.0866704e-02
-5.0660632e-02
-3.2181194e-02
-1.4644291e-02
4.3235114e-03
1.4590087e-02
1.7986516e-02
1.3191559e-02
3.9343852e-03
-6.1966485e-03
-2.4978381e-02
-4.5377223e-02
-6.6459813e-02
-8.2981354e-02
-9.1950792e-02
-1.0184048e-01
-1.0607155e-01
-1.0739335e-01
-1.0216687e-01
-8.5279486e-02
-6.2820404e-02
-2.8945686e-02
1.1562683e-02
6.2551633e-02
1.2111416e-01
1.6375867e-01
1.8678879e-01
1.8696177e-01
1.7256046e-01
1.5357754e-01
1.2884394e-01
1.0717248e-01
8.5905201e-02
6.9434094e-02
6.1242015e-02
5.7642243e-02
6.6629845e-02
8.2023805e-02
1.0168346e-01
1.2344832e-01
1.4195323e-01
1.6220663e-01
1.7683150e-01
1.8503132e-01
1.8379536e-01
1.6872427e-01
1.4669532e-01
1.1250744e-01
6.7679458e-02
1.5922848e-02
-3.2913207e-02
-6.4820248e-02
-8.4977314e-02
-9.1465630e-02
-8.9496227e-02
-8.4389213e-02
-7.0631781e-02
-5.3773225e-02
-2.9787369e-02
-3.9372764e-03
1.8852976e-02
4.3486324e-02
6.2617236e-02
8.1556342e-02
9.7078753e-02
1.0324762e-01
1.0378878e-01
9.5948607e-02
8.9919874e-02
8.5012580e-02
7.7621255e-02
6.9686860e-02
5.7227366e-02
5.1306695e-02
