-1.1536316e-02
-2.4487915e-02
-3.0767768e-02
-3.3504879e-02
-3.4341875e-02
-3.4738455e-02
-3.4815727e-02
-3.3652550e-02
-3.2997710e-02
-3.0815168e-02
-2.7523491e-02
-2.4186024e-02
-1.8949478e-02
-1.3639753e-02
-8.2919368e-03
-3.4800248e-03
5.3853350e-04
5.5671233e-03
1.0281407e-02
1.4081529e-02
1.5213281e-02
1.5202721e-02
1.7083256e-02
1.9379642e-02
2.2998286e-02
2.5084965e-02
2.2974886e-02
1.9848717e-02
1.6730802e-02
1.3607819e-02
8.2687256e-03
1.2702608e-03
-4.8035507e-03
-1.0670459e-02
-1.5284588e-02
-1.9597550e-02
-2.2632757e-02
-2.2800588e-02
-2.2872547e-02
-2.3662375e-02
-2.6507533e-02
-2.9727471e-02
-3.1128590e-02
-3.2077550e-02
-3.2160087e-02
-3.2878892e-02
-3.3464411e-02
-3.1874747e-02
-2.7865443e-02
-1.8538334e-02
-6.6331411e-03
3.6216852e-03
1.1109297e-02
1.5327106e-02
1.8182723e-02
1.7601249e-02
1.4101961e-02
1.0020319e-02
4.4045844e-03
-4.1045883e-04
-3.6846786e-03
-5.4588566e-03
-6.3860539e-03
-6.8762179e-03
-4.4381059e-03
-1.4908889e-03
8.9514846e-05
8.5964981e-04
1.5862092e-03
4.5548007e-03
7.5084344e-03
9.0601038e-03
9.4783522e-03
9.8927641e-03
1.2647942e-02
1.6370873e-02
2.1458659e-02
2.6384355e-02
2.9278064e-02
3.1715466e-02
3.1289937e-02
2.9016511e-02
2.6660587e-02
2.3942488e-02
2.2721937e-02
2.1701264e-02
2.0714544e-02
1.8445462e-02
1.5287749e-02
1.3852802e-02
1.0724754e-02
5.7364251e-03
1.1807375e-03
-1.4243864e-03
-7.0193412e-04
6.9816607e-04
1.2143781e-03
-2.0293384e-04
-2.1005019e-03
-2.5694926e-03
-4.7967452e-03
-8.1294168e-03
-1.1567562e-02
-1.3638149e-02
-1.1391343e-02
-7.0897361e-03
-1.9608664e-03
2.6894994e-03
7.8214380e-03
1.5376022e-02
2.2306476e-02
2.8887813e-02
3.5281644e-02
4.0703816e-02
4.5155746e-02
4.7924692e-02
5.0718435e-02
5.1512731e-02
5.0430484e-02
5.0162530e-02
4.9143527e-02
4.7831358e-02
4.4387302e-02
3.6848528e-02
2.3882800e-02
5.2690417e-03
-1.2811010e-02
-2.7868382e-02
-3.8528647e-02
-4.4414393e-02
-4.7801276e-02
-4.7157826e-02
-4.3403615e-02
-3.7450389e-02
-2.8638616e-02
-1.7983291e-02
-6.9534028e-03
6.5092758e-04
5.4188941e-03
9.6011974e-03
1.3312389e-02
1.7253214e-02
1.8592761e-02
1.7846650e-02
1.6426107e-02
1.4734452e-02
1.5134825e-02
1.5084442e-02
1.4031789e-02
1.1866161e-02
8.1428840e-03
5.6286958e-03
1.3732855e-03
-5.0208379e-03
-1.1202853e-02
-1.7074877e-02
-2.0607851e-02
-2.3630676e-02
-2.6362250e-02
-2.8486658e-02
-3.0240055e-02
-2.9312698e-02
-2.8739356e-02
-2.9332965e-02
-3.1104821e-02
-3.5277177e-02
-3.9066389e-02
-4.2985031e-02
-4.7978664e-02
-5.4230127e-02
-6.0357236e-02
-6.3130091e-02
-6.2806001e-02
-5.7385692e-02
-4.5672090e-02
-3.0442303e-02
-1.5561338e-02
-5.5280024e-03
-1.0132154e-04
1.0624959e-03
-7.7813387e-04
-2.1278462e-03
-3.4224606e-03
-3.3883483e-03
-1.6803434e-03
1.8964122e-03
8.2386985e-03
1.3896580e-02
1.8549807e-02
2.1068196e-02
2.0310032e-02
1.8813660e-02
1.7428247e-02
1.7954336e-02
2.0108971e-02
2.3473651e-02
2.8213667e-02
3.0381789e-02
2.8098778e-02
2.0530439e-02
9.3012004e-03
-6.4841912e-04
-7.3391652e-03
-9.3080135e-03
-8.1300252e-03
-4.8692303e-03
1.0947883e-03
8.3108064e-03
1.7301889e-02
2.5783220e-02
3.3486312e-02
4.2427374e-02
5.0812430e-02
5.8537039e-02
6.3106218e-02
6.4439331e-02
6.6156499e-02
6.8231221e-02
7.0885712e-02
7.0763976e-02
6.6298666e-02
5.9550377e-02
4.9815816e-02
3.6660597e-02
1.6937851e-02
-5.7428510e-03
-2.2635291e-02
-3.3426980e-02
-3.9904700e-02
-4.4561480e-02
-4.7808261e-02
-4.8643559e-02
-4.8302933e-02
-4.6568673e-02
-4.5447131e-02
-4.4994082e-02
-4.3975749e-02
-4.2827317e-02
-3.9622658e-02
-3.5723057e-02
-3.0978352e-02
-2.4090842e-02
-1.6615601e-02
-8.8161358e-03
-3.8352554e-03
-1.9441182e-03
-8.7083249e-04
-4.6813798e-04
-1.7848189e-04
-2.3834508e-03
-6.7979387e-03
-1.0525019e-02
-1.2548156e-02
-1.3121997e-02
-1.5073550e-02
-1.7166091e-02
-1.7476428e-02
-1.7126379e-02
-1.6218208e-02
-1.6520131e-02
-1.7056015e-02
-1.6956605e-02
-1.6698506e-02
-1.5444672e-02
-1.5214583e-02
-1.4926377e-02
-1.4628107e-02
-1.4431917e-02
-1.1471245e-02
-8.9562989e-03
-8.5931161e-03
-9.7163606e-03
-1.0607243e-02
-8.2978069e-03
-5.5485461e-03
-3.5245582e-03
-2.0929112e-03
8.7194525e-05
5.0456288e-03
9.8117649e-03
1.3904528e-02
1.6248803e-02
1.6840814e-02
1.7879521e-02
1.7029478e-02
1.4634549e-02
1.2078359e-02
1.0576880e-02
1.2060182e-02
1.4788719e-02
1.7101564e-02
1.6673619e-02
1.4484601e-02
1.4125188e-02
1.4621573e-02
1.5548060e-02
1.5691078e-02
1.5071717e-02
1.5438696e-02
1.6000839e-02
1.6522504e-02
1.4689019e-02
1.1528312e-02
9.9487661e-03
7.9089041e-03
5.2128675e-03
1.4467789e-03
-2.0134797e-03
-3.4196098e-03
-4.8294944e-03
-5.5052928e-03
-7.1511747e-03
-1.0518261e-02
-1.2757794e-02
-1.3004281e-02
-1.0643041e-02
-9.3359214e-03
-9.4331175e-03
-8.0993593e-03
-6.7284813e-03
-5.0319945e-03
-4.7230033e-03
-5.8814925e-03
-6.1349041e-03
-5.4110285e-03
-3.2759589e-03
-1.8207543e-03
2.8597644e-04
3.9401096e-03
6.2580977e-03
8.2674370e-03
8.6447517e-03
6.9708697e-03
4.8617274e-03
2.7283277e-03
2.3471194e-03
2.0962778e-03
2.3639618e-03
4.6311371e-03
7.2400710e-03
9.9158342e-03
1.1282361e-02
1.2380491e-02
1.3713658e-02
1.3920789e-02
1.4319406e-02
1.2999770e-02
1.0799672e-02
9.2773339e-03
6.7440136e-03
3.5709732e-03
-1.2056124e-03
-5.8537425e-03
-1.0051094e-02
-1.4839697e-02
-1.7527521e-02
-1.8808149e-02
-1.9007095e-02
-1.9021740e-02
-1.9651210e-02
-1.8829661e-02
-1.8026395e-02
-1.7271212e-02
-1.6361628e-02
-1.6152348e-02
-1.5037083e-02
-1.2661573e-02
-8.4882212e-03
-4.2222815e-03
-5.7785101e-04
3.3060242e-03
4.7592976e-03
4.8703196e-03
4.8050906e-03
4.6847586e-03
6.0362019e-03
6.7772682e-03
7.4001754e-03
8.0574890e-03
7.3793297e-03
5.8673838e-03
1.3657959e-03
-4.1332116e-03
-9.0687985e-03
-1.3818169e-02
-1.6985402e-02
-2.0296476e-02
-2.2942005e-02
-2.5337099e-02
-2.8104523e-02
-3.0284702e-02
-3.4004842e-02
-3.7862674e-02
-4.0850860e-02
-4.1735225e-02
-3.8599852e-02
-3.4281276e-02
-2.9047095e-02
-2.2862586e-02
-1.3746743e-02
-4.7439939e-04
1.0264715e-02
1.6149387e-02
1.7960037e-02
1.7416783e-02
1.8137716e-02
1.9997975e-02
2.2085397e-02
2.2292967e-02
2.1838384e-02
2.2737535e-02
2.3555173e-02
2.5703075e-02
2.7779922e-02
2.9604491e-02
3.3004949e-02
3.6170847e-02
3.8877301e-02
3.8869615e-02
3.5798432e-02
3.1979877e-02
2.7625067e-02
2.3704228e-02
1.7675800e-02
8.8144317e-03
8.9911389e-04
-4.7842900e-03
-8.9460472e-03
-1.4348434e-02
-1.9946984e-02
-2.3298999e-02
-2.5022066e-02
-2.4267809e-02
-2.3653483e-02
-2.3592811e-02
-2.2135423e-02
-2.0354459e-02
-1.7703742e-02
-1.5253804e-02
-1.1998098e-02
-8.0007665e-03
-5.6948193e-03
-2.8174745e-03
-8.8675820e-04
-5.4727549e-04
9.1304278e-04
2.6339649e-03
5.0188133e-03
6.7583089e-03
6.8554762e-03
6.5837332e-03
6.5613499e-03
8.3423006e-03
1.0262896e-02
1.2330721e-02
1.5730982e-02
1.9062617e-02
2.1765036e-02
2.1415595e-02
1.8343619e-02
1.3677406e-02
6.8504406e-03
9.3827614e-04
-2.8350925e-03
-4.5846587e-03
-5.7491188e-03
-7.7798415e-03
-8.3730203e-03
-8.3340287e-03
-7.7580140e-03
-7.2513562e-03
-7.9838113e-03
-7.9581800e-03
-9.4181097e-03
-1.2249759e-02
-1.4737381e-02
-1.6563383e-02
-1.6771676e-02
-1.8263258e-02
-1.9817787e-02
-1.9463134e-02
-1.7526686e-02
-1.2428646e-02
-7.4353593e-03
-4.1094290e-03
-1.0202836e-03
2.7567355e-03
8.5020321e-03
1.2565792e-02
1.3591324e-02
1.2975689e-02
1.2275999e-02
1.3765610e-02
1.4952548e-02
1.5792103e-02
1.6750776e-02
1.6639694e-02
1.5746332e-02
1.1287230e-02
3.7826525e-03
-4.3412500e-03
-1.0641357e-02
-1.2890536e-02
-1.3935032e-02
-1.4618954e-02
-1.5468003e-02
-1.6557747e-02
-1.5651548e-02
-1.3865435e-02
-1.1772272e-02
-1.0623867e-02
-1.0467971e-02
-9.9167003e-03
-1.0626637e-02
-1.0966775e-02
-1.0169902e-02
-8.5510489e-03
-5.9492742e-03
-5.0544874e-03
-4.8025568e-03
-5.0333416e-03
-5.3131488e-03
-2.5919661e-03
9.4909646e-04
4.3348051e-03
7.3742720e-03
9.7501276e-03
1.3027446e-02
1.5748362e-02
1.7124526e-02
1.6162667e-02
1.3503782e-02
1.1927632e-02
1.1451125e-02
1.2174007e-02
1.0995951e-02
7.0944175e-03
3.6777980e-03
4.7755633e-04
-1.8666668e-03
-4.6472281e-03
-7.6322917e-03
-7.6749170e-03
-6.4725573e-03
-5.0461330e-03
-5.1218576e-03
-6.4779675e-03
-5.8700544e-03
-3.6278054e-03
7.9066086e-04
5.5655970e-03
8.6268950e-03
1.1125467e-02
1.3108296e-02
1.4990468e-02
1.6164370e-02
1.6907076e-02
1.6926283e-02
1.5976582e-02
1.7098418e-02
1.8548805e-02
1.9673521e-02
2.2473963e-02
2.4858653e-02
2.5724142e-02
2.3251464e-02
1.8983451e-02
1.6146374e-02
1.3877872e-02
1.2566844e-02
1.0585354e-02
8.2839657e-03
6.5823254e-03
3.1246896e-03
-9.7478610e-04
-6.0928173e-03
-1.1529919e-02
-1.5482822e-02
-1.8214037e-02
-1.8793541e-02
-1.9950745e-02
-2.1465130e-02
-2.0842292e-02
-1.8829409e-02
-1.4919307e-02
-1.1941208e-02
-1.0650085e-02
-8.7432458e-03
-6.4857958e-03
-3.2193685e-03
-9.7864300e-04
1.2259304e-04
2.3116566e-03
4.9682468e-03
7.7080084e-03
8.9490725e-03
1.0254332e-02
1.2192706e-02
1.3362173e-02
1.5917986e-02
1.7233268e-02
1.5873176e-02
1.3127735e-02
9.1598214e-03
6.1515815e-03
2.9327517e-03
-4.0550807e-04
-3.1895281e-03
-5.5758750e-03
-5.5497368e-03
-5.6387413e-03
-7.0384627e-03
-9.3082496e-03
-1.2246481e-02
-1.2977888e-02
-1.3184114e-02
-1.3859832e-02
-1.4288197e-02
-1.4296052e-02
-1.2464703e-02
-1.1760612e-02
-1.1779720e-02
-1.0254668e-02
-8.0654387e-03
-4.4191223e-03
-1.0844716e-03
1.7565403e-03
4.0937613e-03
5.1607912e-03
7.4797262e-03
9.4434008e-03
1.0338577e-02
1.1749991e-02
1.3757880e-02
1.6787931e-02
1.8885136e-02
2.0762747e-02
2.3150281e-02
2.4974785e-02
2.7366314e-02
2.8912742e-02
2.8957273e-02
2.6480692e-02
2.2208147e-02
1.8791988e-02
1.3945750e-02
8.6623889e-03
3.4075086e-03
-2.0778633e-03
-5.3241907e-03
-8.6842769e-03
-1.2839371e-02
-1.7123664e-02
-2.0595400e-02
-2.1075388e-02
-2.0816574e-02
-2.1302478e-02
-2.3592981e-02
-2.7513369e-02
-2.9309359e-02
-2.9002456e-02
-2.6964043e-02
-2.3759144e-02
-2.0040481e-02
-1.5467839e-02
-1.3237689e-02
-1.3623862e-02
-1.5723409e-02
-1.7031204e-02
-1.4655454e-02
-1.1103299e-02
-6.6010273e-03
-1.7035526e-03
2.8862414e-03
7.8105727e-03
1.1817620e-02
1.6012168e-02
1.9357346e-02
2.0737805e-02
2.1976339e-02
2.1481595e-02
1.9678234e-02
1.7459658e-02
1.4361962e-02
1.1735855e-02
9.0162096e-03
6.6163387e-03
3.3592960e-03
-9.4056219e-04
-3.8074867e-03
-6.8345073e-03
-9.9652109e-03
-1.3124779e-02
-1.5869016e-02
-1.6126753e-02
-1.6070878e-02
-1.6366252e-02
-1.6905866e-02
-1.6577873e-02
-1.3129349e-02
-9.1477613e-03
-6.8631923e-03
-6.7064145e-03
-6.4459457e-03
-4.7092914e-03
-4.0176869e-03
-3.3586792e-03
-2.7631996e-03
-1.7060828e-03
8.4946001e-04
1.5668076e-03
1.9286983e-03
2.6378353e-03
3.4225058e-03
6.5919983e-03
1.0856952e-02
1.5908775e-02
2.0051083e-02
2.2361617e-02
2.4075169e-02
2.4416712e-02
2.4962964e-02
2.4623871e-02
2.2615769e-02
2.0079423e-02
1.4904633e-02
8.9833662e-03
3.8677972e-03
1.6982056e-04
-9.0975986e-04
-2.0234442e-03
-4.3355652e-03
-8.1755922e-03
-1.0350026e-02
-8.8615591e-03
-7.8657702e-03
-7.7123739e-03
-9.3255723e-03
-1.2820698e-02
-1.5846449e-02
-1.9293302e-02
-2.1922227e-02
-2.3380377e-02
-2.3511905e-02
-2.2653223e-02
-2.3062393e-02
-2.2170053e-02
-2.0048538e-02
-1.7598871e-02
-1.3416868e-02
-8.8783491e-03
-4.3260760e-03
-2.4946036e-03
-3.4074052e-03
-3.1466252e-03
-1.8764545e-03
2.4801591e-04
7.0478607e-05
-2.7734179e-03
-4.0214442e-03
-4.2710089e-03
-3.3419531e-03
-2.2802502e-03
-2.1273608e-03
-2.0806343e-03
-2.8484769e-03
-3.1684200e-03
-4.4498772e-03
-7.2867211e-03
-1.0420811e-02
-1.3073232e-02
-1.2140771e-02
-9.5698218e-03
-6.3580035e-03
-4.7861081e-04
6.0141842e-03
1.1516565e-02
1.4658822e-02
1.7039858e-02
2.0052434e-02
2.1541668e-02
2.1650329e-02
1.8969160e-02
1.4732887e-02
1.1732658e-02
1.0623332e-02
1.3963637e-02
1.8809386e-02
2.2768276e-02
2.6742769e-02
2.9737375e-02
3.2192985e-02
3.3126296e-02
3.4007564e-02
3.5349118e-02
3.4759089e-02
3.3563311e-02
3.0813827e-02
2.5877476e-02
1.8656485e-02
9.8206435e-03
3.0722735e-03
-2.7629181e-03
-7.8862011e-03
-1.1701241e-02
-1.4926326e-02
-1.6094139e-02
-1.8744169e-02
-2.3667741e-02
-2.8033242e-02
-3.1601160e-02
-3.3666781e-02
-3.6750002e-02
-4.0567268e-02
-4.3163567e-02
-4.4847175e-02
-4.5617317e-02
-4.7267354e-02
-4.7087684e-02
-4.3777983e-02
-3.9836143e-02
-3.4596170e-02
-2.9805108e-02
-2.4751046e-02
-1.7428090e-02
-8.9853752e-03
-3.3709518e-04
5.0412211e-03
7.3185319e-03
8.6223753e-03
9.6197290e-03
1.1716006e-02
1.1976195e-02
1.0550091e-02
9.9170100e-03
1.0352740e-02
1.2422798e-02
1.2857715e-02
1.2091640e-02
1.2259482e-02
1.2154544e-02
1.2119850e-02
1.0101669e-02
6.9102954e-03
5.3311835e-03
5.6801178e-03
8.5589645e-03
1.0924573e-02
1.2306840e-02
1.4338961e-02
1.6319208e-02
1.8245858e-02
1.8311164e-02
1.7264273e-02
1.6574880e-02
1.5904729e-02
1.5134726e-02
1.2142092e-02
8.6336716e-03
5.9795738e-03
3.9633006e-03
5.2760756e-03
7.5004528e-03
8.0859085e-03
7.3415071e-03
6.2926296e-03
7.5159080e-03
9.5964500e-03
1.1918615e-02
1.4082735e-02
1.5501374e-02
1.7708296e-02
1.7736331e-02
1.4518933e-02
8.3076112e-03
-4.3273495e-04
-7.2817255e-03
-1.2758012e-02
-1.7687444e-02
-2.1475814e-02
-2.3733041e-02
-2.2481275e-02
-2.0341973e-02
-1.8742272e-02
-1.7974757e-02
-1.8343001e-02
-1.8467618e-02
-2.0282796e-02
-2.2928842e-02
-2.5188282e-02
-2.6912005e-02
-2.6570426e-02
-2.6187970e-02
-2.6062626e-02
-2.5962167e-02
-2.5705913e-02
-2.3475485e-02
-1.9890036e-02
-1.4180330e-02
-6.7586605e-03
8.0851308e-04
7.8819959e-03
1.2070289e-02
1.5078217e-02
1.7595706e-02
1.9027565e-02
2.1474924e-02
2.2670729e-02
2.1799561e-02
1.9306517e-02
1.7042372e-02
1.7842665e-02
1.8331490e-02
1.8414230e-02
1.9910903e-02
2.2791682e-02
2.7718484e-02
3.2525489e-02
3.5905226e-02
3.6676439e-02
3.5248701e-02
3.3060768e-02
2.7726670e-02
1.9443210e-02
9.5853494e-03
1.1589422e-03
-3.0144096e-03
-7.0544944e-03
-1.1670820e-02
-1.5399220e-02
-1.7788382e-02
-1.7412792e-02
-1.6987888e-02
-1.6620673e-02
-1.4568005e-02
-1.1109409e-02
-7.3157953e-03
-5.6081222e-03
-4.7039747e-03
-3.5660131e-03
-9.4583199e-04
4.0227330e-03
6.8370354e-03
6.7926113e-03
4.4087218e-03
7.1576640e-04
-1.3374589e-03
-3.0972614e-03
-5.1255345e-03
-8.5780817e-03
-1.2434867e-02
-1.3217774e-02
-1.2851699e-02
-1.2116030e-02
-1.1367117e-02
-1.0285640e-02
-7.3545465e-03
-4.9350436e-03
-3.3219265e-03
-2.9710393e-03
-3.1880320e-03
-1.5304197e-03
4.2462174e-04
2.3300363e-03
2.3766166e-03
5.1570913e-04
-5.0966871e-04
-2.0328990e-03
-3.7463329e-03
-6.2354494e-03
-8.5207785e-03
-7.5434490e-03
-6.4086314e-03
-6.1628012e-03
-6.2095668e-03
-6.6069267e-03
-7.0883794e-03
-8.3524327e-03
-8.5508716e-03
-9.3910995e-03
-1.1152509e-02
-1.0551512e-02
-8.7936788e-03
-6.5145292e-03
-4.9058070e-03
-3.3571744e-03
3.7779415e-04
4.4317680e-03
9.1200079e-03
1.3371166e-02
1.6407975e-02
1.9806251e-02
2.1032345e-02
2.0113969e-02
1.7770159e-02
1.4675622e-02
1.2810336e-02
1.1176760e-02
9.8462734e-03
7.4730812e-03
4.5545735e-03
3.2904254e-03
2.2827133e-03
1.8347663e-03
-6.3315770e-05
-3.2862299e-03
-4.6380417e-03
-6.2353845e-03
-8.1722505e-03
-1.0078153e-02
-1.1616121e-02
-1.2076746e-02
-1.4056625e-02
-1.5686462e-02
-1.6438819e-02
-1.7134132e-02
-1.5701856e-02
-1.3982155e-02
-1.1755205e-02
-8.6546632e-03
-4.2329284e-03
2.4926950e-03
7.8636978e-03
1.1376927e-02
1.2966493e-02
1.4056867e-02
1.6413348e-02
1.6587461e-02
1.4518304e-02
1.0405493e-02
5.4912886e-03
2.6183656e-03
6.1073064e-04
-6.9813147e-04
-2.5664976e-03
-4.1283360e-03
-3.2708399e-03
-2.5425412e-03
-2.1404549e-03
-2.6365746e-03
-3.0489052e-03
-1.4597741e-03
-8.2343155e-04
-1.0138039e-03
-1.0759191e-03
2.4337885e-04
3.6496279e-03
5.6488891e-03
5.8108179e-03
3.9999429e-03
1.8480682e-03
1.7963300e-03
1.9072305e-03
2.4115943e-03
2.5508590e-03
2.1510621e-03
2.9766664e-03
4.3948978e-03
5.9920965e-03
5.8938489e-03
4.9362967e-03
4.3896380e-03
3.0341791e-03
2.5124932e-03
1.0175525e-03
-2.6750109e-03
-6.2837486e-03
-8.9806397e-03
-8.7281491e-03
-6.7926056e-03
-5.0369502e-03
-3.4567471e-03
-2.8239825e-03
-1.6309677e-03
-1.2911308e-03
-2.5397704e-03
-3.8475191e-03
-5.7027638e-03
-6.5757685e-03
-8.2745445e-03
-1.1609512e-02
-1.4004786e-02
-1.5228343e-02
-1.4358623e-02
-1.3025299e-02
-1.1449981e-02
-8.8233172e-03
-6.2354283e-03
-1.8532248e-03
2.8765452e-03
6.6740846e-03
1.0011262e-02
1.1709356e-02
1.3288209e-02
1.3494939e-02
1.1645384e-02
9.6712433e-03
7.8172915e-03
7.2960803e-03
6.5830239e-03
5.4945739e-03
5.5621399e-03
6.1697634e-03
7.6900533e-03
8.1121230e-03
8.3028880e-03
1.0609490e-02
1.3389466e-02
1.5700293e-02
1.4873581e-02
1.1558495e-02
8.0754383e-03
3.7246883e-03
6.4849003e-05
-2.8553659e-03
-4.4183662e-03
-4.5727385e-03
-5.2760585e-03
-6.4376683e-03
-9.8402024e-03
-1.2911600e-02
-1.2164143e-02
-9.5246823e-03
-6.0415747e-03
-4.3057938e-03
-3.9931240e-03
-3.1753379e-03
-2.4267779e-03
-3.9714675e-04
1.8571250e-03
3.7796534e-03
5.0453881e-03
4.7592415e-03
5.2651483e-03
5.0378447e-03
3.3667193e-03
1.9234391e-03
1.7861717e-03
3.9439291e-03
4.4111640e-03
3.2817712e-03
2.6560372e-03
1.7190344e-03
2.2667250e-03
2.9229874e-03
2.7706570e-03
2.7700385e-03
2.3790520e-03
1.2451690e-03
-2.6254936e-03
-7.0800327e-03
-9.0258959e-03
-8.9342570e-03
-6.5095967e-03
-4.0479968e-03
-2.3725287e-03
-1.9001771e-03
-3.8984922e-03
-5.7299746e-03
-8.2331857e-03
-1.1246043e-02
-1.3165100e-02
-1.5267842e-02
-1.7697733e-02
-2.2215302e-02
-2.7041061e-02
-3.0580797e-02
-3.3979241e-02
-3.4778220e-02
-3.4242435e-02
-3.3522420e-02
-3.0818339e-02
-2.5213696e-02
-1.6581702e-02
-7.5430055e-03
1.7409816e-03
1.0427050e-02
1.6229831e-02
2.0034732e-02
2.1327803e-02
2.2180341e-02
2.4687751e-02
2.6686461e-02
2.7386886e-02
2.6476427e-02
2.6191585e-02
2.6672272e-02
2.6004314e-02
2.6218910e-02
2.6453208e-02
2.7078851e-02
2.8864058e-02
3.0259961e-02
3.1043430e-02
2.8067537e-02
2.2102841e-02
1.6411301e-02
1.1157676e-02
6.9964798e-03
8.3280870e-04
-7.9473860e-03
-1.5376314e-02
-1.9356792e-02
-2.0025379e-02
-2.0606812e-02
-2.0876425e-02
-1.9562993e-02
-1.7112750e-02
-1.3534511e-02
-1.1922220e-02
-1.2187415e-02
-1.3290959e-02
-1.5013973e-02
-1.4291082e-02
-1.2260505e-02
-1.0012710e-02
-7.8641455e-03
-5.8257792e-03
-1.1878245e-03
4.2332569e-03
9.2078434e-03
1.2474641e-02
1.2270661e-02
1.1405681e-02
9.3872045e-03
6.2231015e-03
3.7688154e-03
2.1105525e-03
1.7672591e-03
5.7594048e-04
-1.4972526e-03
-3.5103597e-03
-5.0215118e-03
-3.9685270e-03
-2.7577708e-03
-2.7603329e-03
-4.3101411e-03
-7.3062455e-03
-8.7024436e-03
-9.6859233e-03
-1.2042089e-02
-1.5823076e-02
-1.8763707e-02
-1.9450212e-02
-2.1230753e-02
-2.1993531e-02
-1.9800874e-02
-1.6052978e-02
-1.0282744e-02
-5.4494350e-03
-2.4550515e-03
-9.8313405e-04
-4.2082177e-04
1.8345769e-03
4.0848119e-03
5.8918788e-03
7.4475141e-03
9.5318051e-03
1.4318698e-02
1.9114301e-02
2.2975596e-02
2.5854998e-02
2.8031901e-02
3.0922104e-02
3.3139385e-02
3.5842028e-02
3.7823001e-02
3.7751113e-02
3.8297503e-02
3.7844170e-02
3.5078449e-02
2.9802920e-02
2.3209301e-02
1.8240392e-02
1.1745663e-02
2.6272273e-03
-6.1023385e-03
-1.2451447e-02
-1.4624443e-02
-1.4972019e-02
-1.5135240e-02
-1.6174417e-02
-1.8279614e-02
-1.9641060e-02
-2.2112918e-02
-2.4219960e-02
-2.4619318e-02
-2.3873958e-02
-2.1298821e-02
-2.0622136e-02
-2.2035268e-02
-2.3406074e-02
-2.3320275e-02
-1.9799628e-02
-1.5590820e-02
-1.2330036e-02
-1.0871127e-02
-1.0265355e-02
-8.0464275e-03
-5.9291164e-03
-2.8804904e-03
9.4694694e-04
4.2486705e-03
7.7810597e-03
1.0098626e-02
1.2298693e-02
1.3366683e-02
1.2007416e-02
1.0321449e-02
7.8015193e-03
5.6174428e-03
3.7627141e-03
1.5934245e-03
4.3825541e-04
-8.8110520e-04
-1.9707248e-03
-3.7406886e-03
-6.8025847e-03
-9.3426904e-03
-1.2431766e-02
-1.4590349e-02
-1.4791442e-02
-1.3345231e-02
-9.0056743e-03
-3.8594477e-03
9.3581935e-04
4.0668530e-03
5.8012489e-03
8.7034268e-03
1.1592729e-02
1.4402573e-02
1.5974499e-02
1.7107617e-02
1.9282629e-02
1.9468536e-02
1.9417729e-02
1.9838806e-02
2.0739995e-02
2.3458370e-02
2.4687529e-02
2.4053291e-02
2.2012118e-02
1.9328333e-02
1.7044723e-02
1.4068563e-02
1.1833310e-02
9.1078427e-03
5.3195380e-03
1.0256737e-03
-4.9426951e-03
-9.8728214e-03
-1.4741292e-02
-2.0629288e-02
-2.5383480e-02
-3.0361230e-02
-3.4211122e-02
-3.6002021e-02
-3.5829319e-02
-3.3036123e-02
-2.9340351e-02
-2.5189941e-02
-2.2683131e-02
-2.0984192e-02
-1.7522081e-02
-1.4052191e-02
-1.0990564e-02
-1.0283040e-02
-1.1270134e-02
-1.0966946e-02
-1.0672725e-02
-9.6198741e-03
-8.1954877e-03
-6.4497377e-03
-3.0760034e-03
1.1212378e-03
6.9090852e-03
1.2077603e-02
1.5924201e-02
1.9273338e-02
2.1117688e-02
2.2448175e-02
2.1496116e-02
1.9756603e-02
1.9321402e-02
1.7304815e-02
1.3995259e-02
8.7008058e-03
2.5750156e-03
-2.0977333e-03
-6.7063644e-03
-1.0098435e-02
-1.2238546e-02
-1.2191372e-02
-8.9373165e-03
-5.2005046e-03
-1.5497214e-03
8.3143527e-04
2.9601510e-03
5.9779356e-03
7.7065978e-03
9.3945149e-03
9.5200991e-03
7.7557695e-03
7.2568159e-03
7.7572284e-03
9.0409700e-03
9.9947029e-03
1.1568809e-02
1.5334773e-02
1.9256538e-02
2.0747816e-02
1.7965058e-02
1.4449146e-02
1.1891046e-02
8.9058138e-03
7.8360678e-03
7.0952057e-03
6.1934982e-03
6.2141186e-03
5.9777080e-03
6.6901726e-03
5.8663879e-03
1.9280146e-03
-3.3626551e-03
-9.9324877e-03
-1.5989722e-02
-2.1397605e-02
-2.4806087e-02
-2.4077784e-02
-2.1133924e-02
-1.7448475e-02
-1.5083910e-02
-1.3339767e-02
-1.1553427e-02
-1.0743566e-02
-8.1011803e-03
-4.8860613e-03
-2.9749659e-03
-1.5349430e-03
-6.1828783e-04
6.9199971e-04
9.9687075e-04
1.0728041e-03
1.9942760e-03
3.0053095e-03
4.4098358e-03
3.1350187e-03
3.7188589e-04
-8.1391506e-04
-1.6506431e-04
2.3971235e-03
3.0918059e-03
1.9999847e-03
1.1042718e-03
6.1964873e-04
2.2870898e-03
3.9499295e-03
4.7572016e-03
5.2646914e-03
5.4020923e-03
7.1808303e-03
8.9254440e-03
9.2881345e-03
8.0388473e-03
5.0474970e-03
2.7045256e-03
3.4008811e-05
-4.2689281e-03
-9.0394358e-03
-1.1796849e-02
-1.0833078e-02
-9.8788614e-03
-1.0955653e-02
-1.2412937e-02
-1.1791322e-02
-8.3831592e-03
-5.9248368e-03
-3.6297806e-03
-9.8431287e-05
3.2019058e-03
5.9940694e-03
6.1294264e-03
4.9084653e-03
4.1975169e-03
3.7085218e-03
3.2990342e-03
9.5168437e-04
-2.2352869e-03
-5.6485106e-03
-8.1842398e-03
-6.7301349e-03
-3.6873809e-03
-1.1337042e-03
-6.3887542e-04
-1.9659612e-03
-2.0079222e-03
-1.5259248e-03
-1.7709657e-04
1.4883193e-03
2.6212856e-03
4.0871458e-03
3.9862368e-03
2.8956278e-03
1.6602020e-03
1.3099834e-03
2.4237823e-03
1.9590033e-03
1.1068197e-03
1.6534590e-03
3.2934838e-03
5.5639325e-03
5.7384731e-03
4.2520783e-03
1.3794182e-03
-2.6187546e-03
-3.8802576e-03
-2.9174045e-03
-9.6617109e-04
9.9186474e-04
1.8625608e-03
3.2697680e-03
4.6510436e-03
5.2091749e-03
4.3396104e-03
4.1720702e-03
6.7621113e-03
9.2006722e-03
1.0822450e-02
1.1311363e-02
1.1722547e-02
1.3245698e-02
1.3868874e-02
1.4350170e-02
1.4279241e-02
1.4260121e-02
1.6153905e-02
1.8377427e-02
2.0752031e-02
2.2326600e-02
2.3474524e-02
2.4259234e-02
2.2415255e-02
2.0126335e-02
1.6949275e-02
1.1843282e-02
6.7561316e-03
1.7101473e-03
-2.9278760e-03
-9.0173815e-03
-1.6026399e-02
-2.1233975e-02
-2.4839762e-02
-2.6349957e-02
-2.8019579e-02
-2.9830613e-02
-2.9270496e-02
-2.7088457e-02
-2.4003579e-02
-2.2635665e-02
-2.2743279e-02
-2.3397297e-02
-2.6207184e-02
-2.8747446e-02
-3.0304068e-02
-3.0860844e-02
-2.9382880e-02
-2.6128745e-02
-2.0256299e-02
-1.4804003e-02
-1.1292737e-02
-8.6378236e-03
-6.9611136e-03
-3.9432308e-03
-7.1078463e-05
5.0997418e-03
1.0994935e-02
1.4252454e-02
1.6692822e-02
1.7660620e-02
1.7153758e-02
1.7164927e-02
1.7136897e-02
1.8358849e-02
1.8888677e-02
1.8242401e-02
1.8073252e-02
1.7767675e-02
1.7781003e-02
1.4815246e-02
9.2314875e-03
5.7075216e-03
4.8617125e-03
6.5916721e-03
7.6128475e-03
6.7429520e-03
6.1214122e-03
6.6535002e-03
9.1621520e-03
1.1064290e-02
1.1300760e-02
9.8290210e-03
7.0202885e-03
5.0697647e-03
2.6061193e-03
1.0389979e-03
1.1937506e-03
1.4897734e-03
3.1459105e-03
3.5095652e-03
1.9997153e-03
7.0891317e-04
2.1010063e-04
1.3049419e-03
1.5131105e-03
7.6014205e-04
1.8743211e-04
-7.9256363e-04
-9.9987935e-04
-1.1645593e-03
-5.5265336e-04
1.1260441e-03
2.4668968e-03
3.8678245e-03
2.7416675e-03
-8.5151208e-04
-4.9638091e-03
-8.8435293e-03
-1.0102297e-02
-9.7016645e-03
-8.4504888e-03
-7.3732551e-03
-7.0181436e-03
-4.9834019e-03
-2.8286170e-03
-2.0319966e-03
-3.5345627e-03
-6.0035952e-03
-6.0061618e-03
-5.4897110e-03
-5.4273109e-03
-5.8071025e-03
-5.9594137e-03
-3.8900631e-03
-9.5158614e-04
2.5408726e-03
6.3012921e-03
1.1501410e-02
2.0090345e-02
2.9273805e-02
3.9360511e-02
5.0039883e-02
5.9213297e-02
6.7322590e-02
7.1975964e-02
7.3750489e-02
7.3320546e-02
7.0650579e-02
6.7912127e-02
6.3029267e-02
5.5501994e-02
4.5364401e-02
3.3842846e-02
2.3466040e-02
1.1528477e-02
-2.0111176e-03
-1.7158667e-02
-3.3253696e-02
-4.6774267e-02
-5.9635536e-02
-7.3473909e-02
-8.7496769e-02
-9.6590511e-02
-9.5647844e-02
-8.8358372e-02
-7.6666023e-02
-6.3076529e-02
-5.1839668e-02
-4.2944851e-02
-3.6781047e-02
-3.1895670e-02
-2.8602204e-02
-2.5968194e-02
-2.0582813e-02
-1.3757998e-02
-6.7338493e-03
-1.3744917e-03
4.1735119e-03
1.3652601e-02
2.6005017e-02
4.1796620e-02
5.8696931e-02
7.4474180e-02
9.0006114e-02
1.0324895e-01
1.1270477e-01
1.1541388e-01
1.1112524e-01
1.0129389e-01
8.2968441e-02
5.2554746e-02
1.1403433e-02
-2.6440309e-02
-5.0778459e-02
-6.3630823e-02
-6.7341462e-02
-6.6405744e-02
-6.2544454e-02
-5.6660765e-02
-5.1495227e-02
-4.5176730e-02
-3.8999662e-02
-3.4577668e-02
-3.1461648e-02
-2.9742327e-02
-2.7789676e-02
-2.8352307e-02
-3.0368040e-02
-2.9804843e-02
-2.8870722e-02
-2.8420313e-02
-2.8365444e-02
-2.6668605e-02
-2.2178128e-02
-1.7122490e-02
-1.1400271e-02
-7.0613581e-03
-4.0477733e-03
-1.5200792e-03
-6.2498889e-04
-4.8523048e-04
-2.9369192e-03
-6.2127279e-03
-7.9259040e-03
-9.0941079e-03
-8.9704662e-03
-9.7729654e-03
-1.1610291e-02
-1.3049018e-02
-1.4316640e-02
-1.4461999e-02
-1.4618211e-02
-1.4425325e-02
-1.5119503e-02
-1.7990015e-02
-2.0272682e-02
-2.1574033e-02
-2.0353084e-02
-1.6718879e-02
-1.1875771e-02
-4.7988320e-03
1.6156337e-03
5.8049487e-03
8.2745599e-03
1.0665917e-02
1.3503648e-02
1.2905934e-02
1.0268121e-02
6.6600024e-03
2.0488368e-03
9.6722392e-05
-6.2982393e-04
-7.5374903e-04
-4.1464726e-04
-1.8312794e-04
1.8156019e-03
2.9618090e-03
2.0899088e-03
-4.0592127e-04
-3.3857641e-03
-4.0402104e-03
-3.7372279e-03
-2.3979212e-03
-3.2884859e-04
1.9887549e-03
5.4245531e-03
7.8624277e-03
1.0409483e-02
1.2530494e-02
1.3776856e-02
1.6101153e-02
1.6600811e-02
1.5447376e-02
1.2996934e-02
9.9248172e-03
9.2077677e-03
8.8102939e-03
8.2605878e-03
8.1323374e-03
9.3510148e-03
1.2399346e-02
1.4631749e-02
1.6768747e-02
1.8029695e-02
1.8179389e-02
1.8519590e-02
1.6925721e-02
1.4406182e-02
1.0701487e-02
5.2905431e-03
-5.7526215e-04
-7.4521988e-03
-1.3201695e-02
-1.7656678e-02
-1.9708448e-02
-1.8183877e-02
-1.6582470e-02
-1.5481062e-02
-1.6058163e-02
-1.8161939e-02
-1.9695414e-02
-2.0655256e-02
-2.0526251e-02
-2.2659826e-02
-2.7613710e-02
-3.2098918e-02
-3.5795186e-02
-3.7468970e-02
-3.9077789e-02
-4.0333720e-02
-3.8489893e-02
-3.5827054e-02
-3.1993112e-02
-2.6708574e-02
-1.8757326e-02
-6.1433106e-03
7.5732943e-03
1.8896092e-02
2.5273349e-02
2.8025787e-02
2.9555269e-02
3.0349842e-02
3.2087399e-02
3.1687878e-02
2.8807030e-02
2.6881273e-02
2.6709610e-02
2.8429767e-02
2.8191027e-02
2.5914823e-02
2.4520757e-02
2.3977579e-02
2.4241777e-02
2.2712640e-02
1.9831376e-02
1.7018264e-02
1.4248934e-02
1.3148105e-02
1.0845042e-02
6.7996686e-03
2.4472009e-03
-2.6827337e-03
-5.9251795e-03
-7.8349285e-03
-8.9502043e-03
-9.1469878e-03
-9.6257992e-03
-9.6322890e-03
-1.0908604e-02
-1.3122392e-02
-1.4651101e-02
-1.4818907e-02
-1.3518303e-02
-1.4387710e-02
-1.6872536e-02
-1.9497344e-02
-2.1927694e-02
-2.2081336e-02
-2.2295526e-02
-2.3099640e-02
-2.4189147e-02
-2.5447112e-02
-2.3814392e-02
-2.0770042e-02
-1.6913032e-02
-1.0433554e-02
-1.6767613e-03
6.4346194e-03
9.8752596e-03
1.0711269e-02
1.0863048e-02
1.1051343e-02
1.2414332e-02
1.2269842e-02
1.0621353e-02
7.4181271e-03
3.4872841e-03
1.7904315e-03
1.8019691e-03
3.7507724e-03
5.5954038e-03
7.2281870e-03
1.2026501e-02
1.7695950e-02
2.1772246e-02
2.2496218e-02
2.2027130e-02
2.3885676e-02
2.5412772e-02
2.6540260e-02
2.6424827e-02
2.3957257e-02
2.0611151e-02
1.6200803e-02
1.3583247e-02
1.1766612e-02
8.6349016e-03
6.5397530e-03
5.1627113e-03
4.3340799e-03
2.6101181e-03
4.8081437e-04
-3.0021868e-04
-1.2791793e-03
-1.5792494e-03
-2.5111400e-03
-4.0696031e-03
-3.9517171e-03
-3.2137498e-03
-1.8565585e-03
-1.6025439e-03
-1.4913187e-03
9.1348267e-04
2.5013353e-03
2.1816553e-03
-1.1808487e-03
-6.1450198e-03
-8.7259360e-03
-8.9848449e-03
-6.4656361e-03
-3.7146049e-03
-1.8726164e-03
3.4278956e-04
3.1549748e-03
8.0546710e-03
1.0964882e-02
1.0926184e-02
1.1517661e-02
1.2672341e-02
1.4906011e-02
1.5387623e-02
1.3724526e-02
1.2953816e-02
1.2860595e-02
1.3926180e-02
1.3606793e-02
1.1101560e-02
9.0512488e-03
8.4996616e-03
8.8443782e-03
5.3636877e-03
-1.5748937e-03
-7.6426954e-03
-1.2420072e-02
-1.5475423e-02
-1.8664910e-02
-2.2548681e-02
-2.5630319e-02
-2.7323213e-02
-2.6175886e-02
-2.4653984e-02
-2.4284825e-02
-2.4756768e-02
-2.5571538e-02
-2.4448985e-02
-2.3100455e-02
-2.1845221e-02
-1.9911350e-02
-1.7848649e-02
-1.4740047e-02
-1.3207537e-02
-1.2903717e-02
-1.1181618e-02
-7.5729975e-03
-2.0419033e-03
2.8225544e-03
7.5065894e-03
1.1003562e-02
1.2490035e-02
1.5048773e-02
1.7085456e-02
1.8163976e-02
1.7906467e-02
1.5267992e-02
1.2515903e-02
9.6560919e-03
6.5747372e-03
2.6955451e-03
-9.6279344e-04
-2.9708413e-03
-5.7902056e-03
-8.0457576e-03
-9.6183094e-03
-1.1627332e-02
-1.2468992e-02
-1.2936924e-02
-1.2592829e-02
-1.2767651e-02
-1.3166137e-02
-1.0691885e-02
-6.7034691e-03
-2.5430590e-03
-7.3634913e-04
-6.5600355e-04
1.1113782e-03
2.3223973e-03
2.9862555e-03
3.8601982e-03
4.6636669e-03
5.8875586e-03
5.5464404e-03
4.9226516e-03
4.0311867e-03
2.4861225e-03
1.4535426e-03
-1.5168128e-03
-5.6494290e-03
-1.0055899e-02
-1.3676827e-02
-1.5005912e-02
-1.6353108e-02
-1.6903470e-02
-1.6815807e-02
-1.5318551e-02
-9.6601449e-03
-9.1384911e-04
1.0387131e-02
1.9793694e-02
2.5669709e-02
3.1602420e-02
3.7681083e-02
4.3594184e-02
4.6598230e-02
4.7103856e-02
4.7439051e-02
4.6257968e-02
4.4444288e-02
4.1549110e-02
3.8668851e-02
3.7319542e-02
3.6439831e-02
3.7216347e-02
3.7742333e-02
3.6959905e-02
3.5636923e-02
3.3390344e-02
3.1478451e-02
2.7235785e-02
1.9274813e-02
9.1280614e-03
-3.1251177e-03
-1.5104173e-02
-2.5200746e-02
-3.1790575e-02
-3.5127254e-02
-3.7651816e-02
-3.8674032e-02
-3.9300488e-02
-3.9377281e-02
-3.7902999e-02
-3.4946393e-02
-2.9236014e-02
-2.4115034e-02
-2.1002629e-02
-1.9094835e-02
-1.8563779e-02
-1.7477541e-02
-1.7560986e-02
-1.9144835e-02
-2.1149708e-02
-2.3484236e-02
-2.4404135e-02
-2.5575025e-02
-2.6500379e-02
-2.5265448e-02
-2.1102742e-02
-1.4031768e-02
-8.8033873e-03
-5.3687214e-03
-2.3292491e-03
-1.3931041e-03
-1.8570416e-03
-4.7707290e-03
-9.1384112e-03
-1.3453356e-02
-1.7793728e-02
-2.0268431e-02
-2.2848969e-02
-2.6358067e-02
-2.9544937e-02
-3.1969984e-02
-3.2455468e-02
-3.2713102e-02
-3.1239180e-02
-2.7184990e-02
-2.2054615e-02
-1.5574432e-02
-1.0600544e-02
-5.3345510e-03
2.9618842e-03
1.4304724e-02
2.7865692e-02
3.7666456e-02
4.2604288e-02
4.4078978e-02
4.3912637e-02
4.5384862e-02
4.6262140e-02
4.6141779e-02
4.5547776e-02
4.5133745e-02
4.5847278e-02
4.5498710e-02
4.5871444e-02
4.6232014e-02
4.5342292e-02
4.5252966e-02
4.4069065e-02
4.2272917e-02
4.0465614e-02
3.8636855e-02
3.7417083e-02
3.4989469e-02
3.0665984e-02
2.2101959e-02
9.2959238e-03
-4.8191350e-03
-1.8633812e-02
-2.8386794e-02
-3.4658159e-02
-3.8727203e-02
-3.8795337e-02
-3.6433111e-02
-3.3276428e-02
-3.2729253e-02
-3.4682201e-02
-3.5748458e-02
-3.6859256e-02
-3.6788944e-02
-3.6346278e-02
-3.7378118e-02
-3.8791232e-02
-4.0152436e-02
-3.9292321e-02
-3.7835436e-02
-3.7503991e-02
-3.5989935e-02
-3.2888419e-02
-2.8072690e-02
-2.3502610e-02
-1.8258717e-02
-1.0953737e-02
-4.3713990e-03
1.7327719e-03
5.0424857e-03
5.3004381e-03
5.2568429e-03
4.5131999e-03
4.6417990e-03
4.1005556e-03
2.0883081e-03
4.7649482e-04
-8.2009991e-04
-1.3726214e-03
-3.3158409e-03
-6.2410626e-03
-9.3086130e-03
-1.2971204e-02
-1.4593531e-02
-1.6720446e-02
-2.0077014e-02
-2.1940113e-02
-2.1440536e-02
-1.6277506e-02
-9.5336747e-03
-2.1998341e-03
7.3385831e-03
1.6009400e-02
2.3367045e-02
2.7875972e-02
2.9658208e-02
3.0027766e-02
2.8801781e-02
2.9288264e-02
2.9975616e-02
2.9251197e-02
2.8379020e-02
2.6870114e-02
2.6013049e-02
2.4906937e-02
2.3939963e-02
2.5131596e-02
2.8710142e-02
3.3844329e-02
3.5951337e-02
3.5136830e-02
3.3628684e-02
3.1262290e-02
2.9868257e-02
2.7164381e-02
2.0975348e-02
1.2350750e-02
3.7185356e-03
-2.7408187e-03
-9.3965022e-03
-1.6082503e-02
-2.1522614e-02
-2.4790985e-02
-2.4249023e-02
-2.3217632e-02
-2.2621217e-02
-2.1634505e-02
-1.9819220e-02
-1.5953041e-02
-1.2203346e-02
-8.7820034e-03
-6.8914548e-03
-7.2432230e-03
-7.4055339e-03
-8.5686362e-03
-1.0150295e-02
-1.1873799e-02
-1.3622200e-02
-1.2998785e-02
-1.2014478e-02
-1.1186376e-02
-1.0849719e-02
-1.0912001e-02
-9.4001783e-03
-7.5110909e-03
-4.7452473e-03
-2.4807097e-03
-1.0766531e-03
1.3166163e-03
3.6064022e-03
7.1475912e-03
1.0649233e-02
1.2538453e-02
1.3808049e-02
1.2714635e-02
1.0347187e-02
6.7816356e-03
2.3071609e-03
-1.0057511e-03
-4.3671565e-03
-6.3046068e-03
-7.2882478e-03
-8.9825034e-03
-1.0765670e-02
-1.2679517e-02
-1.2857281e-02
-1.2632519e-02
-1.2396919e-02
-1.0361702e-02
-7.5030668e-03
-4.3131673e-03
-4.1096356e-03
-6.8970868e-03
-9.7774880e-03
-1.3105102e-02
-1.5666084e-02
-1.8195541e-02
-1.9915102e-02
-1.9447512e-02
-1.8488518e-02
-1.7380793e-02
-1.8697691e-02
-2.0988666e-02
-2.2095151e-02
-2.3847520e-02
-2.4289620e-02
-2.3969051e-02
-2.2222902e-02
-1.7006286e-02
-9.7095122e-03
2.7993628e-04
1.0458466e-02
1.9506468e-02
2.7539158e-02
3.2381281e-02
3.5832135e-02
3.7883106e-02
3.9204783e-02
4.1502514e-02
4.3453629e-02
4.5646137e-02
4.6269548e-02
4.5272213e-02
4.4930833e-02
4.4695029e-02
4.4824347e-02
4.4573334e-02
4.4960974e-02
4.4902837e-02
4.2358259e-02
3.9962036e-02
3.5439869e-02
2.7928619e-02
2.0146503e-02
1.1793138e-02
1.7460308e-03
-1.1109572e-02
-2.3311714e-02
-3.2686838e-02
-3.8691137e-02
-3.9862241e-02
-3.9682751e-02
-3.8934907e-02
-3.7183043e-02
-3.4134340e-02
-2.8807205e-02
-2.5383446e-02
-2.3970679e-02
-2.4011107e-02
-2.5950377e-02
-2.7409825e-02
-3.0245407e-02
-3.3303416e-02
-3.4852827e-02
-3.4850254e-02
-3.1404510e-02
-2.7098159e-02
-2.3569865e-02
-2.0407917e-02
-1.6067549e-02
-8.2167048e-03
1.9868525e-04
7.1200513e-03
1.1951254e-02
1.5270732e-02
1.8091716e-02
1.8258096e-02
1.7917775e-02
1.7105723e-02
1.4622479e-02
1.2825141e-02
1.0328740e-02
7.9747822e-03
6.5161478e-03
5.8413883e-03
7.0799090e-03
7.5918692e-03
7.7033757e-03
7.4798541e-03
6.5908586e-03
6.8495781e-03
6.4065861e-03
6.0074216e-03
5.3794084e-03
4.1867786e-03
5.0745477e-03
6.2118360e-03
7.1915013e-03
7.6627022e-03
7.6096266e-03
9.4455899e-03
1.1835022e-02
1.2906478e-02
1.0553298e-02
6.6688383e-03
4.3099581e-03
1.5556922e-03
-8.4839104e-04
-3.2812931e-03
-5.0678839e-03
-5.3068046e-03
-6.4044919e-03
-6.5136652e-03
-6.8182953e-03
-8.0682046e-03
-8.3317682e-03
-8.2394959e-03
-6.7878590e-03
-5.2852831e-03
-2.9660600e-03
1.4280080e-03
6.3192734e-03
1.1736264e-02
1.3915701e-02
1.3117812e-02
1.2295147e-02
1.0772705e-02
9.9513864e-03
8.3796326e-03
7.6160013e-03
1.0094311e-02
1.2669667e-02
1.5618411e-02
1.7844180e-02
1.8822502e-02
2.0687286e-02
2.2496221e-02
2.4072250e-02
2.3599723e-02
2.1109524e-02
1.9074993e-02
1.7734772e-02
1.7424206e-02
1.4636187e-02
8.9426542e-03
1.7721736e-03
-7.1600499e-03
-1.3732533e-02
-1.9062653e-02
-2.3460152e-02
-2.4819279e-02
-2.5473137e-02
-2.6297242e-02
-2.8828018e-02
-3.1116193e-02
-3.1651621e-02
-3.2064398e-02
-3.1507780e-02
-3.1596327e-02
-3.1587186e-02
-3.1236318e-02
-3.2325972e-02
-3.2950283e-02
-3.4046015e-02
-3.5556905e-02
-3.5783621e-02
-3.3679225e-02
-2.8790064e-02
-2.4329925e-02
-1.8743181e-02
-9.1724650e-03
3.2585575e-03
1.7033259e-02
2.6960688e-02
3.1794765e-02
3.4612333e-02
3.7002610e-02
3.9486490e-02
3.9422439e-02
3.8201605e-02
3.6382296e-02
3.2572774e-02
2.9595119e-02
2.6732754e-02
2.4367126e-02
2.3358076e-02
2.2649776e-02
2.3744457e-02
2.5252390e-02
2.6575013e-02
2.7327913e-02
2.6301343e-02
2.4258195e-02
1.8426432e-02
8.9255095e-03
-2.3835267e-03
-1.2623450e-02
-1.7365572e-02
-1.9591284e-02
-2.1643879e-02
-2.4080074e-02
-2.5135241e-02
-2.3197047e-02
-2.2342719e-02
-2.1401247e-02
-1.9373370e-02
-1.6336697e-02
-1.1115794e-02
-6.5967433e-03
-2.9567569e-03
-1.3173399e-03
-1.5512575e-03
-1.1424543e-05
1.9105300e-03
3.4053841e-03
3.3922921e-03
2.0487718e-03
2.2829093e-03
2.5855868e-03
1.9164175e-03
-4.0954234e-04
-2.5818953e-03
-1.7910051e-03
-7.5777938e-04
-4.0939537e-04
-1.4384516e-03
-2.9723029e-03
-2.3068323e-03
-1.4910290e-03
-9.9390605e-04
-2.0247014e-03
-4.7283968e-03
-5.6182558e-03
-4.7686435e-03
-2.1461536e-03
-2.1878915e-04
-6.9015389e-04
-1.0563959e-03
-1.4443722e-03
-1.1030546e-03
-1.1069812e-03
-1.5480607e-03
-6.4099434e-04
-1.8624727e-04
-3.8290237e-04
-2.7137275e-03
-6.0876206e-03
-8.1970519e-03
-1.0836591e-02
-1.2436034e-02
-1.3085119e-02
-1.3191687e-02
-1.1421784e-02
-8.9626143e-03
-5.6289986e-03
-2.5742490e-03
3.1266503e-04
3.6233866e-03
6.2326706e-03
1.0314060e-02
1.3921684e-02
1.5611942e-02
1.7141280e-02
1.7685099e-02
1.8143077e-02
1.8328993e-02
1.9398313e-02
2.0617642e-02
1.8120672e-02
1.3646239e-02
7.4850555e-03
9.0085170e-04
-2.9137123e-03
-4.5071829e-03
-3.7103807e-03
-2.6050250e-03
-1.4821388e-03
5.2765568e-04
1.5325708e-03
1.9978189e-03
6.0442704e-04
-1.6210177e-03
-2.5975869e-03
-3.3626762e-03
-3.1035335e-03
-4.3405829e-03
-6.5751147e-03
-7.0413417e-03
-6.9177029e-03
-5.1964375e-03
-3.8412243e-03
-4.0629573e-03
-4.4221660e-03
-4.6807859e-03
-4.4271284e-03
-6.6425806e-03
-9.9449745e-03
-1.1390863e-02
-1.1951225e-02
-1.0607527e-02
-8.7511037e-03
-6.9477796e-03
-5.6699224e-03
-5.6354867e-03
-4.1685501e-03
-3.4617173e-03
-4.4053101e-03
-5.6357536e-03
-7.4913335e-03
-7.3165951e-03
-5.8407065e-03
-3.4256067e-03
-1.2348725e-04
1.6015157e-03
2.7481810e-03
2.2288494e-03
8.9478473e-04
1.2651813e-03
2.7980085e-03
5.2455019e-03
6.2621497e-03
5.9588317e-03
5.0607502e-03
4.2901523e-03
5.6251313e-03
5.7661595e-03
4.4817711e-03
3.3996346e-03
2.8235450e-03
3.0746935e-03
3.0030954e-04
-4.1605387e-03
-8.0272278e-03
-1.0935365e-02
-1.0975435e-02
-1.0930968e-02
-1.0154974e-02
-7.2178528e-03
-3.7175993e-03
4.3495072e-04
2.2447773e-03
7.8036669e-04
-2.6204601e-03
-5.8859854e-03
-6.8709918e-03
-9.0703472e-03
-1.2893891e-02
-1.6092580e-02
-1.6896414e-02
-1.3865507e-02
-1.0398161e-02
-6.9811424e-03
-2.8621603e-03
8.5304693e-04
4.1245684e-03
4.8616474e-03
4.0450808e-03
3.1902216e-03
2.6580583e-03
3.5471516e-03
2.6747991e-03
3.9271479e-04
-1.8266023e-03
-4.5675221e-03
-6.2399424e-03
-8.2755193e-03
-1.0395018e-02
-1.2419855e-02
-1.4401040e-02
-1.3130777e-02
-9.8323459e-03
-5.4322605e-03
-8.4410683e-04
2.7810775e-03
7.0354424e-03
9.4146574e-03
9.4481978e-03
8.2909931e-03
6.7983486e-03
7.5158657e-03
8.4463784e-03
9.1599851e-03
9.3026567e-03
8.2683123e-03
8.8179429e-03
9.7333431e-03
1.0056502e-02
8.7723084e-03
6.3274648e-03
6.1392927e-03
7.0154248e-03
8.3464894e-03
9.3750922e-03
9.9561341e-03
1.0282118e-02
7.6346876e-03
4.3221976e-03
1.6167317e-03
-2.5015049e-04
8.0632261e-04
2.6360069e-03
4.4216405e-03
4.5320769e-03
3.1597457e-03
2.7973999e-03
1.6953639e-03
2.6533140e-04
-2.1358210e-03
-5.1808068e-03
-6.0077203e-03
-5.3569481e-03
-3.7321492e-03
-3.0685838e-03
-2.5761506e-03
2.0211678e-04
2.5596217e-03
4.2692909e-03
4.2427590e-03
2.0393043e-03
4.2282095e-04
-1.3389901e-03
-2.4728926e-03
-3.9419687e-03
-6.3365265e-03
-7.2676231e-03
-7.3342522e-03
-5.9126950e-03
-4.4037083e-03
-2.5928348e-03
1.7915202e-03
6.3740742e-03
1.0319486e-02
1.1882190e-02
1.1442545e-02
1.1262715e-02
9.9585940e-03
7.4882669e-03
2.6848260e-03
-2.3411805e-03
-3.8128130e-03
-3.1651451e-03
-1.7283792e-03
-1.6381456e-03
-1.6176365e-03
1.2237514e-04
7.7092213e-04
4.1311708e-04
-2.3251835e-03
-6.1504650e-03
-6.8677438e-03
-6.6182434e-03
-6.9390951e-03
-9.0229190e-03
-1.1769721e-02
-1.2858778e-02
-1.3776564e-02
-1.3856160e-02
-1.4647471e-02
-1.6531457e-02
-1.7526457e-02
-1.8877517e-02
-1.9864065e-02
-2.1780148e-02
-2.4306167e-02
-2.4205815e-02
-2.2936000e-02
-2.0919755e-02
-1.8518822e-02
-1.4419954e-02
-6.5358548e-03
3.7396858e-03
1.5661262e-02
2.4717074e-02
2.9842530e-02
3.3061008e-02
3.4252350e-02
3.5683026e-02
3.4656250e-02
3.1678592e-02
3.0857614e-02
3.0941856e-02
3.2168849e-02
3.2846251e-02
3.2331568e-02
3.1899077e-02
3.0467909e-02
2.9498866e-02
2.8133967e-02
2.6609938e-02
2.5781135e-02
2.3783707e-02
2.2187794e-02
1.9544136e-02
1.5001072e-02
9.7242585e-03
2.8847552e-03
-3.0415511e-03
-7.9027583e-03
-1.1531156e-02
-1.3183426e-02
-1.4703741e-02
-1.4892004e-02
-1.5436851e-02
-1.6906110e-02
-1.6606958e-02
-1.4885148e-02
-1.1351107e-02
-8.3465262e-03
-6.9327116e-03
-5.5101659e-03
-3.9856572e-03
-1.4298422e-03
-4.7852330e-04
-1.2672471e-03
-1.8107019e-03
-3.2874557e-03
-5.1627209e-03
-8.3842177e-03
-1.1676663e-02
-1.3069690e-02
-1.3210788e-02
-1.1323461e-02
-1.0372411e-02
-1.1330979e-02
-1.2430308e-02
-1.3412443e-02
-1.2932089e-02
-1.3097586e-02
-1.3717251e-02
-1.3502728e-02
-1.2916518e-02
-1.1271228e-02
-1.1550549e-02
-1.2607877e-02
-1.2075408e-02
-1.1178576e-02
-8.8791823e-03
-6.7122172e-03
-5.0601341e-03
-2.9211563e-03
-3.7285861e-04
3.8221164e-03
6.8890730e-03
7.8281637e-03
8.7895229e-03
1.1839437e-02
1.7754441e-02
2.1477795e-02
2.1036403e-02
1.8279748e-02
1.4852608e-02
1.2174376e-02
9.0101169e-03
6.7376750e-03
5.1678770e-03
3.2204979e-03
3.5073289e-03
4.2017960e-03
4.3639171e-03
4.4288684e-03
4.0056475e-03
4.8938363e-03
5.4636145e-03
6.1484041e-03
7.5144028e-03
8.0317227e-03
9.3862175e-03
9.2277178e-03
6.7448973e-03
3.7978883e-03
-1.5155439e-03
-8.3098337e-03
-1.5299334e-02
-2.1299866e-02
-2.5490672e-02
-2.6882168e-02
-2.3459103e-02
-1.8713240e-02
-1.4016699e-02
-9.5528837e-03
-5.7220233e-03
-6.6526430e-04
2.6488940e-03
4.1560945e-03
5.3339675e-03
5.9176460e-03
6.5804685e-03
4.6954503e-03
2.1202622e-03
1.5812965e-03
1.7919208e-03
2.7531074e-03
2.0354906e-03
-5.9360826e-04
-3.7748149e-03
-5.4313321e-03
-2.8529426e-03
-9.7783302e-04
-1.9083871e-03
-3.3303598e-03
-3.1093770e-03
3.8480044e-04
2.4321072e-03
2.1561304e-03
1.7022406e-03
1.8434637e-03
4.3687697e-03
6.7127090e-03
8.3778057e-03
1.0428640e-02
1.2772749e-02
1.5644197e-02
1.7187238e-02
1.9018383e-02
2.1231661e-02
2.2329407e-02
2.3807830e-02
2.4617992e-02
2.5456595e-02
2.5338076e-02
2.0988822e-02
1.4395233e-02
6.7888399e-03
-1.1210016e-03
-8.1193316e-03
-1.3137368e-02
-1.4786800e-02
-1.5047915e-02
-1.4664945e-02
-1.4587728e-02
-1.4696515e-02
-1.3438057e-02
-1.2679215e-02
-1.1681206e-02
-1.1390405e-02
-1.2043105e-02
-1.1092579e-02
-1.1090531e-02
-1.2761617e-02
-1.5776388e-02
-1.8294327e-02
-1.7768229e-02
-1.7143080e-02
-1.6582555e-02
-1.6002858e-02
-1.4689263e-02
-1.1729940e-02
-1.0894742e-02
-1.1292453e-02
-1.1672251e-02
-1.1966617e-02
-1.0836991e-02
-9.8314971e-03
-7.5599538e-03
-3.0441068e-03
2.1449300e-03
6.0786942e-03
6.1156067e-03
4.8726787e-03
3.0022625e-03
-4.7771574e-04
-3.6919640e-03
-7.8115740e-03
-1.1432157e-02
-1.3211150e-02
-1.3941707e-02
-1.3517361e-02
-1.3990598e-02
-1.3910697e-02
-1.1405411e-02
-6.6730896e-03
-3.1158254e-04
4.1261650e-03
7.0893373e-03
9.2078892e-03
1.1074293e-02
1.4482609e-02
1.6189645e-02
1.6106083e-02
1.4684208e-02
1.2622265e-02
1.2480066e-02
1.2025768e-02
1.1097912e-02
9.3622182e-03
7.9368525e-03
9.4789142e-03
1.1143504e-02
1.3773167e-02
1.7528823e-02
2.0996467e-02
2.4193489e-02
2.4304517e-02
2.3491477e-02
2.2321132e-02
1.8098815e-02
1.2280209e-02
6.2208802e-03
1.8042715e-03
-1.3559464e-03
-2.6087190e-03
-9.2578072e-04
-2.8968711e-04
-7.5938290e-04
-2.1563580e-03
-4.1362810e-03
-4.1206792e-03
-3.8066698e-03
-4.6800079e-03
-8.4039403e-03
-1.3373377e-02
-1.5890077e-02
-1.7386780e-02
-1.7937169e-02
-1.8694246e-02
-1.9451569e-02
-1.7816894e-02
-1.5855919e-02
-1.3634214e-02
-1.2092083e-02
-1.2087930e-02
-1.1859170e-02
-1.1335482e-02
-1.0000755e-02
-1.0059360e-02
-1.0729780e-02
-9.5311846e-03
-9.0069828e-03
-8.2266844e-03
-7.4306625e-03
-7.1169611e-03
-5.5134939e-03
-3.6278659e-03
3.7556274e-04
5.2342237e-03
8.2431687e-03
1.0579602e-02
1.1892640e-02
1.2733129e-02
1.2344675e-02
1.2252043e-02
1.4398719e-02
1.6253042e-02
1.8251856e-02
1.9194362e-02
1.8390719e-02
1.7631575e-02
1.6742220e-02
1.7012361e-02
1.7411806e-02
1.7141797e-02
1.6513969e-02
1.4774746e-02
1.3351152e-02
1.0106199e-02
4.4637314e-03
-4.2576512e-04
-4.0148789e-03
-5.5853185e-03
-8.0141534e-03
-1.2649133e-02
-1.7788650e-02
-2.3646695e-02
-2.8415826e-02
-3.2708418e-02
-3.6351621e-02
-3.8251888e-02
-3.9040561e-02
-3.6847489e-02
-3.2743435e-02
-2.5977702e-02
-1.5553216e-02
-5.5821274e-03
2.8706437e-03
7.5234743e-03
8.8855856e-03
1.0633306e-02
1.2132493e-02
1.3573862e-02
1.3594337e-02
1.2745919e-02
1.2892640e-02
1.3393773e-02
1.4932718e-02
1.5171732e-02
1.4058317e-02
1.3658738e-02
1.3515671e-02
1.4555681e-02
1.4557725e-02
1.3318523e-02
1.2434418e-02
1.0700689e-02
9.1433482e-03
6.0662908e-03
1.3374666e-03
-2.3557453e-03
-4.6156093e-03
-4.8535923e-03
-5.1798839e-03
-5.6604052e-03
-5.6267299e-03
-5.2694187e-03
-2.4364860e-03
5.7463360e-04
3.2517708e-03
6.5376741e-03
9.7242412e-03
1.3445712e-02
1.4195230e-02
1.2957618e-02
1.2975887e-02
1.3938740e-02
1.6862227e-02
1.8390756e-02
1.6995436e-02
1.4554446e-02
1.2157899e-02
1.0627562e-02
6.4897584e-03
4.9412486e-04
-4.8494846e-03
-9.8804137e-03
-1.2788966e-02
-1.5602707e-02
-1.8828666e-02
-2.1293700e-02
-2.3396514e-02
-2.4055686e-02
-2.6766829e-02
-3.1495210e-02
-3.5809794e-02
-3.9357114e-02
-3.9863933e-02
-4.0694486e-02
-4.2020246e-02
-4.1463519e-02
-4.0489829e-02
-3.8149246e-02
-3.6157486e-02
-3.4122457e-02
-3.0671406e-02
-2.6576253e-02
-1.9865209e-02
-1.1417329e-02
-3.1818570e-04
1.3448976e-02
2.5901890e-02
3.6072814e-02
4.2086223e-02
4.4316144e-02
4.4049432e-02
4.2570552e-02
4.3064666e-02
4.3126048e-02
4.1377872e-02
3.8611246e-02
3.5851306e-02
3.4810177e-02
3.2258977e-02
2.8842351e-02
2.6622907e-02
2.5280230e-02
2.6723865e-02
2.8421183e-02
2.8104164e-02
2.5241410e-02
2.0488362e-02
1.6077935e-02
9.5635946e-03
4.1882129e-04
-1.0255141e-02
-2.0173892e-02
-2.5290096e-02
-2.7486514e-02
-2.8121679e-02
-2.7142035e-02
-2.5051450e-02
-2.1777564e-02
-2.0386293e-02
-2.0382761e-02
-2.1067426e-02
-2.2483573e-02
-2.2408197e-02
-2.2965705e-02
-2.3888929e-02
-2.4530382e-02
-2.5582644e-02
-2.5974830e-02
-2.7789661e-02
-2.9395609e-02
-2.8542195e-02
-2.6249360e-02
-2.2300084e-02
-1.7392110e-02
-1.0131018e-02
-2.0677176e-03
4.4794906e-03
1.0879572e-02
1.4875569e-02
1.6592662e-02
1.6818362e-02
1.6272247e-02
1.7839538e-02
1.9365539e-02
1.9354877e-02
1.7386406e-02
1.4003373e-02
1.1028260e-02
7.3333505e-03
4.6991755e-03
3.2018873e-03
2.4530437e-03
3.2672767e-03
2.4135900e-03
1.5976032e-03
2.6006342e-03
5.4121998e-03
1.0717068e-02
1.4731454e-02
1.7438564e-02
1.9241203e-02
1.9582240e-02
2.0030689e-02
1.9853244e-02
1.9951863e-02
1.9404283e-02
1.8412469e-02
1.8540142e-02
1.7143963e-02
1.4637709e-02
1.0925734e-02
6.9525540e-03
5.3860055e-03
4.3556393e-03
4.0861375e-03
3.6937145e-03
3.2958010e-03
5.1984867e-03
6.9035342e-03
7.8471371e-03
6.7187551e-03
4.0694438e-03
2.6079227e-03
-8.0760764e-04
-7.2916224e-03
-1.6083916e-02
-2.3070186e-02
-2.4657801e-02
-2.3466770e-02
-2.0148400e-02
-1.7989008e-02
-1.8376799e-02
-1.8274314e-02
-1.7650982e-02
-1.5324565e-02
-1.3155610e-02
-1.1600118e-02
-8.7750392e-03
-7.6361109e-03
-8.0321306e-03
-1.0110009e-02
-1.3405429e-02
-1.5503141e-02
-1.7640915e-02
-1.8101110e-02
-1.5840915e-02
-1.1457803e-02
-6.3240582e-03
-2.5998252e-03
1.6425503e-03
4.0751254e-03
3.7631656e-03
3.5750307e-03
2.3398742e-03
9.3465249e-04
-8.8425081e-04
-2.1423313e-03
-1.5393518e-03
-1.8244209e-03
-2.0030416e-03
-2.7200838e-03
-3.6235072e-03
-2.4895283e-03
-1.7249426e-03
-1.4407825e-03
-2.1153338e-03
-3.2569650e-03
-2.6098532e-03
-1.1379881e-03
1.5327628e-03
3.5544466e-03
4.4222274e-03
5.5989756e-03
5.7795608e-03
6.1318388e-03
5.5202479e-03
4.5930083e-03
5.4801488e-03
6.7372292e-03
9.0160339e-03
1.0009195e-02
1.0025195e-02
1.0970386e-02
9.8664433e-03
8.2840034e-03
7.0278961e-03
5.5197535e-03
4.6898706e-03
3.9340981e-03
3.9838868e-03
3.1556469e-03
1.6079236e-03
1.3210842e-03
1.2437484e-03
2.0038458e-03
2.2529338e-03
2.8775116e-03
5.8749631e-03
8.9720121e-03
1.1856416e-02
1.2481416e-02
1.2726005e-02
1.5962822e-02
1.9260149e-02
2.1359478e-02
1.9664418e-02
1.4599433e-02
9.3907927e-03
4.7919083e-03
2.9839554e-03
1.5804400e-03
-3.2500022e-04
-8.9347064e-04
-8.2834195e-04
1.8778040e-04
-5.8297681e-04
-2.7484654e-03
-3.8529786e-03
-4.5699902e-03
-3.9440601e-03
-4.5387927e-03
-6.8870836e-03
-9.6489110e-03
-1.3938761e-02
-1.8078703e-02
-2.2907377e-02
-2.6964188e-02
-2.7631692e-02
-2.5864433e-02
-2.1629744e-02
-1.8803750e-02
-1.7813934e-02
-1.5828708e-02
-1.2943670e-02
-8.1062261e-03
-4.4124679e-03
-2.4600635e-03
-1.3876832e-04
1.9340003e-03
4.6881021e-03
5.4085492e-03
3.5582312e-03
8.6512311e-04
-1.7692500e-03
-6.1913805e-04
1.3182906e-03
1.1113226e-03
7.1522021e-04
5.6206079e-04
1.7792013e-03
3.0036098e-03
3.7388062e-03
4.1059323e-03
3.8270752e-03
5.0704467e-03
6.1521735e-03
6.9518458e-03
8.5845111e-03
9.8423015e-03
1.0942509e-02
1.0319802e-02
8.6899807e-03
7.1947271e-03
5.6719583e-03
5.4311161e-03
3.8433063e-03
6.8014123e-04
-2.2394169e-03
-5.4697559e-03
-7.8466764e-03
-1.0658430e-02
-1.2561089e-02
-1.1788745e-02
-9.3903761e-03
-4.2322231e-03
-1.2669511e-05
1.7426455e-03
2.9607629e-03
4.2044050e-03
6.6990947e-03
7.6241810e-03
6.7092033e-03
6.3931667e-03
8.0288301e-03
1.1545441e-02
1.3041369e-02
1.3580512e-02
1.4579587e-02
1.4980793e-02
1.5915609e-02
1.4856824e-02
1.2272635e-02
9.9830996e-03
7.2799172e-03
6.1159624e-03
6.3692438e-03
7.5370251e-03
7.7529299e-03
6.0317935e-03
3.7233801e-03
-2.0834437e-03
-8.6223289e-03
-1.2813770e-02
-1.5479601e-02
-1.4932410e-02
-1.3821030e-02
-1.2023572e-02
-9.0583723e-03
-6.4876838e-03
-2.5049801e-03
8.8493341e-04
2.5678019e-03
2.5065674e-03
1.5535908e-03
2.7526142e-03
4.3346880e-03
5.9946847e-03
8.7358469e-03
1.2231081e-02
1.5588976e-02
1.5506889e-02
1.3629259e-02
1.0163991e-02
3.8519332e-03
-1.5691013e-03
-6.0685631e-03
-9.3662579e-03
-1.2457119e-02
-1.6427401e-02
-1.8512417e-02
-1.9370668e-02
-1.8756554e-02
-1.7179844e-02
-1.5807373e-02
-1.4437597e-02
-1.5264904e-02
-1.7092503e-02
-1.9283075e-02
-2.2200372e-02
-2.3832461e-02
-2.5850749e-02
-2.8305549e-02
-3.0898225e-02
-3.2727735e-02
-3.1152797e-02
-2.8612755e-02
-2.4956281e-02
-1.9537132e-02
-1.2697802e-02
-1.9077508e-03
1.0529318e-02
2.1167500e-02
2.7272175e-02
2.8960003e-02
2.9270146e-02
2.7028000e-02
2.4523981e-02
2.4424957e-02
2.5789808e-02
2.7098064e-02
2.6238066e-02
2.5951687e-02
2.6485126e-02
2.7064565e-02
2.9207148e-02
3.0280602e-02
3.0772159e-02
3.0797931e-02
2.9576505e-02
2.8550048e-02
2.5064892e-02
1.8891285e-02
1.1387670e-02
3.9927622e-03
-2.7656416e-03
-1.1770503e-02
-2.0898925e-02
-2.7503849e-02
-2.9670733e-02
-2.8087326e-02
-2.8471958e-02
-2.9620001e-02
-2.9077754e-02
-2.7286153e-02
-2.4841415e-02
-2.4115824e-02
-2.4264748e-02
-2.5312766e-02
-2.6945620e-02
-2.7672032e-02
-2.8897298e-02
-2.9894020e-02
-3.1136332e-02
-3.2003418e-02
-3.1305639e-02
-3.0755801e-02
-2.7638530e-02
-2.1693573e-02
-1.3581290e-02
-1.0641813e-03
1.2567949e-02
2.2974446e-02
2.8469243e-02
3.1759358e-02
3.4244878e-02
3.2388344e-02
2.7922080e-02
2.2482882e-02
1.6683514e-02
1.3219087e-02
1.1855052e-02
1.3018861e-02
1.4629838e-02
1.4923729e-02
1.5525373e-02
1.6715921e-02
1.9568449e-02
2.1379996e-02
2.1927788e-02
2.3831425e-02
2.4417125e-02
2.3238016e-02
1.9160547e-02
1.2870715e-02
6.7613599e-03
4.2236382e-04
-3.8902509e-03
-7.3038558e-03
-1.0064576e-02
-1.0495157e-02
-1.0815904e-02
-1.1032378e-02
-1.2368257e-02
-1.4753377e-02
-1.5362582e-02
-1.4819350e-02
-1.3691430e-02
-1.2422464e-02
-9.0857624e-03
-3.2621078e-03
1.3691101e-03
4.8815275e-03
6.3222493e-03
6.1620943e-03
6.3706128e-03
5.3145204e-03
3.3938722e-03
-9.7137530e-04
-7.3074321e-03
-1.3233990e-02
-1.8205570e-02
-1.8408939e-02
-1.5862290e-02
-1.3226245e-02
-1.0068621e-02
-8.1067193e-03
-5.7015276e-03
-2.8942357e-03
9.6872118e-05
3.1161820e-03
4.4820478e-03
6.5780684e-03
8.1314416e-03
8.4378190e-03
9.2725504e-03
9.5682306e-03
1.0915487e-02
1.2081482e-02
1.2633654e-02
1.4167399e-02
1.5290049e-02
1.5658263e-02
1.3324147e-02
9.6345382e-03
6.8999864e-03
4.1457539e-03
2.2835008e-03
-3.1019504e-04
-3.7036074e-03
-6.8479482e-03
-1.0219836e-02
-1.1338233e-02
-1.2133172e-02
-1.3223037e-02
-1.2918654e-02
-1.3178129e-02
-1.3364572e-02
-1.4037069e-02
-1.3564924e-02
-1.0541639e-02
-8.5357537e-03
-7.9171749e-03
-9.1435496e-03
-1.0300231e-02
-9.9139413e-03
-9.5082885e-03
-8.3435132e-03
-8.6025517e-03
-8.8719635e-03
-6.6223486e-03
-3.4916096e-03
1.1522318e-03
4.6368207e-03
6.3583524e-03
9.0880286e-03
1.2152201e-02
1.4868773e-02
1.4121274e-02
1.1390872e-02
1.0693648e-02
1.1831921e-02
1.5863940e-02
1.9473001e-02
2.0380665e-02
2.0805005e-02
2.1007877e-02
2.0996671e-02
1.8684197e-02
1.4778370e-02
1.1251989e-02
7.4064041e-03
4.7071954e-03
1.5342374e-03
-2.5658021e-03
-5.7290135e-03
-7.7837465e-03
-6.8326110e-03
-5.7222834e-03
-5.9481561e-03
-5.2833783e-03
-4.7475475e-03
-4.5422288e-03
-7.2111569e-03
-1.2667689e-02
-1.6607207e-02
-1.7953740e-02
-1.7208295e-02
-1.7126411e-02
-1.7284741e-02
-1.6810272e-02
-1.7160097e-02
-1.6710189e-02
-1.6465560e-02
-1.6429459e-02
-1.5338844e-02
-1.3018873e-02
-9.0098508e-03
-6.1660113e-03
-2.9823972e-03
2.6342136e-03
8.8697594e-03
1.5077605e-02
1.8205350e-02
1.9156591e-02
2.0465511e-02
2.1604202e-02
2.3976947e-02
2.4843862e-02
2.2954440e-02
2.0192148e-02
1.7173977e-02
1.5883241e-02
1.4239064e-02
1.3287576e-02
1.5216000e-02
1.7368411e-02
1.9499481e-02
1.9838356e-02
1.9342118e-02
1.9579283e-02
1.8991304e-02
1.8246770e-02
1.4815211e-02
8.9757423e-03
3.2377904e-03
-1.8992433e-03
-4.1602267e-03
-6.3355336e-03
-1.0005861e-02
-1.3815365e-02
-1.7367260e-02
-1.8382896e-02
-1.9580716e-02
-2.1827496e-02
-2.3066925e-02
-2.4098208e-02
-2.4413028e-02
-2.5923399e-02
-2.8553566e-02
-3.0885307e-02
-3.2880877e-02
-3.2723249e-02
-3.2635436e-02
-3.2538893e-02
-3.0469870e-02
-2.7468376e-02
-2.2639661e-02
-1.7861298e-02
-1.3810292e-02
-8.4201103e-03
-1.5375883e-03
6.0256080e-03
1.0578626e-02
1.2982806e-02
1.5652304e-02
1.7860019e-02
2.0619070e-02
2.2546186e-02
2.4659795e-02
2.8127651e-02
3.1487507e-02
3.5427591e-02
3.6786904e-02
3.4833498e-02
3.1383936e-02
2.6264105e-02
2.0970033e-02
1.4643900e-02
8.1165902e-03
2.2730746e-03
-3.4085585e-03
-8.0843787e-03
-1.3626012e-02
-1.8172502e-02
-1.9953647e-02
-1.9847053e-02
-1.7391854e-02
-1.6531651e-02
-1.8102087e-02
-2.0505306e-02
-2.3461328e-02
-2.5128790e-02
-2.6395710e-02
-2.5754711e-02
-2.2727994e-02
-1.9666550e-02
-1.6149267e-02
-1.3874781e-02
-1.2401415e-02
-1.0511861e-02
-8.5640922e-03
-5.4986820e-03
-4.9494084e-03
-6.8932772e-03
-8.1467580e-03
-8.6370738e-03
-6.9876008e-03
-5.0418011e-03
-2.7643699e-03
9.1498190e-04
5.1117449e-03
9.5334056e-03
1.1545375e-02
1.2390486e-02
1.2590523e-02
1.0800088e-02
9.3152837e-03
7.8447113e-03
7.5483233e-03
8.1271675e-03
7.2990089e-03
6.4236636e-03
3.7412779e-03
2.3304626e-04
-1.9228398e-03
-3.1018200e-03
-2.5612241e-03
-2.7062749e-03
-3.0817223e-03
-3.3661923e-03
-4.0264350e-03
-1.9226431e-03
1.0219752e-03
3.4418957e-03
5.4613822e-03
6.0840323e-03
6.3946662e-03
5.3789045e-03
4.1881618e-03
4.5119870e-03
6.1786222e-03
1.0190263e-02
1.3981542e-02
1.6596637e-02
1.8755718e-02
2.1591588e-02
2.6734668e-02
3.0088843e-02
3.1117112e-02
3.1712767e-02
3.2523348e-02
3.4952282e-02
3.6027546e-02
3.4902651e-02
3.1824396e-02
2.7579546e-02
2.5491415e-02
2.2451891e-02
1.4780101e-02
1.4926269e-03
-1.4732714e-02
-2.7478121e-02
-3.7156250e-02
-4.3947900e-02
-4.6291225e-02
-4.5506891e-02
-4.2317251e-02
-3.8612323e-02
-3.3430531e-02
-2.6750903e-02
-1.9905911e-02
-1.2678806e-02
-8.7563879e-03
-8.7123042e-03
-1.1568763e-02
-1.4523477e-02
-1.2876817e-02
-1.0320161e-02
-9.1514223e-03
-9.5085489e-03
-1.1579557e-02
-1.2375658e-02
-1.2967400e-02
-1.2970824e-02
-1.1124714e-02
-7.7248026e-03
-3.0376436e-03
7.3130882e-04
4.4572765e-03
6.8514600e-03
7.2206310e-03
8.1970363e-03
7.1403083e-03
3.8586351e-03
-4.2847958e-04
-5.6754062e-03
-9.9832964e-03
-1.4111761e-02
-1.6184057e-02
-1.5515175e-02
-1.3299833e-02
-9.3574367e-03
-7.6109036e-03
-7.6760209e-03
-7.8980966e-03
-8.1212285e-03
-6.4491481e-03
-4.6424953e-03
-2.2907042e-03
1.2526189e-03
6.2430974e-03
1.2764358e-02
1.7113014e-02
1.9557628e-02
2.0005845e-02
2.0045619e-02
2.3782469e-02
2.7630120e-02
2.9387482e-02
2.9607377e-02
2.9396350e-02
3.0428144e-02
2.9623825e-02
2.7202664e-02
2.3850452e-02
1.9991180e-02
1.8373305e-02
1.6286397e-02
1.3740440e-02
1.1765351e-02
9.9027184e-03
1.0105402e-02
1.0751846e-02
1.0415164e-02
7.2160780e-03
1.7336420e-03
-2.4369383e-03
-7.1686625e-03
-1.3103005e-02
-2.0109697e-02
-2.5816838e-02
-2.7034381e-02
-2.7400309e-02
-2.7705701e-02
-2.7888854e-02
-2.7767932e-02
-2.5783306e-02
-2.3943839e-02
-2.1948427e-02
-2.0699801e-02
-1.9889099e-02
-1.7173871e-02
-1.4558852e-02
-1.1665197e-02
-9.6373511e-03
-8.6529547e-03
-5.6398301e-03
-2.1352002e-03
2.3001029e-03
8.3032298e-03
1.5407322e-02
2.2962683e-02
2.8195087e-02
3.1186986e-02
3.0193145e-02
2.6560586e-02
2.4346111e-02
2.1733254e-02
1.9067847e-02
1.5633085e-02
1.1578093e-02
1.0166831e-02
1.0042520e-02
9.9231385e-03
8.0001422e-03
4.8021323e-03
2.8176921e-03
1.7221560e-04
-2.3229107e-03
-4.7879095e-03
-7.8540973e-03
-9.7123709e-03
-1.1011931e-02
-1.0177438e-02
-8.3031037e-03
-7.3577921e-03
-5.7609700e-03
-3.6331266e-03
1.2138940e-04
3.6921040e-03
6.1445769e-03
9.7086409e-03
1.2109564e-02
1.2861717e-02
1.1376360e-02
8.4424728e-03
6.5377668e-03
4.6017824e-03
4.7071664e-03
5.6907643e-03
5.8429300e-03
7.0216907e-03
7.4606170e-03
6.6417789e-03
4.4345646e-03
2.8019868e-03
2.6285554e-03
5.0459146e-04
-3.0166648e-03
-9.0000230e-03
-1.6082241e-02
-1.9203992e-02
-1.9440529e-02
-1.8436325e-02
-1.8115889e-02
-1.8145845e-02
-1.7341102e-02
-1.8570415e-02
-2.0651552e-02
-2.2583979e-02
-2.3227895e-02
-2.1425931e-02
-2.0247716e-02
-1.8908454e-02
-1.8320175e-02
-1.8217139e-02
-1.5340211e-02
-1.1845702e-02
-9.2479469e-03
-9.2894955e-03
-1.0287482e-02
-9.0570936e-03
-7.2544223e-03
-4.1059382e-03
-1.6995608e-04
4.2490583e-03
9.7888803e-03
1.3672478e-02
1.5936735e-02
1.6658683e-02
1.7342253e-02
1.9539136e-02
2.0406864e-02
2.0055096e-02
1.8044805e-02
1.4997239e-02
1.2862664e-02
1.0444882e-02
8.7752650e-03
6.0843336e-03
2.0737891e-03
2.6038738e-04
8.0951437e-05
-1.6755835e-04
-2.7331742e-03
-4.6400740e-03
-2.5267573e-03
1.4066503e-03
6.6072347e-03
1.0247039e-02
1.1743675e-02
1.3536884e-02
1.5171930e-02
1.8404611e-02
2.1828345e-02
2.3480519e-02
2.4702273e-02
2.4607992e-02
2.3404244e-02
1.9775768e-02
1.5277852e-02
1.3348176e-02
1.2091056e-02
1.0840534e-02
8.0007859e-03
3.7929140e-03
1.5754994e-04
-3.7354773e-03
-6.5698176e-03
-8.9186739e-03
-1.0332794e-02
-9.7831798e-03
-9.0940681e-03
-7.9904859e-03
-8.9367977e-03
-1.1345143e-02
-1.1416794e-02
-1.0215975e-02
-8.8025712e-03
-9.4937513e-03
-1.0610453e-02
-9.1296146e-03
-6.6529824e-03
-2.3666427e-03
4.5924218e-04
2.1474728e-04
-1.3645978e-04
-1.7414895e-03
-3.4668887e-03
-4.9076278e-03
-5.9952610e-03
-5.5952354e-03
-4.9378785e-03
-4.1275688e-03
-5.6704852e-03
-8.6880073e-03
-9.7549525e-03
-9.9676608e-03
-8.7891137e-03
-7.6741316e-03
-6.7669392e-03
-4.0579694e-03
-8.4480601e-04
2.0978185e-03
2.0248355e-03
8.2015542e-04
1.6347372e-03
1.4879047e-03
5.1340805e-04
-2.2243935e-03
-6.2475349e-03
-8.1934165e-03
-8.7912818e-03
-8.8555983e-03
-1.0443384e-02
-1.2124963e-02
-1.0654535e-02
-6.9603369e-03
-1.4863250e-03
2.1355523e-03
3.6119240e-03
5.9200247e-03
7.8694450e-03
9.8469620e-03
9.6668110e-03
8.1083019e-03
9.1901970e-03
1.0845635e-02
1.2001916e-02
1.1890319e-02
1.2094284e-02
1.4653402e-02
1.7345264e-02
1.9765298e-02
1.9756798e-02
1.7797040e-02
1.5900007e-02
1.3430638e-02
1.1556242e-02
7.8631210e-03
3.5992949e-03
2.8518355e-03
3.8413128e-03
5.0131273e-03
4.5653357e-03
4.0455452e-03
5.3170578e-03
5.8995776e-03
5.7293611e-03
2.6536161e-03
-2.2927256e-03
-4.6480271e-03
-5.2717274e-03
-5.3767491e-03
-7.7958342e-03
-1.1835577e-02
-1.4138376e-02
-1.5319771e-02
-1.5379344e-02
-1.6847175e-02
-1.9605279e-02
-2.0545816e-02
-2.0250952e-02
-1.9176191e-02
-1.9757318e-02
-2.1393570e-02
-2.1033752e-02
-1.9260174e-02
-1.6279058e-02
-1.5152718e-02
-1.5491102e-02
-1.4030525e-02
-1.1520859e-02
-7.1268590e-03
-2.0190665e-03
3.4682151e-03
8.9723003e-03
1.2028868e-02
1.4158706e-02
1.5050432e-02
1.5131253e-02
1.6078924e-02
1.7753989e-02
2.1284699e-02
2.4870625e-02
2.8277805e-02
3.1447235e-02
3.2648502e-02
3.3414537e-02
3.2294042e-02
2.9857921e-02
2.7643776e-02
2.3855049e-02
1.9341968e-02
1.3969496e-02
9.0122458e-03
5.1504491e-03
8.5488075e-04
-3.4508882e-03
-9.6767592e-03
-1.5482501e-02
-1.7920501e-02
-1.8775057e-02
-1.7820915e-02
-1.7118153e-02
-1.5838879e-02
-1.2607710e-02
-9.9382397e-03
-7.5920227e-03
-7.2261320e-03
-7.4353254e-03
-6.3795837e-03
-5.7746284e-03
-4.6170431e-03
-4.6230357e-03
-4.8000252e-03
-2.6776287e-03
5.1698452e-04
4.6493311e-03
7.4898792e-03
9.2793429e-03
1.0931672e-02
1.1604703e-02
1.2293637e-02
1.0171134e-02
6.5956065e-03
5.4210530e-03
5.2020174e-03
5.7690090e-03
4.1572963e-03
1.1368832e-04
-3.5187335e-03
-7.0433403e-03
-9.0212871e-03
-1.1159213e-02
-1.4306317e-02
-1.7277723e-02
-1.9315269e-02
-1.8634264e-02
-1.9032049e-02
-2.1285584e-02
-2.2801636e-02
-2.3201047e-02
-2.1387856e-02
-2.0657737e-02
-2.1324124e-02
-2.1267610e-02
-2.0328588e-02
-1.6362343e-02
-1.1453243e-02
-7.2194036e-03
-4.3269656e-03
-3.6770324e-03
-2.9972721e-03
-3.6377185e-03
-4.8676012e-03
-4.9483559e-03
-4.6027433e-03
-1.7319095e-03
1.6905640e-03
4.2597148e-03
6.3160516e-03
7.2902782e-03
9.8432804e-03
1.2144774e-02
1.3410638e-02
1.5088774e-02
1.6710117e-02
1.9192062e-02
1.9781354e-02
1.8480548e-02
1.6488843e-02
1.3026569e-02
1.0308481e-02
6.8547360e-03
3.1244812e-03
1.0306998e-03
-1.0816370e-03
-2.6817983e-03
-4.9981130e-03
-7.5588238e-03
-8.9659238e-03
-1.0412731e-02
-1.1709907e-02
-1.5151882e-02
-1.9463991e-02
-2.2395339e-02
-2.5429734e-02
-2.7006533e-02
-2.8154878e-02
-2.9493567e-02
-2.9951463e-02
-2.8773226e-02
-2.3808690e-02
-1.8644532e-02
-1.5181034e-02
-1.2040567e-02
-9.2031889e-03
-5.0295438e-03
-1.2541437e-03
1.9507901e-03
5.1407904e-03
7.0472550e-03
8.8770567e-03
8.5928779e-03
7.0028926e-03
5.5971693e-03
2.7382919e-03
4.8025060e-04
-2.2372077e-03
-4.5799811e-03
-4.3908805e-03
-3.6109349e-03
-1.8104901e-03
-1.0641034e-03
-1.7439277e-03
-2.4471158e-03
-3.8369148e-03
-4.2547666e-03
-4.7492439e-03
-4.9627062e-03
-4.4124829e-03
-4.0402490e-03
-1.2127945e-03
3.3254343e-03
7.7441851e-03
1.0341267e-02
1.1017009e-02
1.3392554e-02
1.5246893e-02
1.5177018e-02
1.5309746e-02
1.6195513e-02
1.9282893e-02
2.1656179e-02
2.2477622e-02
2.4226474e-02
2.7382207e-02
3.2544864e-02
3.6181627e-02
3.7656044e-02
3.8385882e-02
3.8407251e-02
4.0178317e-02
4.1082786e-02
4.0133413e-02
3.8073602e-02
3.3148459e-02
2.7029120e-02
1.8153408e-02
7.1959363e-03
-2.2560271e-03
-1.0273157e-02
-1.6050832e-02
-2.1503001e-02
-2.5980876e-02
-2.7567813e-02
-2.8256885e-02
-2.7781384e-02
-2.8960218e-02
-3.2833574e-02
-3.6421150e-02
-3.8694591e-02
-3.9236824e-02
-4.0843331e-02
-4.2859683e-02
-4.3792462e-02
-4.4616438e-02
-4.3328109e-02
-4.1667593e-02
-4.0245378e-02
-3.7409973e-02
-3.2776064e-02
-2.4484459e-02
-1.4058543e-02
-2.6833911e-03
7.2730465e-03
1.3007697e-02
1.6571184e-02
1.7315065e-02
1.6968209e-02
1.8741969e-02
2.2211580e-02
2.6619680e-02
2.7995084e-02
2.6717321e-02
2.5453750e-02
2.4059902e-02
2.4081360e-02
2.3889704e-02
2.2833638e-02
2.1451620e-02
1.8944029e-02
1.7301530e-02
1.5375793e-02
1.2683303e-02
9.2168870e-03
3.6300114e-03
-1.0383510e-03
-4.8462290e-03
-7.5648513e-03
-8.2676878e-03
-8.9437905e-03
-9.0199829e-03
-9.5501417e-03
-9.5849856e-03
-8.2280709e-03
-6.7645569e-03
-2.7037250e-03
1.0667700e-03
2.4502776e-03
3.6247522e-03
4.3166232e-03
5.5457217e-03
4.8075472e-03
2.6401005e-03
2.4372891e-03
3.2941473e-03
5.8183834e-03
7.5954660e-03
7.3599149e-03
7.4303588e-03
8.8807917e-03
1.1729326e-02
1.2678266e-02
1.2782167e-02
1.4062605e-02
1.5420695e-02
1.7059698e-02
1.5288189e-02
1.0929262e-02
8.1487728e-03
6.7900545e-03
7.7221356e-03
9.1483891e-03
1.0456286e-02
1.1949864e-02
1.2430100e-02
1.3808481e-02
1.5286856e-02
1.7024288e-02
1.9586534e-02
2.1286508e-02
2.2929759e-02
2.2627057e-02
2.0715572e-02
1.8976675e-02
1.5306710e-02
9.9246496e-03
3.5036847e-04
-1.2974162e-02
-2.4377740e-02
-3.2575277e-02
-3.7361653e-02
-4.0655120e-02
-4.2491833e-02
-4.2493851e-02
-4.2319674e-02
-3.9846634e-02
-3.6736446e-02
-3.3897160e-02
-2.9682518e-02
-2.4987967e-02
-1.9342371e-02
-1.4953752e-02
-1.2061047e-02
-9.4999639e-03
-8.6133213e-03
-7.7152846e-03
-7.4143145e-03
-7.9005052e-03
-7.5558765e-03
-7.0075040e-03
-5.2452761e-03
-4.4688140e-03
-4.6645084e-03
-2.6696966e-03
-3.0225029e-04
1.7910034e-03
2.1014350e-03
1.6885207e-03
2.9975602e-03
3.6241369e-03
3.8700118e-03
2.7193753e-03
1.5758360e-03
3.5603038e-03
5.8885825e-03
8.0547879e-03
9.0154476e-03
8.5847141e-03
7.8258342e-03
6.0209959e-03
5.1030899e-03
4.0395764e-03
2.9588303e-03
3.3431786e-03
3.9577384e-03
5.3498023e-03
5.0891310e-03
3.5346963e-03
4.3708554e-03
6.6388279e-03
8.9415507e-03
8.7803738e-03
6.7757936e-03
5.2609781e-03
3.2290068e-03
1.4967145e-03
-4.1457402e-04
-1.9754061e-03
-2.9044326e-03
-5.2500950e-03
-7.6052031e-03
-1.1594616e-02
-1.7642643e-02
-2.2770138e-02
-2.7013674e-02
-2.9808057e-02
-3.3176914e-02
-3.6256134e-02
-3.5661713e-02
-3.2313693e-02
-2.5024826e-02
-1.5915768e-02
-6.8620888e-03
2.8765479e-03
1.0744334e-02
1.6929897e-02
2.0873872e-02
2.4093517e-02
2.8535723e-02
3.1543504e-02
3.4386040e-02
3.5687203e-02
3.4251109e-02
3.2765785e-02
3.0360564e-02
2.7821108e-02
2.5196745e-02
2.3217748e-02
2.2768126e-02
2.1374238e-02
1.9874848e-02
1.7684464e-02
1.5031295e-02
1.3329325e-02
1.0968492e-02
8.7463666e-03
6.0719193e-03
3.6548390e-03
2.8184549e-03
5.7679027e-04
-2.6597107e-03
-6.1058518e-03
-7.4688865e-03
-5.2005507e-03
-3.4936118e-03
-3.1019930e-03
-4.7459233e-03
-6.6880454e-03
-6.2231227e-03
-6.1593534e-03
-7.1714148e-03
-1.0642925e-02
-1.4994267e-02
-1.6569608e-02
-1.6689694e-02
-1.5239151e-02
-1.3954571e-02
-1.2648730e-02
-8.4891702e-03
-3.5914039e-03
1.5760007e-03
6.8385647e-03
1.2747242e-02
2.0019236e-02
2.5605839e-02
2.9356947e-02
3.0521631e-02
2.9180244e-02
2.8180572e-02
2.7697528e-02
2.7387032e-02
2.4862058e-02
2.0997208e-02
1.8847185e-02
1.7209809e-02
1.5695782e-02
1.2400815e-02
7.7723362e-03
4.4293700e-03
1.2008011e-03
-1.1406740e-03
-3.9171170e-03
-7.0272348e-03
-7.9675864e-03
-8.7865198e-03
-1.0379425e-02
-1.5445860e-02
-2.3153527e-02
-2.9248116e-02
-3.5047221e-02
-3.9518079e-02
-4.3239183e-02
-4.6316666e-02
-4.5511086e-02
-4.3061637e-02
-3.9752067e-02
-3.5988752e-02
-3.2277790e-02
-2.8086651e-02
-2.5626258e-02
-2.3622429e-02
-2.2475582e-02
-2.1370945e-02
-1.7612871e-02
-1.5359038e-02
-1.4524808e-02
-1.2879587e-02
-1.0165531e-02
-6.4148512e-03
-4.2785879e-03
-2.1154236e-03
1.5435254e-03
6.5787641e-03
1.2725296e-02
1.7354530e-02
2.0829709e-02
2.2863978e-02
2.4115630e-02
2.6160026e-02
2.7559495e-02
2.9131574e-02
2.9487090e-02
2.8840435e-02
2.9660491e-02
2.9196743e-02
2.7670638e-02
2.6230513e-02
2.6077208e-02
2.8444421e-02
3.0153786e-02
3.1724007e-02
3.2393752e-02
3.0484605e-02
2.8008516e-02
2.3662813e-02
1.7002837e-02
6.8888378e-03
-4.8598619e-03
-1.1914601e-02
-1.5424199e-02
-1.8098861e-02
-2.1804774e-02
-2.5696653e-02
-2.5964069e-02
-2.4864613e-02
-2.4079635e-02
-2.4374390e-02
-2.5235143e-02
-2.3912110e-02
-2.1713909e-02
-1.9613575e-02
-1.9930107e-02
-2.3008338e-02
-2.5631654e-02
-2.7913892e-02
-2.9056163e-02
-3.0483530e-02
-3.2291316e-02
-3.1584142e-02
-2.9435547e-02
-2.4376708e-02
-1.7297470e-02
-1.0496506e-02
-2.9815285e-03
2.7661613e-03
6.5527282e-03
9.3934317e-03
1.2051949e-02
1.5898658e-02
1.9594002e-02
2.4372886e-02
2.8766842e-02
3.0729218e-02
3.1307287e-02
2.9579065e-02
2.8833466e-02
2.9524598e-02
2.9575401e-02
3.0283917e-02
3.0519970e-02
3.1707435e-02
3.3420232e-02
3.3879593e-02
3.3849566e-02
3.0472162e-02
2.3796327e-02
1.5585610e-02
7.5004563e-03
1.5650550e-03
-3.9383968e-03
-8.8160941e-03
-1.3975180e-02
-1.8967092e-02
-2.1208079e-02
-2.3696895e-02
-2.5943492e-02
-2.7021354e-02
-2.7495460e-02
-2.5833610e-02
-2.4528023e-02
-2.3685947e-02
-2.3060423e-02
-2.2629023e-02
-1.9941561e-02
-1.7125137e-02
-1.5207189e-02
-1.4125193e-02
-1.2738585e-02
-9.2472357e-03
-6.7489811e-03
-5.0618933e-03
-4.1577308e-03
-4.8377423e-03
-4.1970324e-03
-3.5090994e-03
-3.2572663e-03
-2.9689953e-03
-1.7991083e-03
2.9608787e-03
8.2153501e-03
1.2208556e-02
1.4780711e-02
1.5977077e-02
1.8441552e-02
1.9877717e-02
1.9308479e-02
1.7501758e-02
1.5670504e-02
1.6569897e-02
1.7265912e-02
1.6776926e-02
1.6360066e-02
1.5846659e-02
1.5511619e-02
1.2954708e-02
8.7307126e-03
3.7025725e-03
-1.5727111e-03
-4.4253262e-03
-6.7589794e-03
-8.9577923e-03
-1.0688758e-02
-1.1291053e-02
-8.6738226e-03
-7.2138353e-03
-8.8168954e-03
-1.1807316e-02
-1.5037715e-02
-1.6394280e-02
-1.6811858e-02
-1.6359277e-02
-1.6150804e-02
-1.6356626e-02
-1.5002262e-02
-1.4241150e-02
-1.3318490e-02
-1.1768670e-02
-9.8928450e-03
-5.4521129e-03
-2.0148147e-04
5.7711029e-03
1.1645702e-02
1.5087766e-02
1.6984294e-02
1.5676128e-02
1.2042850e-02
8.0330165e-03
4.2465443e-03
2.3404790e-03
2.7746287e-04
-1.3428058e-03
-9.8184947e-04
1.3810606e-03
5.2519858e-03
5.0638747e-03
1.3692249e-03
-1.7214398e-03
-3.3979095e-03
-2.8030248e-03
-3.2062588e-03
-4.7603881e-03
-5.3479617e-03
-4.5470825e-03
-2.1694722e-03
-2.5524411e-03
-5.3776294e-03
-7.1556309e-03
-7.4501686e-03
-6.0158751e-03
-6.0935434e-03
-7.7760498e-03
-9.0128514e-03
-9.4934415e-03
-7.2488662e-03
-4.1314905e-03
-8.1493431e-04
3.4363338e-03
7.2680694e-03
1.0266917e-02
1.0075237e-02
7.4848983e-03
4.9627275e-03
4.1078642e-03
6.1176310e-03
7.3930443e-03
7.0578874e-03
5.8519374e-03
4.1439449e-03
4.3048204e-03
3.9019792e-03
1.8293785e-03
-6.5225713e-04
-3.0420872e-03
-3.5195482e-03
-5.3375279e-03
-9.5187920e-03
-1.3136850e-02
-1.5059489e-02
-1.4237339e-02
-1.3517836e-02
-1.3951819e-02
-1.5280778e-02
-1.6761791e-02
-1.6101224e-02
-1.6742868e-02
-1.7964262e-02
-1.6895593e-02
-1.5329966e-02
-1.2724403e-02
-1.0272117e-02
-7.8866220e-03
-5.1003204e-03
-3.9270715e-03
-3.4694321e-03
-4.7062362e-03
-5.4642355e-03
-2.2650168e-03
2.7696585e-03
8.0016847e-03
1.1577793e-02
1.4372980e-02
1.6720954e-02
1.7606326e-02
1.9486094e-02
2.0604868e-02
2.0323949e-02
2.0321834e-02
1.9947865e-02
2.0019959e-02
1.8689260e-02
1.5041101e-02
1.0519380e-02
5.9730389e-03
3.2655896e-03
5.8357043e-04
-1.9378606e-03
-2.5477865e-03
-2.3100513e-03
-7.1189522e-04
7.4155691e-04
2.3616988e-03
4.3269321e-03
5.2656173e-03
6.9765854e-03
7.4419524e-03
7.4572119e-03
9.1008499e-03
1.0593742e-02
1.2979634e-02
1.3356969e-02
1.0996276e-02
8.8306346e-03
6.2709519e-03
3.9544558e-03
7.1791605e-04
-2.1074613e-03
-2.6920182e-03
-2.0792006e-03
6.1762721e-04
2.4878641e-03
3.2563570e-03
4.6608133e-03
6.0440159e-03
8.7716477e-03
9.6049205e-03
7.5702131e-03
4.9547155e-03
7.9521554e-04
-3.3631870e-03
-7.3365009e-03
-1.0002450e-02
-9.5150905e-03
-8.1554475e-03
-7.1725758e-03
-9.2748840e-03
-1.3059824e-02
-1.3993779e-02
-1.3247690e-02
-1.0989647e-02
-8.3764728e-03
-6.5936878e-03
-5.5531348e-03
-6.0856522e-03
-6.5046148e-03
-7.8474314e-03
-9.0094212e-03
-7.7701485e-03
-6.2648241e-03
-4.3506636e-03
-3.1737585e-03
-2.1225614e-03
8.3341526e-04
4.2292210e-03
7.7432534e-03
8.9171353e-03
7.7837652e-03
6.8539568e-03
5.3329138e-03
4.2623630e-03
3.0509634e-03
2.1635383e-03
2.2756658e-03
1.1696420e-03
7.9078046e-04
4.8587495e-04
1.2126909e-04
1.3689256e-03
1.5615914e-03
1.9418294e-03
3.3124584e-03
5.5802096e-03
9.2473346e-03
1.0896100e-02
1.0479814e-02
8.7309779e-03
7.0029588e-03
6.0222263e-03
3.5311739e-03
1.4959162e-03
-2.5119191e-04
-7.5832970e-04
1.6880456e-03
3.4486050e-03
4.4690384e-03
4.5370683e-03
3.9324485e-03
4.1879284e-03
3.7450302e-03
3.6932568e-03
3.3731864e-03
3.0230914e-03
4.7321525e-03
6.1746613e-03
6.3308359e-03
3.9689890e-03
1.0836011e-03
-3.1762770e-04
-2.9291561e-03
-5.0580408e-03
-6.9736719e-03
-8.2216768e-03
-6.5749534e-03
-5.3790704e-03
-5.7497157e-03
-7.8904243e-03
-1.0214541e-02
-1.0987087e-02
-1.2245290e-02
-1.2639482e-02
-1.2782874e-02
-1.2382641e-02
-9.3574222e-03
-6.9175852e-03
-5.9269778e-03
-6.8790928e-03
-8.9605991e-03
-9.8049840e-03
-1.1135570e-02
-1.3011742e-02
-1.6410628e-02
-2.0118954e-02
-2.0458707e-02
-1.8581583e-02
-1.4778847e-02
-1.1016278e-02
-7.8872365e-03
-3.7505130e-03
-3.9154095e-04
2.8910694e-03
5.3292122e-03
6.3281891e-03
7.8013824e-03
9.0392219e-03
1.0190233e-02
9.5088898e-03
7.7826401e-03
8.7751579e-03
1.0744120e-02
1.3075980e-02
1.4707666e-02
1.5332891e-02
1.6688457e-02
1.6734586e-02
1.5518859e-02
1.2347329e-02
8.6271040e-03
7.0351798e-03
4.5433302e-03
2.2080561e-03
4.4475948e-04
-9.2213790e-04
-3.5497598e-04
-1.2430121e-03
-3.0025226e-03
-3.9839423e-03
-2.8696121e-03
8.9765909e-04
2.8926396e-03
3.8605571e-03
4.6398364e-03
5.6611131e-03
9.1419559e-03
1.2652923e-02
1.6455558e-02
2.0879384e-02
2.5046946e-02
2.8935945e-02
2.9663579e-02
2.7979830e-02
2.5450126e-02
2.3658136e-02
2.4246649e-02
2.4045017e-02
2.3109604e-02
2.1537941e-02
1.8365598e-02
1.3113395e-02
3.9004493e-03
-5.8281710e-03
-1.4812818e-02
-2.2151359e-02
-2.6030711e-02
-2.9530366e-02
-3.2314191e-02
-3.4838175e-02
-3.6546177e-02
-3.4987659e-02
-3.3338668e-02
-3.2670349e-02
-3.3404405e-02
-3.4826397e-02
-3.3989020e-02
-3.3549875e-02
-3.4333142e-02
-3.5152843e-02
-3.4670884e-02
-3.1458882e-02
-2.8471534e-02
-2.4704256e-02
-1.9141777e-02
-1.2021331e-02
-4.4827641e-04
1.2842447e-02
2.3957683e-02
3.1033442e-02
3.5503861e-02
4.0471275e-02
4.3200916e-02
4.3647453e-02
4.2572272e-02
4.0576743e-02
4.0386157e-02
4.0803076e-02
4.2242841e-02
4.3825856e-02
4.4871947e-02
4.7043395e-02
4.7423136e-02
4.5918222e-02
4.3718723e-02
4.1744289e-02
4.1182032e-02
3.9014388e-02
3.5411828e-02
2.9388646e-02
1.9674827e-02
7.7272031e-03
-7.5804237e-03
-2.2362677e-02
-3.3712940e-02
-4.1431689e-02
-4.4545743e-02
-4.7479395e-02
-5.1324684e-02
-5.5047782e-02
-5.7937968e-02
-5.8271660e-02
-5.9215887e-02
-6.0828913e-02
-6.2343974e-02
-6.4919422e-02
-6.7730736e-02
-7.1742576e-02
-7.6332512e-02
-8.0752460e-02
-8.4034548e-02
-8.4144092e-02
-8.2522031e-02
-7.8841825e-02
-7.1668544e-02
-5.8302158e-02
-3.5616323e-02
-1.0187193e-02
1.1104108e-02
2.6896839e-02
3.7883042e-02
4.6205893e-02
5.0024944e-02
5.0241750e-02
4.8573077e-02
4.5100092e-02
4.2540375e-02
3.9763930e-02
3.6414181e-02
3.3021440e-02
3.0536980e-02
3.1103753e-02
3.0894144e-02
2.8902610e-02
2.6935625e-02
2.5863518e-02
2.7429152e-02
2.8839557e-02
2.9394494e-02
2.8847393e-02
2.6647270e-02
2.5689576e-02
2.4196593e-02
2.1594346e-02
1.8331523e-02
1.4464639e-02
1.2345640e-02
1.1073375e-02
1.1552110e-02
1.2452159e-02
1.1924250e-02
1.2442066e-02
1.1590775e-02
8.7450991e-03
4.7097290e-03
-7.8017463e-04
-5.4552678e-03
-1.0688235e-02
-1.6596490e-02
-2.1900362e-02
-2.5388991e-02
-2.5203667e-02
-2.4513928e-02
-2.3598665e-02
-2.2225488e-02
-2.0997763e-02
-1.5610306e-02
-8.1586187e-03
-2.2109247e-03
2.3154514e-03
6.0937664e-03
1.0755565e-02
1.3210048e-02
1.4225141e-02
1.6600999e-02
1.8552584e-02
1.9395356e-02
1.7294491e-02
1.4230110e-02
1.2749872e-02
1.2648750e-02
1.4932257e-02
1.5704569e-02
1.4542158e-02
1.3525325e-02
1.1943235e-02
1.0621395e-02
7.6422064e-03
4.8722847e-03
4.0631612e-03
3.7598462e-03
4.5533342e-03
3.2342103e-03
4.3984058e-04
-2.2800856e-03
-5.7353778e-03
-7.9829450e-03
-1.1848203e-02
-1.6668921e-02
-1.9261863e-02
-2.0595184e-02
-2.0661342e-02
-2.1637616e-02
-2.3303172e-02
-2.5234224e-02
-2.7710223e-02
-2.7269708e-02
-2.6210897e-02
-2.5682101e-02
-2.3861999e-02
-2.2046877e-02
-1.9026008e-02
-1.5668784e-02
-1.2565965e-02
-8.8400234e-03
-3.6233386e-03
4.1360899e-03
9.6558545e-03
1.1519374e-02
1.1845833e-02
1.2191517e-02
1.4700762e-02
1.6474861e-02
1.7624991e-02
1.9984554e-02
2.2935410e-02
2.6556172e-02
2.8142871e-02
2.9155782e-02
3.1184653e-02
3.2961852e-02
3.5644201e-02
3.6249791e-02
3.4321775e-02
3.1405341e-02
2.8140480e-02
2.7657295e-02
2.7383397e-02
2.5474596e-02
2.1596462e-02
1.4321030e-02
6.1416018e-03
-2.7321290e-03
-1.1047542e-02
-1.7755729e-02
-2.2965799e-02
-2.4638150e-02
-2.5498762e-02
-2.5304133e-02
-2.2176488e-02
-1.8341598e-02
-1.3167409e-02
-8.1950847e-03
-4.2813056e-03
-3.8328072e-04
2.6619401e-03
5.9969426e-03
8.2140743e-03
9.2803078e-03
9.8883931e-03
9.2137095e-03
8.5191080e-03
5.6542417e-03
1.4470395e-03
-2.3957741e-03
-6.8201241e-03
-9.6954369e-03
-1.2157065e-02
-1.4097466e-02
-1.4269626e-02
-1.4174104e-02
-1.3981402e-02
-1.6125431e-02
-1.8290732e-02
-1.7561953e-02
-1.6556759e-02
-1.6224716e-02
-1.8849334e-02
-2.3407346e-02
-2.7604423e-02
-3.0569373e-02
-3.1071743e-02
-3.3984777e-02
-3.9677197e-02
-4.4130343e-02
-4.6263259e-02
-4.4559373e-02
-4.1757840e-02
-3.8861477e-02
-3.4681750e-02
-2.8932579e-02
-2.0197846e-02
-1.2023656e-02
-4.9354734e-03
3.1086721e-03
1.1671108e-02
2.0748663e-02
2.6408160e-02
2.9303781e-02
3.1770138e-02
3.3246032e-02
3.5432317e-02
3.5059284e-02
3.2384018e-02
3.0503515e-02
2.9104568e-02
3.0108697e-02
3.1299514e-02
3.1942165e-02
3.3218267e-02
3.4260715e-02
3.5114545e-02
3.2740806e-02
2.8489595e-02
2.4673864e-02
2.0463556e-02
1.6186770e-02
8.9655529e-03
5.8393054e-04
-5.8697431e-03
-1.0293367e-02
-1.0573090e-02
-1.0302442e-02
-1.1991068e-02
-1.5034080e-02
-1.9348468e-02
-2.2181388e-02
-2.4627820e-02
-2.6351281e-02
-2.6204520e-02
-2.5903313e-02
-2.4461777e-02
-2.4151870e-02
-2.5475097e-02
-2.6184980e-02
-2.6057020e-02
-2.3458187e-02
-2.0973358e-02
-1.8926519e-02
-1.5618426e-02
-1.2549771e-02
-9.4704894e-03
-8.1861223e-03
-7.0814461e-03
-4.9268039e-03
-3.5978565e-03
-6.8956921e-04
3.1294642e-03
7.2882062e-03
1.1840230e-02
1.5473346e-02
1.8363203e-02
1.7875625e-02
1.5342904e-02
1.2568172e-02
8.6327011e-03
5.3687010e-03
1.2950191e-03
-2.7517572e-03
-5.2562320e-03
-7.5594465e-03
-8.1154669e-03
-7.8294372e-03
-6.9987007e-03
-5.6604056e-03
-3.6359144e-03
2.0008224e-03
8.2222763e-03
1.2505567e-02
1.4737382e-02
1.5682178e-02
1.7984830e-02
1.8501616e-02
1.7716799e-02
1.7614245e-02
1.6054748e-02
1.4005228e-02
1.1024927e-02
8.4646811e-03
7.5023340e-03
6.4895178e-03
6.0106859e-03
3.9414056e-03
3.8395017e-04
-2.5298403e-03
-3.8850243e-03
-2.4742187e-03
-2.5554771e-03
-4.9221908e-03
-7.1594695e-03
-8.2660827e-03
-6.3424521e-03
-5.0856448e-03
-5.4458600e-03
-5.5551543e-03
-5.2466864e-03
-2.8923741e-03
-5.5385836e-04
1.8750533e-03
5.2315209e-03
8.8671193e-03
1.4142013e-02
1.9039882e-02
2.3732446e-02
2.8186343e-02
3.1803889e-02
3.6257895e-02
3.8337293e-02
3.8179216e-02
3.8081841e-02
3.8822384e-02
4.1405027e-02
4.2291109e-02
4.0896763e-02
3.8017452e-02
3.3982044e-02
3.0094332e-02
2.4022260e-02
1.7705956e-02
1.3017612e-02
9.6385874e-03
9.0355051e-03
7.9079116e-03
5.3698634e-03
2.5848734e-03
-7.0101584e-06
-1.7702658e-04
1.6268372e-04
1.1733146e-04
-8.3611385e-05
4.1155927e-04
3.5357970e-03
6.2072289e-03
8.0627784e-03
9.4132851e-03
1.0169750e-02
1.2960976e-02
1.6064010e-02
1.9273735e-02
2.1821896e-02
2.1947792e-02
2.0421928e-02
1.6110153e-02
1.3100300e-02
1.2566186e-02
1.1486083e-02
1.1277580e-02
1.0645904e-02
9.6145917e-03
7.8401956e-03
4.5894307e-03
1.1745532e-03
-4.0526824e-03
-9.3604013e-03
-1.4534136e-02
-2.0211381e-02
-2.4448347e-02
-3.0347362e-02
-3.7141052e-02
-4.2312024e-02
-4.5763918e-02
-4.7220287e-02
-4.9044146e-02
-5.0269812e-02
-5.0681076e-02
-4.7595323e-02
-3.7108921e-02
-2.5721715e-02
-1.7854111e-02
-1.3438303e-02
-1.1549996e-02
-1.0624797e-02
-1.2648558e-02
-1.7165437e-02
-2.3267154e-02
-2.9081622e-02
-3.2110875e-02
-3.4514948e-02
-3.6494355e-02
-3.7709565e-02
-3.6507838e-02
-3.1683067e-02
-2.7502689e-02
-2.4469388e-02
-2.2715017e-02
-2.1877132e-02
-1.8919841e-02
-1.5462729e-02
-1.2584272e-02
-1.2076558e-02
-1.3982744e-02
-1.5491330e-02
-1.7287346e-02
-1.8223685e-02
-1.8972438e-02
-1.9060133e-02
-1.5765722e-02
-1.1988591e-02
-9.5533723e-03
-9.9957061e-03
-1.1374934e-02
-9.5543122e-03
-6.9899099e-03
-5.1957913e-03
-5.0327418e-03
-4.7527867e-03
-2.4388446e-03
-1.6241237e-03
-1.5239880e-03
-2.1573656e-03
-2.7304472e-03
3.8195535e-05
3.3184976e-03
5.6210923e-03
6.1931681e-03
6.3041526e-03
7.7496543e-03
7.9343055e-03
7.8303234e-03
8.4525735e-03
9.7592792e-03
1.1450065e-02
1.2260680e-02
1.4052817e-02
1.5773020e-02
1.6941963e-02
1.8965845e-02
2.1335491e-02
2.5588456e-02
2.9094514e-02
3.1400949e-02
3.5501701e-02
4.0331313e-02
4.5428464e-02
4.7502203e-02
4.7345069e-02
4.8092672e-02
4.7007699e-02
4.3680698e-02
3.7442733e-02
2.9688261e-02
2.0693810e-02
8.4928537e-03
-1.2263322e-03
-7.6541383e-03
-1.2932717e-02
-1.6713899e-02
-2.0557341e-02
-2.3239574e-02
-2.6559754e-02
-3.0645897e-02
-3.3705839e-02
-3.6501604e-02
-3.8416279e-02
-4.2220543e-02
-4.6702359e-02
-4.8771621e-02
-4.9438186e-02
-4.8762070e-02
-4.8747609e-02
-4.8821328e-02
-4.6990453e-02
-4.3170499e-02
-3.6008440e-02
-2.6460604e-02
-1.4218668e-02
1.4970664e-03
1.8573771e-02
3.3649280e-02
4.2020870e-02
4.5788656e-02
4.7730090e-02
4.8167253e-02
4.9945016e-02
5.0155670e-02
4.8215638e-02
4.5701580e-02
4.2583865e-02
4.1518919e-02
3.9460322e-02
3.5465013e-02
3.1473315e-02
2.7612063e-02
2.6203882e-02
2.5534994e-02
2.4677978e-02
2.2837847e-02
1.9123589e-02
1.6085269e-02
1.1675762e-02
5.3521240e-03
-2.0309711e-03
-9.2103095e-03
-1.3020124e-02
-1.5589779e-02
-1.6422552e-02
-1.4876060e-02
-1.2262219e-02
-7.3545687e-03
-2.1478920e-03
2.9049859e-03
7.2030466e-03
9.9316351e-03
1.3056020e-02
1.5503162e-02
1.7091915e-02
1.6821743e-02
1.5118391e-02
1.5598150e-02
1.6858535e-02
1.8001424e-02
1.8365443e-02
1.8608534e-02
2.0206758e-02
1.9408043e-02
1.4871354e-02
5.9250484e-03
-4.3377568e-03
-1.0139047e-02
-1.3346494e-02
-1.5190306e-02
-1.8346252e-02
-2.3792831e-02
-2.7200079e-02
-2.9406160e-02
-3.0904846e-02
-3.2929922e-02
-3.5022418e-02
-3.3628181e-02
-3.1243949e-02
-2.8810065e-02
-2.7313348e-02
-2.7042411e-02
-2.5377166e-02
-2.4227893e-02
-2.4381311e-02
-2.6131829e-02
-2.7641916e-02
-2.6234172e-02
-2.3532559e-02
-1.9327672e-02
-1.4389853e-02
-8.5935459e-03
-2.0985898e-03
1.8320495e-03
3.7348456e-03
3.7953701e-03
3.6097886e-03
4.7959051e-03
6.1759751e-03
9.6748012e-03
1.2539383e-02
1.2531759e-02
1.1073668e-02
7.7199765e-03
5.2104731e-03
2.5725505e-03
-7.7642002e-04
-2.6692204e-03
-4.2995322e-03
-5.3634707e-03
-7.4158143e-03
-8.8991910e-03
-7.1191633e-03
-4.5808402e-03
-1.5198912e-03
-6.2788685e-04
-1.8047428e-03
-1.5752627e-03
-1.3371651e-03
-6.8302075e-04
3.4374445e-04
1.7340477e-03
3.5486388e-03
5.0186294e-03
7.6906266e-03
1.0143763e-02
1.2579212e-02
1.5643451e-02
1.8980441e-02
2.4367902e-02
2.8494650e-02
2.9869748e-02
2.9721916e-02
2.8852454e-02
2.9242428e-02
2.8565861e-02
2.6495523e-02
2.3991738e-02
2.1085666e-02
1.8149297e-02
1.0657619e-02
-1.4096383e-04
-9.0783038e-03
-1.5144449e-02
-1.7713850e-02
-2.0217709e-02
-2.3063201e-02
-2.4256076e-02
-2.4667068e-02
-2.4578708e-02
-2.6682804e-02
-3.0863547e-02
-3.5552111e-02
-3.9468549e-02
-4.0701055e-02
-4.1833448e-02
-4.2869227e-02
-4.2710739e-02
-4.1063355e-02
-3.6565259e-02
-3.1773320e-02
-2.7037319e-02
-2.1819714e-02
-1.6211975e-02
-7.9504181e-03
2.5508052e-03
1.3425952e-02
2.1603567e-02
2.8055734e-02
3.4859427e-02
3.8313821e-02
3.8171891e-02
3.4324063e-02
2.9150515e-02
2.7258347e-02
2.5353962e-02
2.2285899e-02
1.8289562e-02
1.4052829e-02
1.1588439e-02
8.9570565e-03
6.5946211e-03
3.3564974e-03
-9.5534461e-05
-9.6478018e-04
-2.2700664e-03
-4.7142530e-03
-8.6104605e-03
-1.2693698e-02
-1.5260242e-02
-1.8597285e-02
-2.2213221e-02
-2.7670726e-02
-3.4005151e-02
-3.6544732e-02
-3.5277414e-02
-3.1218230e-02
-2.8065901e-02
-2.6036081e-02
-2.1797909e-02
-1.5594274e-02
-7.5708788e-03
-6.0864809e-04
5.2921852e-03
1.1396869e-02
1.6696980e-02
2.3495282e-02
2.8977450e-02
3.1205011e-02
3.3048376e-02
3.5857496e-02
3.9910671e-02
4.1008131e-02
3.8920428e-02
3.5833132e-02
3.1213807e-02
2.7304468e-02
2.2479825e-02
1.5728499e-02
8.6796522e-03
2.6683199e-03
-5.8650250e-04
-5.0445593e-03
-1.1942504e-02
-1.9858539e-02
-2.7462572e-02
-3.1024092e-02
-3.2677633e-02
-3.4010091e-02
-3.4870715e-02
-3.6043306e-02
-3.6080569e-02
-3.6563139e-02
-3.7290280e-02
-3.7990632e-02
-3.8144397e-02
-3.5172123e-02
-3.2729817e-02
-3.0914767e-02
-2.6854239e-02
-1.9064112e-02
-6.5543199e-03
5.1394427e-03
1.3742682e-02
1.9535847e-02
2.3057715e-02
2.6183678e-02
2.6352986e-02
2.4405380e-02
2.1926088e-02
1.9608091e-02
1.9342894e-02
1.9318927e-02
1.9905443e-02
2.0312379e-02
2.0609817e-02
2.2892115e-02
2.4208062e-02
2.4639026e-02
2.3373541e-02
1.9621507e-02
1.5638592e-02
1.0933403e-02
7.2135979e-03
3.1801344e-03
-1.0281781e-03
-2.3522595e-03
-3.2856951e-03
-3.6003719e-03
-4.3648403e-03
-5.3674851e-03
-3.3180722e-03
-4.1202185e-04
2.7148442e-03
4.9713748e-03
7.0337787e-03
1.0923202e-02
1.4294003e-02
1.7084713e-02
1.6860480e-02
1.4004448e-02
1.3235161e-02
1.4104769e-02
1.5217987e-02
1.4775741e-02
1.3907111e-02
1.3630116e-02
1.2207818e-02
1.0184599e-02
5.3044289e-03
-1.6895747e-03
-7.2535827e-03
-1.0986503e-02
-1.1607534e-02
-1.0550660e-02
-9.0039327e-03
-7.5097787e-03
-6.5289942e-03
-4.9340812e-03
-5.3817837e-03
-7.0802190e-03
-8.0373850e-03
-8.3200845e-03
-6.5602132e-03
-5.4612470e-03
-4.7222514e-03
-2.6865607e-03
4.3309210e-04
5.2306507e-03
8.8746321e-03
1.1488393e-02
1.3837097e-02
1.6047153e-02
1.8657612e-02
1.8015406e-02
1.3964648e-02
8.1995589e-03
3.0626922e-03
4.4055836e-04
-2.5338501e-03
-5.2091727e-03
-7.8856041e-03
-1.0612914e-02
-1.0878583e-02
-1.0448369e-02
-9.1503190e-03
-7.7376708e-03
-6.1919305e-03
-3.1248630e-03
-5.4306005e-04
1.9543826e-03
2.9413363e-03
3.3832995e-03
5.7954796e-03
6.9344442e-03
6.5564494e-03
3.9364842e-03
-9.2352974e-05
-3.1039458e-03
-7.1185704e-03
-1.2025357e-02
-1.8011301e-02
-2.1938688e-02
-2.2096826e-02
-2.2274898e-02
-2.2216763e-02
-2.3449522e-02
-2.5065540e-02
-2.3699873e-02
-2.0187116e-02
-1.4584689e-02
-9.7002743e-03
-5.9030399e-03
-1.5320138e-03
1.3065819e-03
2.3778277e-03
9.0844665e-04
-6.9000369e-04
-7.5947663e-05
1.0861482e-03
3.4440660e-03
4.9600308e-03
5.0133318e-03
5.3102327e-03
6.2937465e-03
9.1887290e-03
1.1542971e-02
1.1788589e-02
1.0552785e-02
9.6605560e-03
1.0304894e-02
8.4381706e-03
5.0675644e-03
2.2962370e-03
-1.4238152e-04
-7.7567145e-04
-3.1660873e-03
-7.4637250e-03
-1.0799699e-02
-1.1525618e-02
-8.4985788e-03
-5.4725879e-03
-3.0537111e-03
-1.5800217e-03
-9.8948804e-04
7.1669167e-04
7.8145463e-04
-6.6959532e-05
-1.3325156e-03
-3.2512094e-03
-3.6195152e-03
-4.1460056e-03
-3.9464356e-03
-3.6873174e-03
-4.5267685e-03
-4.1164152e-03
-4.0168472e-03
-3.9050451e-03
-4.6018997e-03
-6.7294140e-03
-7.4260004e-03
-6.9402617e-03
-5.8479597e-03
-7.7492854e-03
-1.1814625e-02
-1.3339007e-02
-1.3821679e-02
-1.3395082e-02
-1.3387113e-02
-1.3802796e-02
-1.2067601e-02
-8.6402183e-03
-3.8435024e-03
-4.3937788e-04
2.1246261e-03
6.5625596e-03
1.1971911e-02
1.6943526e-02
1.7588729e-02
1.5702220e-02
1.4795744e-02
1.4114773e-02
1.5272861e-02
1.6373925e-02
1.6534730e-02
1.6252820e-02
1.5127856e-02
1.5276391e-02
1.3989360e-02
1.0805898e-02
7.8450021e-03
5.6741460e-03
6.0558146e-03
5.6859588e-03
4.3163235e-03
4.5705685e-03
6.4277609e-03
9.9290373e-03
1.0778449e-02
7.8002189e-03
2.5896078e-03
-3.8179202e-03
-8.8834220e-03
-1.3384471e-02
-1.6580367e-02
-1.8648533e-02
-1.9548613e-02
-1.6243500e-02
-1.1655415e-02
-8.7989760e-03
-8.9314820e-03
-1.1097473e-02
-1.2043414e-02
-1.3402246e-02
-1.5049271e-02
-1.6227089e-02
-1.6781189e-02
-1.5377475e-02
-1.4013935e-02
-1.3029049e-02
-1.3478447e-02
-1.3855798e-02
-1.0595175e-02
-5.9653065e-03
2.9346458e-04
7.5973028e-03
1.5324273e-02
2.3702038e-02
2.8970590e-02
3.1770287e-02
3.2497213e-02
3.2066209e-02
3.3017625e-02
3.3104896e-02
3.2378036e-02
3.0540800e-02
2.7519098e-02
2.4694168e-02
2.1572664e-02
1.9055856e-02
1.4209915e-02
7.2640335e-03
2.1689546e-03
-1.5106955e-03
-2.5790180e-03
-2.5492746e-03
-3.1963827e-03
-4.2909536e-03
-6.2579948e-03
-7.2807491e-03
-9.8423634e-03
-1.3948871e-02
-1.6462865e-02
-1.7248808e-02
-1.5859218e-02
-1.5234992e-02
-1.4805970e-02
-1.2391179e-02
-9.0244899e-03
-4.6313928e-03
-2.8416614e-03
-3.2270019e-03
-1.9859384e-03
2.8875635e-04
2.5597287e-03
2.8393221e-03
2.6371503e-03
1.8601283e-03
-7.7506263e-04
-1.9464767e-03
-3.3427826e-03
-4.6943790e-03
-3.5115649e-03
-1.0845977e-03
1.7694543e-03
2.5817709e-03
