4.9139731e-05
5.8057498e-05
7.0304901e-05
8.7826121e-05
1.1189093e-04
1.4281360e-04
1.7978229e-04
2.2082580e-04
2.6292990e-04
3.0229793e-04
3.3473128e-04
3.5608993e-04
3.6278290e-04
3.5223567e-04
3.2328282e-04
2.7644140e-04
2.1403308e-04
1.4013942e-04
6.0389339e-05
-1.8410782e-05
-8.8783132e-05
-1.4318699e-04
-1.7468480e-04
-1.7761421e-04
-1.4821235e-04
-8.5136835e-05
1.0176375e-05
1.3337947e-04
2.7735115e-04
4.3262154e-04
5.8805724e-04
7.3174803e-04
8.5201345e-04
9.3842882e-04
9.8275558e-04
9.7966305e-04
9.2715212e-04
8.2663210e-04
6.8264785e-04
5.0229934e-04
2.9443600e-04
6.8720508e-05
-1.6526136e-04
-3.9861381e-04
-6.2343686e-04
-8.3295385e-04
-1.0215302e-03
-1.1846035e-03
-1.3185507e-03
-1.4205355e-03
-1.4883891e-03
-1.5205772e-03
-1.5162771e-03
-1.4755563e-03
-1.3996156e-03
-1.2910420e-03
-1.1540025e-03
-9.9430442e-04
-8.1925962e-04
-6.3732517e-04
-4.5754146e-04
-2.8883206e-04
-1.3925201e-04
-1.5273602e-05
7.8808156e-05
1.4127870e-04
1.7316503e-04
1.7813533e-04
1.6214575e-04
1.3285904e-04
9.8871988e-05
6.8814835e-05
5.0422517e-05
4.9705138e-05
7.0341902e-05
1.1338788e-04
1.7733031e-04
2.5847853e-04
3.5162780e-04
4.5090182e-04
5.5065513e-04
6.4616214e-04
7.3388578e-04
8.1152214e-04
8.7797863e-04
9.3319743e-04
9.7778333e-04
1.0124895e-03
1.0376652e-03
1.0527881e-03
1.0561902e-03
1.0450448e-03
1.0156408e-03
9.6391642e-04
8.8617861e-04
7.7989278e-04
6.4441176e-04
4.8152056e-04
2.9570102e-04
9.4057315e-05
-1.1410757e-04
-3.1801404e-04
-5.0631876e-04
-6.6808222e-04
-7.9366782e-04
-8.7548838e-04
-9.0855709e-04
-8.9082915e-04
-8.2333914e-04
-7.1015321e-04
-5.5816481e-04
-3.7676360e-04
-1.7739764e-04
2.6965909e-05
2.2248836e-04
3.9522287e-04
5.3198727e-04
6.2131601e-04
6.5443023e-04
6.2613037e-04
5.3549751e-04
3.8619700e-04
1.8630252e-04
-5.2121875e-05
-3.1361991e-04
-5.8028944e-04
-8.3307477e-04
-1.0532573e-03
-1.2239662e-03
-1.3315347e-03
-1.3665585e-03
-1.3245618e-03
-1.2062303e-03
-1.0172188e-03
-7.6757924e-04
-4.7089515e-04
-1.4322949e-04
1.9799685e-04
5.3509640e-04
8.5110508e-04
1.1306275e-03
1.3605170e-03
1.5303914e-03
1.6330009e-03
1.6644684e-03
1.6244018e-03
1.5158517e-03
1.3450701e-03
1.1210379e-03
8.5476547e-04
5.5841702e-04
2.4434891e-04
-7.5813849e-05
-3.9192677e-04
-6.9578509e-04
-9.8123521e-04
-1.2439587e-03
-1.4810201e-03
-1.6903145e-03
-1.8700649e-03
-2.0185375e-03
-2.1340582e-03
-2.2149026e-03
-2.2586501e-03
-2.2614679e-03
-2.2179087e-03
-2.1213372e-03
-1.9649101e-03
-1.7429350e-03
-1.4523636e-03
-1.0941449e-03
-6.7418708e-04
-2.0375111e-04
3.0080746e-04
8.1893394e-04
1.3273027e-03
1.8016001e-03
2.2184359e-03
2.5571543e-03
2.8013532e-03
2.9399892e-03
2.9680094e-03
2.8865068e-03
2.7024333e-03
2.4279407e-03
2.0794449e-03
1.6765179e-03
1.2407078e-03
7.9436280e-04
3.5951327e-04
-4.3157939e-05
-3.9524479e-04
-6.8144898e-04
-8.9031654e-04
-1.0148714e-03
-1.0531107e-03
-1.0082989e-03
-8.8897809e-04
-7.0861762e-04
-4.8485242e-04
-2.3835971e-04
8.5009159e-06
2.3333433e-04
4.1568349e-04
5.3901064e-04
5.9230758e-04
5.7112203e-04
4.7786945e-04
3.2138628e-04
1.1577675e-04
-1.2129784e-04
-3.7066077e-04
-6.1372591e-04
-8.3440393e-04
-1.0205835e-03
-1.1650264e-03
-1.2655971e-03
-1.3248427e-03
-1.3490200e-03
-1.3467330e-03
-1.3273715e-03
-1.2995546e-03
-1.2697714e-03
-1.2413897e-03
-1.2141533e-03
-1.1842244e-03
-1.1447520e-03
-1.0868851e-03
-1.0010927e-03
-8.7861339e-04
-7.1284842e-04
-5.0051987e-04
-2.4245889e-04
5.6061677e-05
3.8547934e-04
7.3255596e-04
1.0813856e-03
1.4146860e-03
1.7152281e-03
1.9672367e-03
2.1576106e-03
2.2769010e-03
2.3200894e-03
2.2871104e-03
2.1829262e-03
2.0170567e-03
1.8026181e-03
1.5549864e-03
1.2902318e-03
1.0234982e-03
7.6751357e-04
5.3141309e-04
3.2002392e-04
1.3369970e-04
-3.1276626e-05
-1.8177095e-04
-3.2646517e-04
-4.7427275e-04
-6.3269913e-04
-8.0635832e-04
-9.9584390e-04
-1.1971130e-03
-1.4014816e-03
-1.5962547e-03
-1.7659386e-03
-1.8939007e-03
-1.9642815e-03
-1.9639262e-03
-1.8840960e-03
-1.7217492e-03
-1.4802234e-03
-1.1692165e-03
-8.0404850e-04
-4.0428956e-04
8.0664243e-06
4.1063992e-04
7.8264997e-04
1.1065920e-03
1.3694014e-03
1.5629741e-03
1.6840408e-03
1.7336997e-03
1.7169087e-03
1.6417880e-03
1.5186328e-03
1.3588315e-03
1.1738582e-03
9.7443206e-04
7.6989575e-04
5.6782527e-04
3.7385993e-04
1.9173237e-04
2.3474033e-05
-1.3024289e-04
-2.6968598e-04
-3.9563393e-04
-5.0899466e-04
-6.1050220e-04
-7.0050657e-04
-7.7886394e-04
-8.4493191e-04
-8.9766371e-04
-9.3577942e-04
-9.5798196e-04
-9.6318574e-04
-9.5073106e-04
-9.2055914e-04
-8.7332434e-04
-8.1042586e-04
-7.3395113e-04
-6.4653249e-04
-5.5112519e-04
-4.5072238e-04
-3.4803668e-04
-2.4519859e-04
-1.4353744e-04
-4.3505786e-05
5.5222591e-05
1.5349436e-04
2.5231088e-04
3.5243903e-04
4.5422449e-04
5.5766254e-04
6.6238474e-04
7.6747165e-04
8.7131170e-04
9.7159656e-04
1.0654415e-03
1.1495952e-03
1.2206895e-03
1.2754817e-03
1.3110490e-03
1.3249140e-03
1.3151017e-03
1.2801407e-03
1.2190297e-03
1.1311855e-03
1.0163921e-03
8.7476928e-04
7.0678879e-04
5.1335350e-04
2.9594688e-04
5.6843748e-05
-2.0063698e-04
-4.7186895e-04
-7.5069323e-04
-1.0292982e-03
-1.2982758e-03
-1.5469101e-03
-1.7637195e-03
-1.9372356e-03
-2.0569560e-03
-2.1143650e-03
-2.1038796e-03
-2.0235698e-03
-1.8755332e-03
-1.6658737e-03
-1.4043019e-03
-1.1034143e-03
-7.7773488e-04
-4.4259512e-04
-1.1285096e-04
1.9839564e-04
4.8063546e-04
7.2622938e-04
9.3031357e-04
1.0904740e-03
1.2062931e-03
1.2788574e-03
1.3103015e-03
1.3034455e-03
1.2615532e-03
1.1882095e-03
1.0872889e-03
9.6297824e-04
8.1979973e-04
6.6258260e-04
4.9633875e-04
3.2603552e-04
1.5630526e-04
-8.8349891e-06
-1.6617775e-04
-3.1338362e-04
-4.4889232e-04
-5.7171283e-04
-6.8114880e-04
-7.7652705e-04
-8.5698597e-04
-9.2135442e-04
-9.6812400e-04
-9.9550025e-04
-1.0015108e-03
-9.8414780e-04
-9.4152692e-04
-8.7205598e-04
-7.7462094e-04
-6.4880467e-04
-4.9514333e-04
-3.1539466e-04
-1.1275891e-04
1.0802912e-04
3.4083959e-04
5.7838105e-04
8.1223895e-04
1.0328525e-03
1.2297390e-03
1.3920388e-03
1.5093293e-03
1.5726103e-03
1.5753340e-03
1.5143414e-03
1.3905620e-03
1.2093489e-03
9.8036569e-04
7.1700344e-04
4.3537155e-04
1.5296224e-04
-1.1287108e-04
-3.4645622e-04
-5.3519146e-04
-6.7062447e-04
-7.4910831e-04
-7.7198047e-04
-7.4526492e-04
-6.7893804e-04
-5.8583711e-04
-4.8032882e-04
-3.7688444e-04
-2.8870983e-04
-2.2655305e-04
-1.9777969e-04
-2.0578066e-04
-2.4975668e-04
-3.2489493e-04
-4.2291238e-04
-5.3289938e-04
-6.4236955e-04
-7.3841211e-04
-8.0883946e-04
-8.4322005e-04
-8.3367880e-04
-7.7540807e-04
-6.6709701e-04
-5.1145938e-04
-3.1556557e-04
-9.0629433e-05
1.4880305e-04
3.8616458e-04
6.0449861e-04
7.8819041e-04
9.2457027e-04
1.0051859e-03
1.0265835e-03
9.9049994e-04
9.0344549e-04
7.7575020e-04
6.2022197e-04
4.5061799e-04
2.8014853e-04
1.2021639e-04
-2.0454756e-05
-1.3622787e-04
-2.2450992e-04
-2.8534957e-04
-3.2080790e-04
-3.3423977e-04
-3.2960242e-04
-3.1088131e-04
-2.8169620e-04
-2.4511741e-04
-2.0367905e-04
-1.5953465e-04
-1.1467605e-04
-7.1135813e-05
-3.1108189e-05
3.0552527e-06
2.8993057e-05
4.4612693e-05
4.8460360e-05
4.0119549e-05
2.0556549e-05
-7.7623638e-06
-4.1169364e-05
-7.5429614e-05
-1.0645866e-04
-1.3095527e-04
-1.4684885e-04
-1.5349022e-04
-1.5156650e-04
-1.4276739e-04
-1.2926701e-04
-1.1311975e-04
-9.5695951e-05
-7.7286552e-05
-5.6975593e-05
-3.2821385e-05
-2.3201995e-06
3.6932598e-05
8.6507394e-05
1.4646723e-04
2.1488231e-04
2.8762992e-04
3.5853813e-04
4.1988394e-04
4.6320720e-04
4.8035720e-04
4.6465158e-04
4.1199393e-04
3.2177264e-04
1.9736788e-04
4.6141590e-05
-1.2112907e-04
-2.9131754e-04
-4.5037361e-04
-5.8491427e-04
-6.8376127e-04
-7.3921526e-04
-7.4788878e-04
-7.1097081e-04
-6.3386196e-04
-5.2519435e-04
-3.9547481e-04
-2.5583921e-04
-1.1713301e-04
1.0878429e-05
1.2027329e-04
2.0563505e-04
2.6452081e-04
2.9764660e-04
3.0872790e-04
3.0397239e-04
2.9128766e-04
2.7930996e-04
2.7636854e-04
2.8948882e-04
3.2352758e-04
3.8052850e-04
4.5937151e-04
5.5575467e-04
6.6250244e-04
7.7015991e-04
8.6781177e-04
9.4404959e-04
9.8799582e-04
9.9028872e-04
9.4394671e-04
8.4505758e-04
6.9325753e-04
4.9196627e-04
2.4833862e-04
-2.7096898e-05
-3.2110873e-04
-6.1869658e-04
-9.0421236e-04
-1.1625701e-03
-1.3804252e-03
-1.5471825e-03
-1.6556924e-03
-1.7025357e-03
-1.6878726e-03
-1.6149311e-03
-1.4894121e-03
-1.3191113e-03
-1.1136922e-03
-8.8435463e-04
-6.4330531e-04
-4.0304323e-04
-1.7550355e-04
2.8869767e-05
2.0202221e-04
3.3903913e-04
4.3863429e-04
5.0328870e-04
5.3898954e-04
5.5456525e-04
5.6066564e-04
5.6849164e-04
5.8842315e-04
6.2871169e-04
6.9439342e-04
7.8655003e-04
9.0200867e-04
1.0335259e-03
1.1704411e-03
1.2997241e-03
1.4072935e-03
1.4794560e-03
1.5043085e-03
1.4729440e-03
1.3803271e-03
1.2257403e-03
1.0127706e-03
7.4886820e-04
4.4457012e-04
1.1251508e-04
-2.3360570e-04
-5.8001939e-04
-9.1364605e-04
-1.2226053e-03
-1.4964430e-03
-1.7261268e-03
-1.9041095e-03
-2.0247505e-03
-2.0848401e-03
-2.0838628e-03
-2.0239583e-03
-1.9096393e-03
-1.7473284e-03
-1.5447794e-03
-1.3104580e-03
-1.0529531e-03
-7.8048173e-04
-5.0052880e-04
-2.1964167e-04
5.6615737e-05
3.2355923e-04
5.7715850e-04
8.1373892e-04
1.0296757e-03
1.2211465e-03
1.3839986e-03
1.5137719e-03
1.6058982e-03
1.6560697e-03
1.6607375e-03
1.6176737e-03
1.5265179e-03
1.3892241e-03
1.2103336e-03
9.9701265e-04
7.5881054e-04
5.0713154e-04
2.5445288e-04
1.3364147e-05
-2.0447106e-04
-3.8931793e-04
-5.3422172e-04
-6.3559789e-04
-6.9347365e-04
-7.1133390e-04
-6.9559939e-04
-6.5496752e-04
-5.9973601e-04
-5.4085033e-04
-4.8864412e-04
-4.5158829e-04
-4.3528466e-04
-4.4182458e-04
-4.6957167e-04
-5.1337315e-04
-5.6515765e-04
-6.1483258e-04
-6.5135859e-04
-6.6386925e-04
-6.4272631e-04
-5.8043842e-04
-4.7239869e-04
-3.1740644e-04
-1.1794092e-04
1.1983151e-04
3.8630867e-04
6.6893180e-04
9.5285728e-04
1.2217957e-03
1.4589995e-03
1.6483719e-03
1.7756510e-03
1.8295935e-03
1.8030582e-03
1.6938589e-03
1.5052526e-03
1.2459436e-03
9.2954889e-04
5.7354519e-04
1.9780050e-04
-1.7715074e-04
-5.3189477e-04
-8.4978336e-04
-1.1182442e-03
-1.3296082e-03
-1.4813775e-03
-1.5760503e-03
-1.6205904e-03
-1.6253839e-03
-1.6027205e-03
-1.5651075e-03
-1.5236706e-03
-1.4868269e-03
-1.4593545e-03
-1.4419319e-03
-1.4311652e-03
-1.4200830e-03
-1.3990372e-03
-1.3569078e-03
-1.2824855e-03
-1.1658886e-03
-9.9987472e-04
-7.8090377e-04
-5.0983269e-04
-1.9215255e-04
1.6226338e-04
5.3987485e-04
9.2457615e-04
1.2990659e-03
1.6463354e-03
1.9511067e-03
2.2010591e-03
2.3877050e-03
2.5068222e-03
2.5584063e-03
2.5461641e-03
2.4766312e-03
2.3580394e-03
2.1990939e-03
2.0078321e-03
1.7907291e-03
1.5521815e-03
1.2944521e-03
1.0180878e-03
7.2274640e-04
4.0825576e-04
7.5486270e-05
-2.7315008e-04
-6.3324170e-04
-9.9793567e-04
-1.3578104e-03
-1.7011657e-03
-2.0146943e-03
-2.2844380e-03
-2.4968981e-03
-2.6401667e-03
-2.7049559e-03
-2.6854243e-03
-2.5797324e-03
-2.3902977e-03
-2.1237563e-03
-1.7906501e-03
-1.4048613e-03
-9.8281808e-04
-5.4250889e-04
-1.0237085e-04
3.1985898e-04
7.0823265e-04
1.0495339e-03
1.3340045e-03
1.5558004e-03
1.7131410e-03
1.8081307e-03
1.8462595e-03
1.8356188e-03
1.7858984e-03
1.7072580e-03
1.6091936e-03
1.4995311e-03
1.3836730e-03
1.2641891e-03
1.1407873e-03
1.0106619e-03
8.6917022e-04
7.1074938e-04
5.2993726e-04
3.2228558e-04
8.5178839e-05
-1.8122917e-04
-4.7315703e-04
-7.8280224e-04
-1.0985425e-03
-1.4057015e-03
-1.6877656e-03
-1.9278748e-03
-2.1103907e-03
-2.2223523e-03
-2.2546626e-03
-2.2028895e-03
-2.0676070e-03
-1.8542671e-03
-1.5726490e-03
-1.2359918e-03
-8.5993693e-04
-4.6140758e-04
-5.7528095e-05
3.3534350e-04
7.0242736e-04
1.0311579e-03
1.3116374e-03
1.5368987e-03
1.7029687e-03
1.8087275e-03
1.8555821e-03
1.8470060e-03
1.7880103e-03
1.6846141e-03
1.5433645e-03
1.3709376e-03
1.1738377e-03
9.5819806e-04
7.2967619e-04
4.9342910e-04
2.5414176e-04
1.6074597e-05
-2.1692487e-04
-4.4153365e-04
-6.5494501e-04
-8.5434540e-04
-1.0361443e-03
-1.1954981e-03
-1.3263267e-03
-1.4218125e-03
-1.4752604e-03
-1.4811254e-03
-1.4359852e-03
-1.3392661e-03
-1.1935885e-03
-1.0046755e-03
-7.8084656e-04
-5.3219577e-04
-2.6960776e-04
-3.7867229e-06
2.5554070e-04
5.0013737e-04
7.2344001e-04
9.2044702e-04
1.0873973e-03
1.2213573e-03
1.3198389e-03
1.3805482e-03
1.4013345e-03
1.3803522e-03
1.3164067e-03
1.2094094e-03
1.0608452e-03
8.7413962e-04
6.5482716e-04
4.1045232e-04
1.5018888e-04
-1.1578317e-04
-3.7705819e-04
-6.2382897e-04
-8.4762967e-04
-1.0418874e-03
-1.2022142e-03
-1.3264494e-03
-1.4144021e-03
-1.4672292e-03
-1.4866415e-03
-1.4742256e-03
-1.4310309e-03
-1.3574842e-03
-1.2536016e-03
-1.1193986e-03
-9.5536381e-04
-7.6287214e-04
-5.4445020e-04
-3.0384787e-04
-4.5910480e-05
2.2371842e-04
4.9900145e-04
7.7393797e-04
1.0429378e-03
1.3010690e-03
1.5441308e-03
1.7685284e-03
1.9709604e-03
2.1479737e-03
2.2954933e-03
2.4084603e-03
2.4806949e-03
2.5050600e-03
2.4739435e-03
2.3800302e-03
2.2172905e-03
1.9820611e-03
1.6740488e-03
1.2970750e-03
8.5941311e-04
3.7363697e-04
-1.4402700e-04
-6.7478353e-04
-1.1986817e-03
-1.6962208e-03
-2.1500250e-03
-2.5464008e-03
-2.8761858e-03
-3.1344165e-03
-3.3193105e-03
-3.4312320e-03
-3.4718644e-03
-3.4436562e-03
-3.3495546e-03
-3.1929827e-03
-2.9779810e-03
-2.7094147e-03
-2.3931596e-03
-2.0362023e-03
-1.6466066e-03
-1.2333228e-03
-8.0584319e-04
-3.7374843e-04
5.3785859e-05
4.6844630e-04
8.6314063e-04
1.2322068e-03
1.5714278e-03
1.8778254e-03
2.1492461e-03
2.3838081e-03
2.5793227e-03
2.7328260e-03
2.8403424e-03
2.8969651e-03
2.8972831e-03
2.8361186e-03
2.7094791e-03
2.5155847e-03
2.2558134e-03
1.9354045e-03
1.5637840e-03
1.1544167e-03
7.2415153e-04
2.9210105e-04
-1.2184214e-04
-4.9872766e-04
-8.2219630e-04
-1.0796529e-03
-1.2629178e-03
-1.3685315e-03
-1.3977876e-03
-1.3565101e-03
-1.2545668e-03
-1.1051028e-03
-9.2350018e-04
-7.2612108e-04
-5.2894760e-04
-3.4626845e-04
-1.8955971e-04
-6.6679403e-05
1.8545613e-05
6.6307773e-05
8.0398212e-05
6.7439180e-05
3.5865579e-05
-5.2279207e-06
-4.7247113e-05
-8.3132993e-05
-1.0814230e-04
-1.2027222e-04
-1.2028324e-04
-1.1134278e-04
-9.8365309e-05
-8.7151278e-05
-8.3438538e-05
-9.1992772e-05
-1.1586912e-04
-1.5595501e-04
-2.1084729e-04
-2.7704783e-04
-3.4941107e-04
-4.2175888e-04
-4.8757784e-04
-5.4071816e-04
-5.7599483e-04
-5.8962247e-04
-5.7940851e-04
-5.4464093e-04
-4.8582569e-04
-4.0448891e-04
-3.0310391e-04
-1.8512161e-04
-5.5053726e-05
8.1460545e-05
2.1768288e-04
3.4596788e-04
4.5815572e-04
5.4616063e-04
6.0271318e-04
6.2218197e-04
6.0136960e-04
5.4015292e-04
4.4183786e-04
3.1313459e-04
1.6372362e-04
5.4519998e-06
-1.4875162e-04
-2.8612310e-04
-3.9532515e-04
-4.6756550e-04
-4.9742563e-04
-4.8330726e-04
-4.2747453e-04
-3.3572605e-04
-2.1675993e-04
-8.1305670e-05
5.8892032e-05
1.9214110e-04
3.0782474e-04
3.9729701e-04
4.5458703e-04
4.7685553e-04
4.6455115e-04
4.2123259e-04
3.5306326e-04
2.6804639e-04
1.7521864e-04
8.4008805e-05
3.6775035e-06
-5.7305157e-05
-9.1932563e-05
-9.5318994e-05
-6.5273506e-05
-2.7269514e-06
8.8050457e-05
1.9950235e-04
3.2115854e-04
4.4034586e-04
5.4321860e-04
6.1604881e-04
6.4667503e-04
6.2596369e-04
5.4910250e-04
4.1653842e-04
2.3440172e-04
1.4315499e-05
-2.2743572e-04
-4.7131871e-04
-6.9640102e-04
-8.8242819e-04
-1.0118903e-03
-1.0718445e-03
-1.0552890e-03
-9.6193341e-04
-7.9827322e-04
-5.7695689e-04
-3.1551991e-04
-3.4638525e-05
2.4389276e-04
4.9923196e-04
7.1337907e-04
8.7267190e-04
9.6871804e-04
9.9866142e-04
9.6478230e-04
8.7364850e-04
7.3521277e-04
5.6198381e-04
3.6807261e-04
1.6803114e-04
-2.4410915e-05
-1.9757048e-04
-3.4285102e-04
-4.5545958e-04
-5.3469224e-04
-5.8373643e-04
-6.0901442e-04
-6.1916129e-04
-6.2377224e-04
-6.3206491e-04
-6.5159722e-04
-6.8717515e-04
-7.4007651e-04
-8.0769071e-04
-8.8362505e-04
-9.5827085e-04
-1.0197730e-03
-1.0553079e-03
-1.0525383e-03
-1.0010803e-03
-8.9380523e-04
-7.2781780e-04
-5.0500145e-04
-2.3207667e-04
7.9835102e-05
4.1609973e-04
7.5980897e-04
1.0932116e-03
1.3991538e-03
1.6623651e-03
1.8704732e-03
2.0146796e-03
2.0900575e-03
2.0954746e-03
2.0331969e-03
1.9083170e-03
1.7281818e-03
1.5018974e-03
1.2398737e-03
9.5336810e-04
6.5403120e-04
3.5346643e-04
6.2793834e-05
-2.0780284e-04
-4.4955748e-04
-6.5561155e-04
-8.2146024e-04
-9.4528507e-04
-1.0281029e-03
-1.0736697e-03
-1.0881001e-03
-1.0792035e-03
-1.0555955e-03
-1.0256853e-03
-9.9666401e-04
-9.7361672e-04
-9.5887644e-04
-9.5171886e-04
-9.4846000e-04
-9.4296177e-04
-9.2748902e-04
-8.9380940e-04
-8.3439021e-04
-7.4352543e-04
-6.1822980e-04
-4.5877182e-04
-2.6878155e-04
-5.4946620e-05
1.7361952e-04
4.0620624e-04
6.3138652e-04
8.3781966e-04
1.0148809e-03
1.1530666e-03
1.2441791e-03
1.2815082e-03
1.2604013e-03
1.1792019e-03
1.0400754e-03
8.4938502e-04
6.1755602e-04
3.5845124e-04
8.8336018e-05
-1.7544926e-04
-4.1595582e-04
-6.1806285e-04
-7.6972193e-04
-8.6288114e-04
-8.9400912e-04
-8.6418969e-04
-7.7880457e-04
-6.4686597e-04
-4.8009523e-04
-2.9185809e-04
-9.6058338e-05
9.3924030e-05
2.6617176e-04
4.1097319e-04
5.2131268e-04
5.9308705e-04
6.2506632e-04
6.1864532e-04
5.7744378e-04
5.0681325e-04
4.1330683e-04
3.0415915e-04
1.8680787e-04
6.8469034e-05
-4.4234623e-05
-1.4559418e-04
-2.3108139e-04
-2.9755801e-04
-3.4342909e-04
-3.6874396e-04
-3.7525142e-04
-3.6629673e-04
-3.4636692e-04
-3.2035598e-04
-2.9281625e-04
-2.6734680e-04
-2.4617513e-04
-2.2996790e-04
-2.1788154e-04
-2.0783772e-04
-1.9697781e-04
-1.8222054e-04
-1.6083039e-04
-1.3090824e-04
-9.1733354e-05
-4.3908640e-05
1.0710402e-05
6.9285844e-05
1.2841115e-04
1.8458784e-04
2.3468011e-04
2.7627768e-04
3.0792269e-04
3.2918434e-04
3.4058962e-04
3.4343545e-04
3.3951823e-04
3.3082209e-04
3.1920720e-04
3.0613350e-04
2.9244764e-04
2.7825734e-04
2.6291501e-04
2.4512601e-04
2.2318088e-04
1.9528784e-04
1.5995495e-04
1.1635019e-04
6.4560846e-05
5.6902042e-06
-5.8243639e-05
-1.2453663e-04
-1.9000344e-04
-2.5114503e-04
-3.0437035e-04
-3.4629362e-04
-3.7407330e-04
-3.8574491e-04
-3.8049312e-04
-3.5881302e-04
-3.2252206e-04
-2.7460543e-04
-2.1890467e-04
-1.5968945e-04
-1.0117567e-04
-4.7061287e-05
-1.4448688e-07
3.7926835e-05
6.6742080e-05
8.7037193e-05
1.0043675e-04
1.0906910e-04
1.1511771e-04
1.2037800e-04
1.2588054e-04
1.3162942e-04
1.3649259e-04
1.3826728e-04
1.3392353e-04
1.2000770e-04
9.3168002e-05
5.0745772e-05
-8.6417687e-06
-8.4612583e-05
-1.7470671e-04
-2.7430772e-04
-3.7682111e-04
-4.7409684e-04
-5.5705796e-04
-6.1647705e-04
-6.4381115e-04
-6.3195563e-04
-5.7589222e-04
-4.7331352e-04
-3.2513078e-04
-1.3571197e-04
8.7187756e-05
3.3279415e-04
5.8794733e-04
8.3795168e-04
1.0675841e-03
1.2621915e-03
1.4087907e-03
1.4970641e-03
1.5201467e-03
1.4751190e-03
1.3631692e-03
1.1894270e-03
9.6249936e-04
6.9376077e-04
3.9646901e-04
8.4795349e-05
-2.2713697e-04
-5.2612628e-04
-8.0062263e-04
-1.0412789e-03
-1.2413002e-03
-1.3965800e-03
-1.5056257e-03
-1.5692998e-03
-1.5904147e-03
-1.5732242e-03
-1.5228541e-03
-1.4447174e-03
-1.3439684e-03
-1.2250522e-03
-1.0913931e-03
-9.4525269e-04
-7.8776956e-04
-6.1917578e-04
-4.3913648e-04
-2.4708232e-04
-4.2558695e-05
1.7423114e-04
4.0180945e-04
6.3699351e-04
8.7473270e-04
1.1082047e-03
1.3291350e-03
1.5282884e-03
1.6960766e-03
1.8232223e-03
1.9014231e-03
1.9239607e-03
1.8862110e-03
1.7860320e-03
1.6240208e-03
1.4036426e-03
1.1312280e-03
8.1582815e-04
4.6891193e-04
1.0389784e-04
-2.6447297e-04
-6.2089794e-04
-9.5036867e-04
-1.2390658e-03
-1.4752249e-03
-1.6498966e-03
-1.7575209e-03
-1.7962553e-03
-1.7680169e-03
-1.6782365e-03
-1.5353484e-03
-1.3500723e-03
-1.1345634e-03
-9.0151828e-04
-6.6331696e-04
-4.3126158e-04
-2.1495503e-04
-2.1848830e-05
1.4301795e-04
2.7717922e-04
3.8086116e-04
4.5685770e-04
5.1003245e-04
5.4655460e-04
5.7300052e-04
5.9543915e-04
6.1861824e-04
6.4534920e-04
6.7616112e-04
7.0926409e-04
7.4082729e-04
7.6553673e-04
7.7735892e-04
7.7040927e-04
7.3981272e-04
6.8244708e-04
5.9747375e-04
4.8658640e-04
3.5394549e-04
2.0581086e-04
4.9925910e-05
-1.0526442e-04
-2.5146625e-04
-3.8136118e-04
-4.8930754e-04
-5.7183440e-04
-6.2786785e-04
-6.5866392e-04
-6.6746111e-04
-6.5889617e-04
-6.3824606e-04
-6.1057620e-04
-5.7989936e-04
-5.4847276e-04
-5.1636309e-04
-4.8137978e-04
-4.3941781e-04
-3.8517533e-04
-3.1313229e-04
-2.1848965e-04
-9.7897024e-05
4.9838572e-05
2.2309623e-04
4.1709733e-04
6.2396454e-04
8.3316932e-04
1.0323145e-03
1.2081626e-03
1.3477922e-03
1.4397582e-03
1.4751375e-03
1.4483630e-03
1.3577659e-03
1.2057767e-03
9.9876724e-04
7.4655841e-04
4.6165622e-04
1.5829805e-04
-1.4860109e-04
-4.4451381e-04
-7.1629178e-04
-9.5300733e-04
-1.1465865e-03
-1.2921950e-03
-1.3883534e-03
-1.4367658e-03
-1.4418684e-03
-1.4101290e-03
-1.3491699e-03
-1.2668155e-03
-1.1701805e-03
-1.0649186e-03
-9.5472842e-04
-8.4118961e-04
-7.2394958e-04
-6.0123406e-04
-4.7059999e-04
-3.2980856e-04
-1.7766551e-04
-1.4537825e-05
1.5760395e-04
3.3534949e-04
5.1406553e-04
6.8825818e-04
8.5207673e-04
9.9987275e-04
1.1267190e-03
1.2288021e-03
1.3036297e-03
1.3500321e-03
1.3679727e-03
1.3582148e-03
1.3219039e-03
1.2601438e-03
1.1736493e-03
1.0625547e-03
9.2643990e-04
7.6460061e-04
5.7653744e-04
3.6259241e-04
1.2461976e-04
-1.3343923e-04
-4.0520715e-04
-6.8185376e-04
-9.5246725e-04
-1.2047975e-03
-1.4262833e-03
-1.6052227e-03
-1.7319195e-03
-1.7996318e-03
-1.8051759e-03
-1.7490902e-03
-1.6353486e-03
-1.4706984e-03
-1.2637638e-03
-1.0240793e-03
-7.6120076e-04
-4.8399564e-04
-2.0016347e-04
8.4119314e-05
3.6437258e-04
6.3745922e-04
9.0077780e-04
1.1514027e-03
1.3854031e-03
1.5974551e-03
1.7808018e-03
1.9275519e-03
2.0292503e-03
2.0776306e-03
2.0654677e-03
1.9874575e-03
1.8410523e-03
1.6271561e-03
1.3505837e-03
1.0201972e-03
6.4867664e-04
2.5191847e-04
-1.5191032e-04
-5.4360110e-04
-9.0432285e-04
-1.2171041e-03
-1.4682271e-03
-1.6483851e-03
-1.7534720e-03
-1.7849085e-03
-1.7494455e-03
-1.6584360e-03
-1.5266281e-03
-1.3705923e-03
-1.2069410e-03
-1.0505190e-03
-9.1276205e-04
-8.0042812e-04
-7.1489596e-04
-6.5216679e-04
-6.0360283e-04
-5.5731335e-04
-4.9996938e-04
-4.1866106e-04
-3.0260631e-04
-1.4481074e-04
5.6538937e-05
2.9734877e-04
5.6771166e-04
8.5279709e-04
1.1344015e-03
1.3929394e-03
1.6096013e-03
1.7683855e-03
1.8577461e-03
1.8716703e-03
1.8101039e-03
1.6787299e-03
1.4881746e-03
1.2527669e-03
9.8900899e-04
7.1394282e-04
4.4359340e-04
1.9164583e-04
-3.1532482e-05
-2.1946095e-04
-3.6969042e-04
-4.8355131e-04
-5.6556930e-04
-6.2263476e-04
-6.6302056e-04
-6.9534142e-04
-7.2754162e-04
-7.6598750e-04
-8.1473250e-04
-8.7501715e-04
-9.4506049e-04
-1.0201874e-03
-1.0933111e-03
-1.1557466e-03
-1.1982736e-03
-1.2123117e-03
-1.1910288e-03
-1.1301644e-03
-1.0285077e-03
-8.8814903e-04
-7.1445369e-04
-5.1562670e-04
-3.0189959e-04
-8.4469899e-05
1.2564445e-04
3.1867711e-04
4.8698099e-04
6.2560067e-04
7.3250339e-04
8.0846610e-04
8.5665433e-04
8.8195761e-04
8.9016739e-04
8.8709705e-04
8.7775091e-04
8.6564413e-04
8.5235597e-04
8.3736882e-04
8.1820965e-04
7.9087534e-04
7.5048874e-04
6.9210206e-04
6.1154208e-04
5.0618433e-04
3.7555440e-04
2.2168201e-04
4.9166788e-05
-1.3505185e-04
-3.2219468e-04
-5.0235278e-04
-6.6532213e-04
-8.0146871e-04
-9.0253868e-04
-9.6234206e-04
-9.7724579e-04
-9.4641581e-04
-8.7177886e-04
-7.5772533e-04
-6.1072708e-04
-4.3907043e-04
-2.5260558e-04
-6.2317209e-05
1.2031324e-04
2.8409821e-04
4.1900664e-04
5.1701051e-04
5.7283002e-04
5.8449466e-04
5.5364400e-04
4.8551071e-04
3.8856483e-04
2.7384195e-04
1.5401376e-04
4.2281348e-05
-4.8817363e-05
-1.0858331e-04
-1.2920391e-04
-1.0656436e-04
-4.0736554e-05
6.3904383e-05
1.9894746e-04
3.5257455e-04
5.1049704e-04
6.5712043e-04
7.7683890e-04
8.5535646e-04
8.8093280e-04
8.4545323e-04
7.4522754e-04
5.8144411e-04
3.6024621e-04
9.2442161e-05
-2.0711256e-04
-5.2041749e-04
-8.2746660e-04
-1.1075551e-03
-1.3406305e-03
-1.5086428e-03
-1.5970175e-03
-1.5961630e-03
-1.5025990e-03
-1.3194445e-03
-1.0562284e-03
-7.2807709e-04
-3.5440501e-04
4.2716505e-05
4.4032348e-04
8.1627435e-04
1.1507561e-03
1.4274544e-03
1.6343086e-03
1.7638320e-03
1.8130351e-03
1.7830339e-03
1.6784341e-03
1.5065848e-03
1.2767880e-03
9.9954490e-04
6.8590977e-04
3.4699966e-04
-6.3238026e-06
-3.6360844e-04
-7.1483651e-04
-1.0503789e-03
-1.3609531e-03
-1.6376553e-03
-1.8721109e-03
-2.0567470e-03
-2.1851610e-03
-2.2525383e-03
-2.2560626e-03
-2.1952407e-03
-2.0720619e-03
-1.8909275e-03
-1.6583323e-03
-1.3823241e-03
-1.0718014e-03
-7.3586583e-04
-3.8357476e-04
-2.4129135e-05
3.3281355e-04
6.7695822e-04
9.9743137e-04
1.2831243e-03
1.5233058e-03
1.7084366e-03
1.8310837e-03
1.8868109e-03
1.8749096e-03
1.7988359e-03
1.6662480e-03
1.4885916e-03
1.2802378e-03
1.0572451e-03
8.3586727e-04
6.3097511e-04
4.5458347e-04
3.1466845e-04
2.1442128e-04
1.5202512e-04
1.2097618e-04
1.1091051e-04
1.0884303e-04
1.0067771e-04
7.2817245e-05
1.3696657e-05
-8.4915133e-05
-2.2697079e-04
-4.1164685e-04
-6.3333616e-04
-8.8210865e-04
-1.1445488e-03
-1.4048296e-03
-1.6458746e-03
-1.8504914e-03
-2.0023995e-03
-2.0871416e-03
-2.0930313e-03
-2.0121840e-03
-1.8413408e-03
-1.5823198e-03
-1.2421617e-03
-8.3297698e-04
-3.7147407e-04
1.2183276e-04
6.2370541e-04
1.1095086e-03
1.5547280e-03
1.9366152e-03
2.2358643e-03
2.4381846e-03
2.5356023e-03
2.5273186e-03
2.4199714e-03
2.2271892e-03
1.9684011e-03
1.6669767e-03
1.3479021e-03
1.0353040e-03
7.5014699e-04
5.0837893e-04
3.1969404e-04
1.8699969e-04
1.0659355e-04
6.8991409e-05
6.0282901e-05
6.3843266e-05
6.2208361e-05
3.8929628e-05
-1.9747743e-05
-1.2351207e-04
-2.7701670e-04
-4.7937743e-04
-7.2415734e-04
-9.9982950e-04
-1.2906867e-03
-1.5781220e-03
-1.8422548e-03
-2.0638346e-03
-2.2260900e-03
-2.3162268e-03
-2.3264925e-03
-2.2547438e-03
-2.1044791e-03
-1.8843544e-03
-1.6072588e-03
-1.2890719e-03
-9.4724529e-04
-5.9935794e-04
-2.6178028e-04
5.1434845e-05
3.2934671e-04
5.6456121e-04
7.5330981e-04
8.9522050e-04
9.9285197e-04
1.0510668e-03
1.0763169e-03
1.0759106e-03
1.0573279e-03
1.0276342e-03
9.9302271e-04
9.5848924e-04
9.2763476e-04
9.0258866e-04
8.8404495e-04
8.7139728e-04
8.6294771e-04
8.5615577e-04
8.4789344e-04
8.3468115e-04
8.1290015e-04
7.7899739e-04
7.2971022e-04
6.6232790e-04
5.7498028e-04
4.6687686e-04
3.3831137e-04
1.9049095e-04
2.5529462e-05
-1.5338684e-04
-3.4188617e-04
-5.3443843e-04
-7.2453317e-04
-9.0498774e-04
-1.0683473e-03
-1.2073335e-03
-1.3153007e-03
-1.3866577e-03
-1.4172199e-03
-1.4044656e-03
-1.3476842e-03
-1.2480184e-03
-1.1084042e-03
-9.3341548e-04
-7.2901962e-04
-5.0225313e-04
-2.6083117e-04
-1.2713546e-05
2.3434213e-04
4.7319959e-04
6.9768835e-04
9.0283105e-04
1.0849273e-03
1.2414879e-03
1.3710306e-03
1.4727661e-03
1.5462164e-03
1.5908289e-03
1.6056560e-03
1.5891686e-03
1.5392523e-03
1.4534049e-03
1.3291253e-03
1.1644479e-03
9.5853494e-04
7.1221609e-04
4.2831681e-04
1.1184271e-04
-2.2974751e-04
-5.8633519e-04
-9.4530921e-04
-1.2921657e-03
-1.6114603e-03
-1.8879762e-03
-2.1079462e-03
-2.2601761e-03
-2.3369436e-03
-2.3345785e-03
-2.2536651e-03
-2.0988560e-03
-1.8783410e-03
-1.6030656e-03
-1.2858202e-03
-9.4031368e-04
-5.8032439e-04
-2.1899498e-04
1.3169142e-04
4.6125086e-04
7.6088497e-04
1.0235648e-03
1.2440602e-03
1.4189433e-03
1.5465746e-03
1.6270640e-03
1.6621936e-03
1.6552766e-03
1.6109283e-03
1.5347315e-03
1.4328105e-03
1.3113554e-03
1.1761545e-03
1.0321928e-03
8.8336315e-04
7.3232330e-04
5.8051388e-04
4.2831874e-04
2.7526342e-04
1.2031779e-04
-3.7457471e-05
-1.9807168e-04
-3.5994614e-04
-5.1961239e-04
-6.7181398e-04
-8.0998661e-04
-9.2702544e-04
-1.0162051e-03
-1.0721053e-03
-1.0914054e-03
-1.0734388e-03
-1.0204268e-03
-9.3736002e-04
-8.3153707e-04
-7.1182315e-04
-5.8772442e-04
-4.6839546e-04
-3.6169994e-04
-2.7343364e-04
-2.0679475e-04
-1.6214998e-04
-1.3710557e-04
-1.2686013e-04
-1.2479323e-04
-1.2322828e-04
-1.1429293e-04
-9.0789659e-05
-4.6987304e-05
2.0744454e-05
1.1351442e-04
2.2973664e-04
3.6521513e-04
5.1347293e-04
6.6628485e-04
8.1434973e-04
9.4802206e-04
1.0580153e-03
1.1359964e-03
1.1750146e-03
1.1698755e-03
1.1176069e-03
1.0178790e-03
8.7316708e-04
6.8860915e-04
4.7159092e-04
2.3112217e-04
-2.2901929e-05
-2.8044945e-04
-5.3201236e-04
-7.6910599e-04
-9.8456735e-04
-1.1726450e-03
-1.3289064e-03
-1.4500209e-03
-1.5335009e-03
-1.5774848e-03
-1.5806202e-03
-1.5420700e-03
-1.4616235e-03
-1.3398700e-03
-1.1783840e-03
-9.7987676e-04
-7.4828110e-04
-4.8875097e-04
-2.0757010e-04
8.8021146e-05
3.9006162e-04
6.9014386e-04
9.7970064e-04
1.2502784e-03
1.4937800e-03
1.7026740e-03
1.8701820e-03
1.9904611e-03
2.0587896e-03
2.0717511e-03
2.0274008e-03
1.9253977e-03
1.7670754e-03
1.5555013e-03
1.2956195e-03
9.9437531e-04
6.6067687e-04
3.0516317e-04
-6.0210836e-05
-4.2274678e-04
-7.6968745e-04
-1.0889475e-03
-1.3698142e-03
-1.6035500e-03
-1.7838454e-03
-1.9070909e-03
-1.9724482e-03
-1.9817179e-03
-1.9390229e-03
-1.8503518e-03
-1.7230120e-03
-1.5650415e-03
-1.3846172e-03
-1.1895027e-03
-9.8658291e-04
-7.8153100e-04
-5.7863125e-04
-3.8076211e-04
-1.8952942e-04
-5.5352048e-06
1.7124730e-04
3.4104782e-04
5.0390002e-04
6.5934244e-04
8.0626304e-04
9.4289374e-04
1.0669355e-03
1.1757799e-03
1.2667863e-03
1.3375668e-03
1.3862402e-03
1.4116360e-03
1.4134933e-03
1.3926149e-03
1.3508324e-03
1.2907789e-03
1.2155648e-03
1.1284115e-03
1.0322867e-03
9.2958872e-04
8.2191502e-04
7.0993997e-04
5.9341767e-04
4.7131547e-04
3.4206693e-04
2.0391702e-04
5.5323353e-05
-1.0462445e-04
-2.7580637e-04
-4.5674130e-04
-6.4437931e-04
-8.3406597e-04
-1.0197006e-03
-1.1940727e-03
-1.3493339e-03
-1.4775586e-03
-1.5713457e-03
-1.6244137e-03
-1.6321367e-03
-1.5919647e-03
-1.5036838e-03
-1.3694893e-03
-1.1938634e-03
-9.8326959e-04
-7.4569913e-04
-4.9012998e-04
-2.2597101e-04
3.7436814e-05
2.9121094e-04
5.2718634e-04
7.3804688e-04
9.1736263e-04
1.0597557e-03
1.1613706e-03
1.2203783e-03
1.2372272e-03
1.2146250e-03
1.1572856e-03
1.0714761e-03
9.6442380e-04
8.4365263e-04
7.1632257e-04
5.8863948e-04
4.6539397e-04
3.4967348e-04
2.4277504e-04
1.4432602e-04
5.2597365e-05
-3.5031154e-05
-1.2151670e-04
-2.0958514e-04
-3.0122190e-04
-3.9728218e-04
-4.9726263e-04
-5.9925629e-04
-7.0009029e-04
-7.9562342e-04
-8.8115828e-04
-9.5190835e-04
-1.0034553e-03
-1.0321389e-03
-1.0353351e-03
-1.0115940e-03
-9.6062710e-04
-8.8316063e-04
-7.8069795e-04
-6.5525753e-04
-5.0915872e-04
-3.4491459e-04
-1.6526184e-04
2.6682497e-05
2.2719460e-04
4.3185970e-04
6.3569507e-04
8.3319375e-04
1.0182570e-03
1.1842424e-03
1.3242037e-03
1.4313007e-03
1.4993248e-03
1.5232626e-03
1.4998066e-03
1.4277335e-03
1.3081005e-03
1.1442554e-03
9.4167900e-04
7.0769710e-04
4.5109828e-04
1.8169253e-04
-9.0162139e-05
-3.5404649e-04
-5.9997116e-04
-8.1886232e-04
-1.0030214e-03
-1.1465259e-03
-1.2455367e-03
-1.2984821e-03
-1.3061005e-03
-1.2713232e-03
-1.1989886e-03
-1.0953917e-03
-9.6770216e-04
-8.2330966e-04
-6.6917147e-04
-5.1124662e-04
-3.5409816e-04
-2.0073314e-04
-5.2717948e-05
8.9442697e-05
2.2573078e-04
3.5595552e-04
4.7915817e-04
5.9330398e-04
6.9527371e-04
7.8089408e-04
8.4501834e-04
8.8185766e-04
8.8559190e-04
8.5118115e-04
7.7526131e-04
6.5698457e-04
4.9865898e-04
3.0605706e-04
8.8307891e-05
-1.4264631e-04
-3.7297494e-04
-5.8814930e-04
-7.7424407e-04
-9.1918381e-04
-1.0137826e-03
-1.0524614e-03
-1.0335788e-03
-9.5936909e-04
-8.3553289e-04
-6.7056391e-04
-4.7491472e-04
-2.6010980e-04
-3.7904818e-05
1.8043412e-04
3.8469357e-04
5.6611486e-04
7.1765282e-04
8.3411742e-04
9.1222571e-04
9.5058868e-04
9.4965120e-04
9.1159146e-04
8.4017145e-04
7.4052002e-04
6.1883509e-04
4.8201047e-04
3.3721729e-04
1.9154146e-04
5.1684313e-05
-7.6430000e-05
-1.8811204e-04
-2.8024521e-04
-3.5141326e-04
-4.0180020e-04
-4.3288801e-04
-4.4701306e-04
-4.4686571e-04
-4.3502423e-04
-4.1360151e-04
-3.8405229e-04
-3.4714666e-04
-3.0307997e-04
-2.5167423e-04
-1.9262860e-04
-1.2578374e-04
-5.1367049e-05
2.9813066e-05
1.1624737e-04
2.0568764e-04
2.9518370e-04
3.8118476e-04
4.5969689e-04
5.2648945e-04
5.7733952e-04
6.0830073e-04
6.1598305e-04
5.9782892e-04
5.5236431e-04
4.7939405e-04
3.8011234e-04
2.5711322e-04
1.1430444e-04
-4.3261680e-05
-2.0962483e-04
-3.7820496e-04
-5.4212159e-04
-6.9451570e-04
-8.2884042e-04
-9.3916738e-04
-1.0205884e-03
-1.0696332e-03
-1.0845518e-03
-1.0653918e-03
-1.0138655e-03
-9.3304322e-04
-8.2693303e-04
-7.0002013e-04
-5.5684338e-04
-4.0167923e-04
-2.3837902e-04
-7.0365351e-05
9.9243132e-05
2.6742799e-04
4.3103788e-04
5.8657279e-04
7.3003319e-04
8.5687933e-04
9.6213092e-04
1.0406133e-03
1.0873319e-03
1.0979431e-03
1.0692760e-03
9.9985034e-04
8.9031787e-04
7.4375185e-04
5.6571762e-04
3.6408476e-04
1.4857430e-04
-6.9928484e-05
-2.8022734e-04
-4.7173138e-04
-6.3531273e-04
-7.6399167e-04
-8.5336644e-04
-9.0174543e-04
-9.0997437e-04
-8.8099617e-04
-8.1928024e-04
-7.3030253e-04
-6.2010819e-04
-4.9487160e-04
-3.6044293e-04
-2.2193725e-04
-8.3422873e-05
5.2241853e-05
1.8339787e-04
3.0940904e-04
4.3035629e-04
5.4665192e-04
6.5862631e-04
7.6613912e-04
8.6826643e-04
9.6310802e-04
1.0477379e-03
1.1182910e-03
1.1701566e-03
1.1982451e-03
1.1973081e-03
1.1622985e-03
1.0887591e-03
9.7322740e-04
8.1365073e-04
6.0980647e-04
3.6371201e-04
7.9980136e-05
-2.3394725e-04
-5.6775450e-04
-9.0844459e-04
-1.2407956e-03
-1.5480952e-03
-1.8131480e-03
-2.0195086e-03
-2.1528318e-03
-2.2021846e-03
-2.1611527e-03
-2.0286006e-03
-1.8089917e-03
-1.5122891e-03
-1.1535499e-03
-7.5218884e-04
-3.3077312e-04
8.6618859e-05
4.7629746e-04
8.1691553e-04
1.0912650e-03
1.2877084e-03
1.4010674e-03
1.4328550e-03
1.3908261e-03
1.2879036e-03
1.1406059e-03
9.6715733e-04
7.8550375e-04
6.1146459e-04
4.5722355e-04
3.3030622e-04
2.3313006e-04
1.6315402e-04
1.1359703e-04
7.4636187e-05
3.4939534e-05
-1.6649650e-05
-8.9471342e-05
-1.8963292e-04
-3.1898055e-04
-4.7459074e-04
-6.4886810e-04
-8.3026251e-04
-1.0045282e-03
-1.1563616e-03
-1.2711963e-03
-1.3369072e-03
-1.3451883e-03
-1.2924153e-03
-1.1798820e-03
-1.0133971e-03
-8.0233616e-04
-5.5849738e-04
-2.9510179e-04
-2.5840486e-05
2.3614872e-04
4.7923445e-04
6.9403936e-04
8.7391521e-04
1.0151180e-03
1.1166907e-03
1.1800927e-03
1.2086379e-03
1.2068250e-03
1.1796480e-03
1.1319748e-03
1.0680655e-03
9.9127684e-04
9.0396920e-04
8.0759758e-04
7.0294427e-04
5.9043720e-04
4.7050278e-04
3.4391356e-04
2.1209756e-04
7.7374330e-05
-5.6919268e-05
-1.8644513e-04
-3.0603906e-04
-4.1004739e-04
-4.9281360e-04
-5.4928327e-04
-5.7566466e-04
-5.7005192e-04
-5.3290534e-04
-4.6729911e-04
-3.7888277e-04
-2.7554320e-04
-1.6679026e-04
-6.2926121e-05
2.5905054e-05
9.0661954e-05
1.2417007e-04
1.2165805e-04
8.1216134e-05
4.1637265e-06
-1.0483979e-04
-2.3801045e-04
-3.8497012e-04
-5.3354475e-04
-6.7075480e-04
-7.8390362e-04
-8.6165757e-04
-8.9500910e-04
-8.7802375e-04
-8.0829983e-04
-6.8711205e-04
-5.1925345e-04
-3.1262096e-04
-7.7604225e-05
1.7365683e-04
4.2807991e-04
6.7245704e-04
8.9424045e-04
1.0822731e-03
1.2274431e-03
1.3232334e-03
1.3661292e-03
1.3558414e-03
1.2953145e-03
1.1904949e-03
1.0498482e-03
8.8363155e-04
7.0296249e-04
5.1876858e-04
3.4073183e-04
1.7635142e-04
3.0236987e-05
-9.6275824e-05
-2.0512698e-04
-3.0114165e-04
-3.9131507e-04
-4.8393697e-04
-5.8751706e-04
-7.0934099e-04
-8.5393396e-04
-1.0218847e-03
-1.2092401e-03
-1.4075400e-03
-1.6044691e-03
-1.7850125e-03
-1.9329492e-03
-2.0324904e-03
-2.0698784e-03
-2.0347747e-03
-1.9213036e-03
-1.7286601e-03
-1.4612523e-03
-1.1283946e-03
-7.4360535e-04
-3.2358374e-04
1.1303469e-04
5.4702609e-04
9.5990259e-04
1.3350994e-03
1.6589376e-03
1.9213049e-03
2.1160229e-03
2.2408938e-03
2.2974473e-03
2.2904318e-03
2.2271093e-03
2.1164196e-03
1.9680877e-03
1.7917550e-03
1.5962257e-03
1.3889009e-03
1.1754479e-03
9.5971214e-04
7.4385426e-04
5.2866751e-04
3.1398751e-04
9.8985546e-05
-1.1760096e-04
-3.3691690e-04
-5.5917937e-04
-7.8299999e-04
-1.0050246e-03
-1.2199297e-03
-1.4207504e-03
-1.5994657e-03
-1.7477390e-03
-1.8577048e-03
-1.9227014e-03
-1.9378699e-03
-1.9005714e-03
-1.8106052e-03
-1.6702347e-03
-1.4840509e-03
-1.2587087e-03
-1.0025699e-03
-7.2527947e-04
-4.3729642e-04
-1.4938368e-04
1.2794244e-04
3.8500212e-04
6.1355529e-04
8.0735878e-04
9.6259635e-04
1.0781047e-03
1.1553462e-03
1.1981137e-03
1.2119859e-03
1.2035896e-03
1.1797563e-03
1.1466917e-03
1.1092696e-03
1.0705422e-03
1.0315122e-03
9.9116927e-04
9.4675854e-04
8.9421786e-04
8.2870891e-04
7.4530816e-04
6.3995313e-04
5.1041155e-04
3.5695919e-04
1.8264820e-04
-6.8484598e-06
-2.0376997e-04
-3.9908219e-04
-5.8344885e-04
-7.4822728e-04
-8.8636351e-04
-9.9307538e-04
-1.0662357e-03
-1.1064075e-03
-1.1165380e-03
-1.1013759e-03
-1.0667107e-03
-1.0185473e-03
-9.6232857e-04
-9.0230182e-04
-8.4110390e-04
-7.7959929e-04
-7.1696398e-04
-6.5097385e-04
-5.7844348e-04
-4.9576424e-04
-3.9949263e-04
-2.8693218e-04
-1.5664370e-04
-8.8238811e-06
1.5448862e-04
3.2939798e-04
5.1032703e-04
6.9036788e-04
8.6177155e-04
1.0165196e-03
1.1469081e-03
1.2460763e-03
1.3084281e-03
1.3299331e-03
1.3084065e-03
1.2438672e-03
1.1388209e-03
9.9827127e-04
8.2941671e-04
6.4106452e-04
4.4283375e-04
2.4425415e-04
5.3897971e-05
-1.2131610e-04
-2.7654311e-04
-4.0911202e-04
-5.1832162e-04
-6.0499100e-04
-6.7085180e-04
-7.1788863e-04
-7.4774128e-04
-7.6127155e-04
-7.5836589e-04
-7.3800114e-04
-6.9855387e-04
-6.3829542e-04
-5.5598789e-04
-4.5148302e-04
-3.2622394e-04
-1.8356152e-04
-2.8820727e-05
1.3091560e-04
2.8730248e-04
4.3146632e-04
5.5489339e-04
6.5035183e-04
7.1270381e-04
7.3946984e-04
7.3104391e-04
6.9051172e-04
6.2308314e-04
5.3520881e-04
4.3351773e-04
3.2386018e-04
2.1079398e-04
9.7572484e-05
-1.3563480e-05
-1.2096389e-04
-2.2312873e-04
-3.1834445e-04
-4.0447053e-04
-4.7891116e-04
-5.3876533e-04
-5.8111471e-04
-6.0338917e-04
-6.0374503e-04
-5.8139483e-04
-5.3683515e-04
-4.7193286e-04
-3.8985170e-04
-2.9482789e-04
-1.9182752e-04
-8.6134174e-05
1.7077596e-05
1.1312521e-04
1.9810865e-04
2.6908191e-04
3.2410834e-04
3.6222709e-04
3.8336505e-04
3.8822203e-04
3.7814686e-04
3.5501461e-04
3.2110822e-04
2.7899912e-04
2.3141514e-04
1.8108710e-04
1.3057509e-04
8.2086146e-05
3.7300406e-05
-2.7786229e-06
-3.7935804e-05
-6.8803235e-05
-9.6826247e-05
-1.2407022e-04
-1.5287136e-04
-1.8543029e-04
-2.2343586e-04
-2.6776222e-04
-3.1826615e-04
-3.7369752e-04
-4.3172602e-04
-4.8907737e-04
-5.4176475e-04
-5.8539646e-04
-6.1553888e-04
-6.2810759e-04
-6.1975011e-04
-5.8817806e-04
-5.3241281e-04
-4.5292430e-04
-3.5165819e-04
-2.3195293e-04
-9.8350941e-05
4.3685626e-05
1.8813288e-04
3.2880537e-04
4.5976539e-04
5.7571053e-04
6.7230961e-04
7.4645571e-04
7.9640760e-04
8.2180256e-04
8.2354202e-04
8.0357030e-04
7.6457972e-04
7.0968411e-04
6.4210661e-04
5.6492428e-04
4.8089571e-04
3.9237238e-04
3.0127058e-04
2.0907081e-04
1.1687565e-04
2.5622554e-05
-6.3582790e-05
-1.4919016e-04
-2.2910570e-04
-3.0078942e-04
-3.6151849e-04
-4.0875470e-04
-4.4054006e-04
-4.5584435e-04
-4.5480059e-04
-4.3878495e-04
-4.1032498e-04
-3.7284800e-04
-3.3030604e-04
-2.8672944e-04
-2.4576988e-04
-2.1029494e-04
-1.8209105e-04
-1.6171614e-04
-1.4852158e-04
-1.4083715e-04
-1.3629174e-04
-1.3222517e-04
-1.2613407e-04
-1.1608567e-04
-1.0103472e-04
-8.0990421e-05
-5.7002604e-05
-3.0961981e-05
-5.2396039e-06
1.7778029e-05
3.6174642e-05
4.8915648e-05
5.6101324e-05
5.9007083e-05
5.9893923e-05
6.1609789e-05
6.7037563e-05
7.8483246e-05
9.7186761e-05
1.2310670e-04
1.5492023e-04
1.9014654e-04
2.2539235e-04
2.5670468e-04
2.7999144e-04
2.9146888e-04
2.8809504e-04
2.6795037e-04
2.3052819e-04
1.7689993e-04
1.0972508e-04
3.3090736e-05
-4.7809737e-05
-1.2712192e-04
-1.9884290e-04
-2.5734066e-04
-2.9782814e-04
-3.1675174e-04
-3.1206595e-04
-2.8337926e-04
-2.3197211e-04
-1.6070106e-04
-7.3807861e-05
2.3352559e-05
1.2465629e-04
2.2361595e-04
3.1382833e-04
3.8943764e-04
4.4558463e-04
4.7880787e-04
4.8735552e-04
4.7135923e-04
4.3282730e-04
3.7543770e-04
3.0414474e-04
2.2464324e-04
1.4275194e-04
6.3793136e-05
-7.8883005e-06
-6.9193812e-05
-1.1843948e-04
-1.5544724e-04
-1.8146728e-04
-1.9891251e-04
-2.1094277e-04
-2.2095884e-04
-2.3208428e-04
-2.4671794e-04
-2.6622522e-04
-2.9080826e-04
-3.1956540e-04
-3.5072237e-04
-3.8199164e-04
-4.1099011e-04
-4.3562949e-04
-4.5439952e-04
-4.6649205e-04
-4.7175406e-04
-4.7049602e-04
-4.6321252e-04
-4.5029070e-04
-4.3178416e-04
-4.0731226e-04
-3.7610868e-04
-3.3720343e-04
-2.8969204e-04
-2.3303323e-04
-1.6731686e-04
-9.3451764e-05
-1.3234097e-05
7.0725739e-05
1.5521405e-04
2.3673206e-04
3.1187318e-04
3.7770689e-04
4.3212121e-04
4.7408328e-04
5.0379110e-04
5.2276056e-04
5.3380439e-04
5.4070729e-04
5.4762446e-04
5.5841930e-04
5.7606689e-04
6.0218825e-04
6.3676189e-04
6.7803498e-04
7.2263101e-04
7.6583055e-04
8.0198890e-04
8.2504677e-04
8.2908399e-04
8.0886544e-04
7.6033439e-04
6.8102007e-04
5.7033431e-04
4.2973419e-04
2.6272663e-04
7.4697340e-05
-1.2743574e-04
-3.3571791e-04
-5.4175184e-04
-7.3732599e-04
-9.1500838e-04
-1.0686402e-03
-1.1936741e-03
-1.2873228e-03
-1.3485114e-03
-1.3776525e-03
-1.3762823e-03
-1.3466081e-03
-1.2910341e-03
-1.2117499e-03
-1.1104716e-03
-9.8841092e-04
-8.4650827e-04
-6.8591038e-04
-5.0861212e-04
-3.1794436e-04
-1.1856253e-04
8.3924571e-05
2.8339443e-04
4.7365735e-04
6.4889121e-04
8.0401443e-04
9.3495178e-04
1.0387615e-03
1.1136139e-03
1.1586442e-03
1.1737313e-03
1.1592719e-03
1.1160097e-03
1.0449603e-03
9.4744879e-04
8.2526405e-04
6.8090787e-04
5.1788863e-04
3.4097431e-04
1.5630703e-04
-2.8700840e-05
-2.0572698e-04
-3.6614442e-04
-5.0181446e-04
-6.0596746e-04
-6.7403890e-04
-7.0431689e-04
-6.9827644e-04
-6.6052080e-04
-5.9830618e-04
-5.2068599e-04
-4.3736970e-04
-3.5744803e-04
-2.8817629e-04
-2.3401486e-04
-1.9609093e-04
-1.7217630e-04
-1.5718979e-04
-1.4414066e-04
-1.2520894e-04
-9.2739367e-05
-4.0292641e-05
3.6295089e-05
1.3814067e-04
2.6297564e-04
4.0525977e-04
5.5670313e-04
7.0710617e-04
8.4539618e-04
9.6072560e-04
1.0435053e-03
1.0862697e-03
1.0843040e-03
1.0359902e-03
9.4285794e-04
8.0934886e-04
6.4233282e-04
4.5043682e-04
2.4326279e-04
3.0572434e-05
-1.7848565e-04
-3.7603809e-04
-5.5597922e-04
-7.1425290e-04
-8.4890606e-04
-9.5992172e-04
-1.0488599e-03
-1.1183518e-03
-1.1715062e-03
-1.2112929e-03
-1.2399711e-03
-1.2586191e-03
-1.2668163e-03
-1.2625176e-03
-1.2421540e-03
-1.2009700e-03
-1.1335757e-03
-1.0346505e-03
-8.9968334e-04
-7.2553277e-04
-5.1084729e-04
-2.5667197e-04
3.2878621e-05
3.5027822e-04
6.8472908e-04
1.0227783e-03
1.3493301e-03
1.6489150e-03
1.9070363e-03
2.1114139e-03
2.2529710e-03
2.3264632e-03
2.3306972e-03
2.2683362e-03
2.1453305e-03
1.9700610e-03
1.7523190e-03
1.5022611e-03
1.2294606e-03
9.4214550e-04
6.4667698e-04
3.4730266e-04
4.6200257e-05
-2.5618546e-04
-5.6053382e-04
-8.6781829e-04
-1.1783360e-03
-1.4907065e-03
-1.8009755e-03
-2.1019810e-03
-2.3831340e-03
-2.6307218e-03
-2.8287680e-03
-2.9603832e-03
-3.0094661e-03
-2.9625482e-03
-2.8105524e-03
-2.5502293e-03
-2.1850827e-03
-1.7255365e-03
-1.1882875e-03
-5.9517379e-04
2.8216454e-05
6.5418259e-04
1.2546929e-03
1.8031533e-03
2.2760187e-03
2.6541277e-03
2.9236704e-03
3.0767261e-03
3.1113540e-03
3.0312709e-03
2.8451877e-03
2.5658967e-03
2.2091935e-03
1.7927202e-03
1.3348263e-03
8.5354995e-04
3.6580955e-04
-1.1314844e-04
-5.7004485e-04
-9.9364467e-04
-1.3746762e-03
-1.7056667e-03
-1.9807690e-03
-2.1956436e-03
-2.3474261e-03
-2.4347699e-03
-2.4579170e-03
-2.4187337e-03
-2.3206634e-03
-2.1685754e-03
-1.9685187e-03
-1.7274039e-03
-1.4526491e-03
-1.1518271e-03
-8.3234707e-04
-5.0118858e-04
-1.6467509e-04
1.7175188e-04
5.0357105e-04
8.2675249e-04
1.1370833e-03
1.4296663e-03
1.6987523e-03
1.9379127e-03
2.1404867e-03
2.3001840e-03
2.4117121e-03
2.4713084e-03
2.4770920e-03
2.4291960e-03
2.3296907e-03
2.1823365e-03
1.9922280e-03
1.7653879e-03
1.5083660e-03
1.2278855e-03
9.3056048e-04
6.2268903e-04
3.1011515e-04
-1.8504894e-06
-3.0845457e-04
-6.0546855e-04
-8.8909809e-04
-1.1558404e-03
-1.4023057e-03
-1.6250307e-03
-1.8203171e-03
-1.9841297e-03
-2.1120863e-03
-2.1995601e-03
-2.2419087e-03
-2.2348284e-03
-2.1748189e-03
-2.0597155e-03
-1.8892267e-03
-1.6653909e-03
-1.3928818e-03
-1.0790097e-03
-7.3341506e-04
-3.6772707e-04
4.7823743e-06
3.6973593e-04
7.1241027e-04
1.0186434e-03
1.2757891e-03
1.4736139e-03
1.6050371e-03
1.6666290e-03
1.6588037e-03
1.5856872e-03
1.4546849e-03
1.2758094e-03
1.0608443e-03
8.2242493e-04
5.7311690e-04
3.2457864e-04
8.6889713e-05
-1.3189707e-04
-3.2595430e-04
-4.9163943e-04
-6.2725477e-04
-7.3267236e-04
-8.0890423e-04
-8.5770039e-04
-8.8123565e-04
-8.8190606e-04
-8.6221309e-04
-8.2469056e-04
-7.7183448e-04
-7.0601566e-04
-6.2937419e-04
-5.4370873e-04
-4.5038622e-04
-3.5030586e-04
-2.4394341e-04
-1.3147554e-04
-1.2964770e-05
1.1142835e-04
2.4119238e-04
3.7512696e-04
5.1100417e-04
6.4538589e-04
7.7368140e-04
8.9045719e-04
9.8995647e-04
1.0667437e-03
1.1163652e-03
1.1359050e-03
1.1243241e-03
1.0825063e-03
1.0130055e-03
9.1955854e-04
8.0647676e-04
6.7803766e-04
5.3798665e-04
3.8923289e-04
2.3379040e-04
7.2967398e-05
-9.2247130e-05
-2.6069597e-04
-4.3058067e-04
-5.9910904e-04
-7.6233964e-04
-9.1525685e-04
-1.0520635e-03
-1.1666369e-03
-1.2530707e-03
-1.3062244e-03
-1.3222139e-03
-1.2987935e-03
-1.2355925e-03
-1.1341796e-03
-9.9794938e-04
-8.3184191e-04
-6.4192552e-04
-4.3488199e-04
-2.1742568e-04
4.2492156e-06
2.2472155e-04
4.3914958e-04
6.4287339e-04
8.3108813e-04
9.9869391e-04
1.1403579e-03
1.2507744e-03
1.3250699e-03
1.3592779e-03
1.3507974e-03
1.2987595e-03
1.2042457e-03
1.0703311e-03
9.0195458e-04
7.0563514e-04
4.8906235e-04
2.6059581e-04
2.8722453e-05
-1.9846727e-04
-4.1372096e-04
-6.1093359e-04
-7.8529630e-04
-9.3328145e-04
-1.0524903e-03
-1.1414200e-03
-1.1992240e-03
-1.2255371e-03
-1.2204024e-03
-1.1843039e-03
-1.1182772e-03
-1.0240578e-03
-9.0422095e-04
-7.6226111e-04
-6.0257013e-04
-4.3029012e-04
-2.5104940e-04
-7.0613129e-05
1.0551052e-04
2.7247495e-04
4.2642271e-04
5.6451676e-04
6.8458750e-04
7.8464302e-04
8.6251657e-04
9.1575585e-04
9.4176605e-04
9.3816125e-04
9.0324294e-04
8.3650967e-04
7.3909999e-04
6.1408038e-04
4.6651348e-04
3.0328062e-04
1.3267519e-04
-3.6181953e-05
-1.9403639e-04
-3.3222968e-04
-4.4338963e-04
-5.2200816e-04
-5.6484388e-04
-5.7110921e-04
-5.4242979e-04
-4.8258945e-04
-3.9709300e-04
-2.9259974e-04
-1.7630116e-04
-5.5328499e-05
6.3733623e-05
1.7518080e-04
2.7435825e-04
3.5768281e-04
4.2255384e-04
4.6720478e-04
4.9055555e-04
4.9212222e-04
4.7202168e-04
4.3108253e-04
3.7104858e-04
2.9484356e-04
2.0673005e-04
1.1204154e-04
1.6443804e-05
-7.4924135e-05
-1.5812295e-04
-2.3078270e-04
-2.9213615e-04
-3.4274865e-04
-3.8403234e-04
-4.1766135e-04
-4.4500791e-04
-4.6670515e-04
-4.8241437e-04
-4.9083500e-04
-4.8994851e-04
-4.7744486e-04
-4.5124980e-04
-4.1005815e-04
-3.5377853e-04
-2.8380853e-04
-2.0308505e-04
-1.1589000e-04
-2.7431535e-05
5.6742282e-05
1.3141139e-04
1.9233138e-04
2.3676032e-04
2.6378303e-04
2.7438238e-04
2.7124454e-04
2.5832300e-04
2.4022056e-04
2.2147725e-04
2.0587401e-04
1.9586973e-04
1.9227525e-04
1.9423089e-04
1.9950450e-04
2.0507673e-04
2.0794256e-04
2.0588085e-04
1.9778170e-04
1.8345549e-04
1.6324122e-04
1.3765753e-04
1.0716745e-04
7.2078986e-05
3.2576382e-05
-1.1144947e-05
-5.8683005e-05
-1.0922787e-04
-1.6141039e-04
-2.1324407e-04
-2.6217828e-04
-3.0525417e-04
-3.3933777e-04
-3.6140128e-04
-3.6882540e-04
-3.5969486e-04
-3.3305354e-04
-2.8908187e-04
-2.2916490e-04
-1.5583525e-04
-7.2593637e-05
1.6374985e-05
1.0655771e-04
1.9349627e-04
2.7313979e-04
3.4211562e-04
3.9788586e-04
4.3878267e-04
4.6393651e-04
4.7312497e-04
4.6658256e-04
4.4482313e-04
4.0852882e-04
3.5854249e-04
2.9597022e-04
2.2236923e-04
1.3997876e-04
5.1844860e-05
-3.8373524e-05
-1.2688200e-04
-2.1027722e-04
-2.8597257e-04
-3.5244819e-04
-4.0927379e-04
-4.5690283e-04
-4.9628903e-04
-5.2841016e-04
-5.5379322e-04
-5.7212695e-04
-5.8203142e-04
-5.8103072e-04
-5.6574300e-04
-5.3226727e-04
-4.7671737e-04
-3.9583736e-04
-2.8762681e-04
-1.5190379e-04
9.2658511e-06
1.9134160e-04
3.8733983e-04
5.8815355e-04
7.8315007e-04
9.6099210e-04
1.1105886e-03
1.2220567e-03
1.2875702e-03
1.3019926e-03
1.2632283e-03
1.1722746e-03
1.0329996e-03
8.5170294e-04
6.3653956e-04
3.9689121e-04
1.4276668e-04
-1.1570805e-04
-3.6867305e-04
-6.0677487e-04
-8.2138124e-04
-1.0049785e-03
-1.1517087e-03
-1.2578096e-03
-1.3218263e-03
-1.3445707e-03
-1.3288338e-03
-1.2788870e-03
-1.1998455e-03
-1.0969845e-03
-9.7511464e-04
-8.3811408e-04
-6.8869432e-04
-5.2844336e-04
-3.5813830e-04
-1.7827004e-04
1.0316325e-05
2.0578010e-04
4.0475888e-04
6.0205974e-04
7.9064142e-04
9.6192080e-04
1.1063902e-03
1.2144852e-03
1.2776034e-03
1.2891451e-03
1.2454343e-03
1.1463810e-03
9.9577234e-04
8.0113105e-04
5.7313645e-04
3.2467296e-04
6.9621971e-05
-1.7844345e-04
-4.0747869e-04
-6.0792487e-04
-7.7326447e-04
-9.0010281e-04
-9.8777717e-04
-1.0375759e-03
-1.0518756e-03
-1.0336023e-03
-9.8601973e-04
-9.1257883e-04
-8.1673623e-04
-7.0177333e-04
-5.7064649e-04
-4.2589230e-04
-2.6960847e-04
-1.0352310e-04
7.0850748e-05
2.5199273e-04
4.3810945e-04
6.2685141e-04
8.1504646e-04
9.9849756e-04
1.1719009e-03
1.3289303e-03
1.4625060e-03
1.5652305e-03
1.6299470e-03
1.6503605e-03
1.6216504e-03
1.5410077e-03
1.4080388e-03
1.2249965e-03
9.9682087e-04
7.3098105e-04
4.3711811e-04
1.2650332e-04
-1.8865166e-04
-4.9597048e-04
-7.8369952e-04
-1.0414361e-03
-1.2607376e-03
-1.4355633e-03
-1.5625180e-03
-1.6408866e-03
-1.6724844e-03
-1.6613835e-03
-1.6136079e-03
-1.5367133e-03
-1.4390771e-03
-1.3289951e-03
-1.2138355e-03
-1.0993828e-03
-9.8942612e-04
-8.8560401e-04
-7.8748307e-04
-6.9283184e-04
-5.9804356e-04
-4.9866038e-04
-3.8995320e-04
-2.6751631e-04
-1.2784243e-04
3.1150470e-05
2.0966843e-04
4.0569642e-04
6.1479235e-04
8.3005629e-04
1.0423125e-03
1.2405376e-03
1.4125518e-03
1.5459607e-03
1.6292881e-03
1.6531970e-03
1.6116619e-03
1.5029434e-03
1.3302238e-03
1.1017864e-03
8.3066747e-04
5.3377103e-04
2.3050868e-04
-5.8907087e-05
-3.1533779e-04
-5.2254943e-04
-6.6877661e-04
-7.4782369e-04
-7.5956595e-04
-7.0981140e-04
-6.0972097e-04
-4.7492939e-04
-3.2415010e-04
-1.7724472e-04
-5.3093906e-05
3.2413332e-05
6.8036656e-05
4.8312223e-05
-2.5957150e-05
-1.4788468e-04
-3.0531072e-04
-4.8212123e-04
-6.5989953e-04
-8.1972239e-04
-9.4392965e-04
-1.0177278e-03
-1.0305172e-03
-9.7685846e-04
-8.5701656e-04
-6.7704388e-04
-4.4838266e-04
-1.8699280e-04
8.7954759e-05
3.5573284e-04
5.9592594e-04
7.9033984e-04
9.2476867e-04
9.9044319e-04
9.8500323e-04
9.1286683e-04
7.8491559e-04
6.1748282e-04
4.3071087e-04
2.4642383e-04
8.5733729e-05
-3.3345298e-05
-9.7973639e-05
-1.0197213e-04
-4.6515173e-05
6.0043542e-05
2.0308457e-04
3.6328689e-04
5.1890081e-04
6.4845844e-04
7.3339026e-04
7.6015354e-04
7.2162837e-04
6.1766480e-04
4.5479039e-04
2.4518647e-04
5.1095093e-06
-2.4701770e-04
-4.9259305e-04
-7.1465579e-04
-8.9934572e-04
-1.0368792e-03
-1.1219926e-03
-1.1538657e-03
-1.1355956e-03
-1.0733460e-03
-9.7532028e-04
-8.5070010e-04
-7.0865718e-04
-5.5751582e-04
-4.0412542e-04
-2.5348859e-04
-1.0866465e-04
2.9070316e-05
1.5986137e-04
2.8478182e-04
4.0527794e-04
5.2261227e-04
6.3736223e-04
7.4902999e-04
8.5581487e-04
9.5458340e-04
1.0410456e-03
1.1101146e-03
1.1563991e-03
1.1747578e-03
1.1607852e-03
1.1112091e-03
1.0243680e-03
9.0072424e-04
7.4318524e-04
5.5713460e-04
3.5016946e-04
1.3157843e-04
-8.8375363e-05
-2.9927737e-04
-4.9138630e-04
-6.5635571e-04
-7.8777171e-04
-8.8146716e-04
-9.3561515e-04
-9.5063680e-04
-9.2897830e-04
-8.7481594e-04
-7.9373416e-04
-6.9239530e-04
-5.7819430e-04
-4.5887718e-04
-3.4210270e-04
-2.3494317e-04
-1.4334684e-04
-7.1611146e-05
-2.1933540e-05
5.8874471e-06
1.4533199e-05
8.9759813e-06
-4.0036465e-06
-1.6576257e-05
-2.0835547e-05
-9.8721969e-06
2.1195338e-05
7.4390155e-05
1.4838779e-04
2.3846546e-04
3.3691827e-04
4.3391194e-04
5.1859561e-04
5.8023358e-04
6.0931325e-04
5.9861446e-04
5.4408799e-04
4.4540715e-04
3.0613191e-04
1.3348607e-04
-6.2204709e-05
-2.6834060e-04
-4.7105665e-04
-6.5632036e-04
-8.1101975e-04
-9.2394981e-04
-9.8662680e-04
-9.9388486e-04
-9.4422810e-04
-8.3992296e-04
-6.8683080e-04
-4.9399915e-04
-2.7304280e-04
-3.7349078e-05
1.9885898e-04
4.2155946e-04
6.1800551e-04
7.7774894e-04
8.9351076e-04
9.6179624e-04
9.8316590e-04
9.6209892e-04
9.0642467e-04
8.2635403e-04
7.3320760e-04
6.3799511e-04
5.5003636e-04
4.7581946e-04
4.1826540e-04
3.7651188e-04
3.4625000e-04
3.2055544e-04
2.9095658e-04
2.4852770e-04
1.8509963e-04
9.4537886e-05
-2.6189830e-05
-1.7634606e-04
-3.5124628e-04
-5.4259068e-04
-7.3924810e-04
-9.2837545e-04
-1.0967237e-03
-1.2319747e-03
-1.3239625e-03
-1.3656550e-03
-1.3538031e-03
-1.2892030e-03
-1.1765635e-03
-1.0240040e-03
-8.4224393e-04
-6.4356565e-04
-4.4065879e-04
-2.4546389e-04
-6.8134802e-05
8.3776178e-05
2.0583166e-04
2.9687648e-04
3.5885433e-04
3.9630746e-04
4.1562333e-04
4.2411329e-04
4.2902427e-04
4.3659546e-04
4.5127414e-04
4.7519063e-04
5.0796132e-04
5.4684556e-04
5.8723341e-04
6.2339368e-04
6.4936887e-04
6.5987742e-04
6.5097568e-04
6.2039499e-04
5.6780741e-04
4.9503252e-04
4.0595163e-04
3.0607193e-04
2.0182355e-04
9.9723672e-05
5.5567183e-06
-7.6294516e-05
-1.4326690e-04
-1.9472977e-04
-2.3179233e-04
-2.5686201e-04
-2.7305496e-04
-2.8357780e-04
-2.9118555e-04
-2.9778718e-04
-3.0423336e-04
-3.1028952e-04
-3.1476917e-04
-3.1577715e-04
-3.1099912e-04
-2.9798303e-04
-2.7438550e-04
-2.3818440e-04
-1.8787019e-04
-1.2262383e-04
-4.2478479e-05
5.1541731e-05
1.5731349e-04
2.7154916e-04
3.8979743e-04
5.0653789e-04
6.1538925e-04
7.0943138e-04
7.8162192e-04
8.2527397e-04
8.3454655e-04
8.0489200e-04
7.3336374e-04
6.1888287e-04
4.6270975e-04
2.6895317e-04
4.4765359e-05
-1.9987848e-04
-4.5277731e-04
-7.0038488e-04
-9.2884840e-04
-1.1250770e-03
-1.2777292e-03
-1.3780330e-03
-1.4203703e-03
-1.4025838e-03
-1.3259925e-03
-1.1951369e-03
-1.0173081e-03
-8.0192657e-04
-5.5984300e-04
-3.0262295e-04
-4.1867194e-05
2.1139402e-04
4.4721255e-04
6.5713435e-04
8.3451352e-04
9.7472816e-04
1.0752923e-03
1.1358538e-03
1.1580662e-03
1.1453279e-03
1.1023868e-03
1.0348321e-03
9.4851726e-04
8.4898120e-04
7.4094359e-04
6.2793964e-04
5.1213471e-04
3.9432892e-04
2.7412904e-04
1.5023155e-04
2.0666635e-05
-1.1685727e-04
-2.6409246e-04
-4.2106597e-04
-5.8513323e-04
-7.5053911e-04
-9.0855354e-04
-1.0481583e-03
-1.1571823e-03
-1.2237290e-03
-1.2377082e-03
-1.1922788e-03
-1.0850154e-03
-9.1863869e-04
-7.0119946e-04
-4.4566648e-04
-1.6893798e-04
1.0964229e-04
3.7012842e-04
5.9398964e-04
7.6607598e-04
8.7628960e-04
9.2073528e-04
9.0217367e-04
8.2967810e-04
7.1749103e-04
5.8318338e-04
4.4532746e-04
3.2098555e-04
2.2336762e-04
1.6000829e-04
1.3175100e-04
1.3271537e-04
1.5127696e-04
1.7192919e-04
1.7774955e-04
1.5308664e-04
8.6043036e-05
-2.9643200e-05
-1.9364605e-04
-3.9920752e-04
-6.3396546e-04
-8.8081399e-04
-1.1190080e-03
-1.3259316e-03
-1.4794197e-03
-1.5602879e-03
-1.5546815e-03
-1.4558707e-03
-1.2652052e-03
-9.9208655e-04
-6.5298106e-04
-2.6963429e-04
1.3324891e-04
5.3054076e-04
8.9910539e-04
1.2197809e-03
1.4786954e-03
1.6678033e-03
1.7846559e-03
1.8315286e-03
1.8141076e-03
1.7399901e-03
1.6172735e-03
1.4534732e-03
1.2549208e-03
1.0266773e-03
7.7289260e-04
4.9747656e-04
2.0491482e-04
-9.8951297e-05
-4.0635420e-04
-7.0737600e-04
-9.9014465e-04
-1.2414515e-03
-1.4477316e-03
-1.5963020e-03
-1.6767165e-03
-1.6820693e-03
-1.6100913e-03
-1.4639580e-03
-1.2525318e-03
-9.8965984e-04
-6.9269081e-04
-3.8067892e-04
-7.2574830e-05
2.1438079e-04
4.6589156e-04
6.7138022e-04
8.2430580e-04
9.2208645e-04
9.6571309e-04
9.5913831e-04
9.0852623e-04
8.2145659e-04
7.0617742e-04
5.7097960e-04
4.2373305e-04
2.7159286e-04
1.2085958e-04
-2.3044569e-05
-1.5553727e-04
-2.7282726e-04
-3.7188693e-04
-4.5045289e-04
-5.0704366e-04
-5.4097662e-04
-5.5236644e-04
-5.4208612e-04
-5.1167423e-04
-4.6318095e-04
-3.9896279e-04
-3.2145338e-04
-2.3295147e-04
-1.3547216e-04
-3.0702512e-05
7.9912591e-05
1.9495469e-04
3.1271652e-04
4.3083757e-04
5.4599143e-04
6.5391786e-04
7.5000885e-04
8.3015957e-04
8.9146573e-04
9.3258680e-04
9.5373337e-04
9.5631746e-04
9.4237401e-04
9.1389534e-04
8.7221510e-04
8.1754894e-04
7.4876479e-04
6.6342422e-04
5.5810165e-04
4.2894701e-04
2.7241938e-04
8.6097948e-05
-1.3052705e-04
-3.7537788e-04
-6.4331920e-04
-9.2597807e-04
-1.2119115e-03
-1.4871348e-03
-1.7359742e-03
-1.9421712e-03
-2.0901423e-03
-2.1662860e-03
-2.1602274e-03
-2.0658948e-03
-1.8823466e-03
-1.6142751e-03
-1.2721227e-03
-8.7173813e-04
-4.3352929e-04
1.8865770e-05
4.6027893e-04
8.6589908e-04
1.2131254e-03
1.4831753e-03
1.6623374e-03
1.7430224e-03
1.7246929e-03
1.6142654e-03
1.4256133e-03
1.1782027e-03
8.9509582e-04
6.0061755e-04
3.1800086e-04
6.7302664e-05
-1.3618478e-04
-2.8289688e-04
-3.6930409e-04
-3.9761271e-04
-3.7495850e-04
-3.1222183e-04
-2.2261063e-04
-1.2016336e-04
-1.8316591e-05
7.1339193e-05
1.4001780e-04
1.8234119e-04
1.9655634e-04
1.8437482e-04
1.5048714e-04
1.0183505e-04
4.6742250e-05
-5.9936223e-06
-4.7954210e-05
-7.1829670e-05
-7.1989556e-05
-4.4895454e-05
1.0627361e-05
9.3246420e-05
1.9910737e-04
3.2195661e-04
4.5340815e-04
5.8335523e-04
7.0051800e-04
7.9308345e-04
8.4945511e-04
8.5931333e-04
8.1500690e-04
7.1287071e-04
5.5407276e-04
3.4484813e-04
9.6114241e-05
-1.7745533e-04
-4.5875656e-04
-7.2980139e-04
-9.7330036e-04
-1.1741167e-03
-1.3204600e-03
-1.4047253e-03
-1.4239312e-03
-1.3797548e-03
-1.2782049e-03
-1.1289970e-03
-9.4469615e-04
-7.3969266e-04
-5.2908217e-04
-3.2752521e-04
-1.4816193e-04
-1.6480960e-06
1.0462911e-04
1.6709583e-04
1.8623762e-04
1.6650496e-04
1.1587485e-04
4.5106721e-05
-3.3241607e-05
-1.0596114e-04
-1.6041582e-04
-1.8574026e-04
-1.7389170e-04
-1.2043902e-04
-2.4998708e-05
1.0872846e-04
2.7331871e-04
4.5833683e-04
6.5127539e-04
8.3864603e-04
1.0072187e-03
1.1452448e-03
1.2434278e-03
1.2955162e-03
1.2984731e-03
1.2522516e-03
1.1592683e-03
1.0237236e-03
8.5092429e-04
6.4673643e-04
4.1723897e-04
1.6859438e-04
-9.2893757e-05
-3.6059820e-04
-6.2734692e-04
-8.8525766e-04
-1.1257057e-03
-1.3394649e-03
-1.5170207e-03
-1.6490311e-03
-1.7268997e-03
-1.7434151e-03
-1.6933987e-03
-1.5742952e-03
-1.3866523e-03
-1.1344483e-03
-8.2523643e-04
-4.7006930e-04
-8.3170580e-05
3.1865590e-04
7.1685763e-04
1.0921547e-03
1.4256900e-03
1.7002427e-03
1.9014234e-03
2.0187367e-03
2.0463784e-03
1.9836512e-03
1.8349618e-03
1.6095706e-03
1.3212522e-03
9.8766066e-04
6.2917533e-04
2.6728580e-04
-7.7281928e-05
-3.8644146e-04
-6.4635605e-04
-8.4855061e-04
-9.9037356e-04
-1.0747617e-03
-1.1093649e-03
-1.1051716e-03
-1.0748349e-03
-1.0309284e-03
-9.8436191e-04
-9.4315145e-04
-9.1167513e-04
-8.9046954e-04
-8.7654762e-04
-8.6415972e-04
-8.4587077e-04
-8.1378882e-04
-7.6076383e-04
-6.8139179e-04
-5.7270722e-04
-4.3450800e-04
-2.6931359e-04
-8.2004313e-05
1.2077348e-04
3.3132799e-04
5.4165509e-04
7.4408571e-04
9.3177627e-04
1.0990003e-03
1.2412293e-03
1.3550226e-03
1.4377747e-03
1.4874160e-03
1.5022154e-03
1.4807972e-03
1.4223261e-03
1.3267411e-03
1.1949582e-03
1.0290109e-03
8.3211753e-04
6.0866754e-04
3.6413691e-04
1.0495278e-04
-1.6167072e-04
-4.2791997e-04
-6.8560423e-04
-9.2642447e-04
-1.1422864e-03
-1.3256424e-03
-1.4698475e-03
-1.5695162e-03
-1.6208648e-03
-1.6220082e-03
-1.5731679e-03
-1.4767507e-03
-1.3372730e-03
-1.1611170e-03
-9.5612393e-04
-7.3104800e-04
-4.9492815e-04
-2.5645782e-04
-2.3436421e-05
1.9763366e-04
4.0176976e-04
5.8554361e-04
7.4694113e-04
8.8507958e-04
9.9983383e-04
1.0914363e-03
1.1601142e-03
1.2058154e-03
1.2280555e-03
1.2259201e-03
1.1982218e-03
1.1437433e-03
1.0615315e-03
9.5124138e-04
8.1348335e-04
6.5010691e-04
4.6437114e-04
2.6096417e-04
4.5862956e-05
-1.7393922e-04
-3.9078466e-04
-5.9673024e-04
-7.8392225e-04
-9.4495784e-04
-1.0732333e-03
-1.1632774e-03
-1.2110608e-03
-1.2142644e-03
-1.1724810e-03
-1.0873166e-03
-9.6236370e-04
-8.0303447e-04
-6.1626878e-04
-4.1014908e-04
-1.9345928e-04
2.4775065e-05
2.3572844e-04
4.3116690e-04
6.0377269e-04
7.4740687e-04
8.5732599e-04
9.3036337e-04
9.6506947e-04
9.6179036e-04
9.2265388e-04
8.5143253e-04
7.5325788e-04
6.3417636e-04
5.0055788e-04
3.5840202e-04
2.1270009e-04
6.7169145e-05
-7.5528347e-05
-2.1336444e-04
-3.4458718e-04
-4.6748191e-04
-5.8025294e-04
-6.8100953e-04
-7.6782723e-04
-8.3884880e-04
-8.9239431e-04
-9.2706468e-04
-9.4183651e-04
-9.3614820e-04
-9.0997278e-04
-8.6387096e-04
-7.9902101e-04
-7.1722446e-04
-6.2088226e-04
-5.1292979e-04
-3.9671924e-04
-2.7584836e-04
-1.5394858e-04
-3.4453535e-05
7.9630392e-05
1.8592670e-04
2.8283318e-04
3.6957573e-04
4.4615489e-04
5.1319457e-04
5.7172188e-04
6.2291223e-04
6.6782907e-04
7.0718475e-04
7.4115017e-04
7.6923970e-04
7.9028780e-04
8.0251759e-04
8.0369031e-04
7.9132315e-04
7.6297063e-04
7.1659951e-04
6.5106690e-04
5.6658849e-04
4.6505018e-04
3.5009223e-04
2.2694694e-04
1.0203954e-04
-1.7604331e-05
-1.2506680e-04
-2.1426311e-04
-2.8058961e-04
-3.2142080e-04
-3.3640644e-04
-3.2753871e-04
-2.9897870e-04
-2.5665609e-04
-2.0768412e-04
-1.5965185e-04
-1.1986427e-04
-9.4601372e-05
-8.8466310e-05
-1.0388793e-04
-1.4083208e-04
-1.9675633e-04
-2.6681764e-04
-3.4431816e-04
-4.2135100e-04
-4.8958520e-04
-5.4110475e-04
-5.6919953e-04
-5.6900971e-04
-5.3795273e-04
-4.7590501e-04
-3.8515177e-04
-2.7014726e-04
-1.3714450e-04
6.2414887e-06
1.5147756e-04
2.8951379e-04
4.1126796e-04
5.0844801e-04
5.7461265e-04
6.0607364e-04
6.0240010e-04
5.6647185e-04
5.0410230e-04
4.2330192e-04
3.3329363e-04
2.4341644e-04
1.6206135e-04
9.5769801e-05
4.8596251e-05
2.1798124e-05
1.3873368e-05
2.0921738e-05
3.7266019e-05
5.6242226e-05
7.1057317e-05
7.5614956e-05
6.5217729e-05
3.7067785e-05
-9.4862129e-06
-7.2967698e-05
-1.5002402e-04
-2.3584789e-04
-3.2469562e-04
-4.1043682e-04
-4.8708213e-04
-5.4924574e-04
-5.9251127e-04
-6.1368703e-04
-6.1095360e-04
-5.8391545e-04
-5.3356795e-04
-4.6219056e-04
-3.7318347e-04
-2.7087141e-04
-1.6029533e-04
-4.6998134e-05
6.3263501e-05
1.6497577e-04
2.5343493e-04
3.2526315e-04
3.7875881e-04
4.1403179e-04
4.3291120e-04
4.3863554e-04
4.3536112e-04
4.2755583e-04
4.1937041e-04
4.1408204e-04
4.1368517e-04
4.1867463e-04
4.2803870e-04
4.3945697e-04
4.4967368e-04
4.5499032e-04
4.5180080e-04
4.3708758e-04
4.0880942e-04
3.6613168e-04
3.0947377e-04
2.4037397e-04
1.6120072e-04
7.4767710e-05
-1.6072913e-05
-1.0878646e-04
-2.0140255e-04
-2.9261454e-04
-3.8171400e-04
-4.6837010e-04
-5.5229448e-04
-6.3285983e-04
-7.0875274e-04
-7.7773734e-04
-8.3659191e-04
-8.8125993e-04
-9.0722874e-04
-9.1011653e-04
-8.8632738e-04
-8.3350987e-04
-7.5073256e-04
-6.3853157e-04
-4.9894322e-04
-3.3552765e-04
-1.5336250e-04
4.1027124e-05
2.3984088e-04
4.3431117e-04
6.1516120e-04
7.7319855e-04
8.9999876e-04
9.8860965e-04
1.0341955e-03
1.0345398e-03
9.9033552e-04
9.0521356e-04
7.8549021e-04
6.3965214e-04
4.7763420e-04
3.0996693e-04
1.4687812e-04
-2.5680943e-06
-1.3121391e-04
-2.3435814e-04
-3.1005570e-04
-3.5913271e-04
-3.8491329e-04
-3.9268531e-04
-3.8896203e-04
-3.8062281e-04
-3.7403232e-04
-3.7423998e-04
-3.8435025e-04
-4.0513406e-04
-4.3492595e-04
-4.6981948e-04
-5.0413515e-04
-5.3109143e-04
-5.4360852e-04
-5.3515673e-04
-5.0050008e-04
-4.3624505e-04
-3.4119963e-04
-2.1654929e-04
-6.5850800e-05
1.0514493e-04
2.8882227e-04
4.7616117e-04
6.5730486e-04
8.2220176e-04
9.6127273e-04
1.0660450e-03
1.1297014e-03
1.1475096e-03
1.1171125e-03
1.0386667e-03
9.1482511e-04
7.5057404e-04
5.5294796e-04
3.3064984e-04
9.3596683e-05
-1.4759343e-04
-3.8215029e-04
-5.9970355e-04
-7.9080294e-04
-9.4738158e-04
-1.0631473e-03
-1.1338868e-03
-1.1576634e-03
-1.1348871e-03
-1.0682511e-03
-9.6253959e-04
-8.2432467e-04
-6.6157026e-04
-4.8316946e-04
-2.9845044e-04
-1.1669720e-04
5.3269106e-05
2.0346878e-04
3.2721917e-04
4.1968388e-04
4.7833232e-04
5.0315125e-04
4.9657859e-04
4.6318611e-04
4.0916235e-04
3.4166289e-04
2.6810667e-04
1.9550062e-04
1.2986514e-04
7.5809907e-05
3.6282999e-05
1.2494803e-05
4.0037519e-06
8.9377496e-06
2.4312444e-05
4.6400941e-05
7.1113659e-05
9.4358846e-05
1.1236649e-04
1.2196657e-04
1.2081658e-04
1.0757397e-04
8.2006429e-05
4.5028896e-05
-1.3409691e-06
-5.4106478e-05
-1.0947911e-04
-1.6311015e-04
-2.1035673e-04
-2.4658418e-04
-2.6750890e-04
-2.6957364e-04
-2.5032653e-04
-2.0875807e-04
-1.4554338e-04
-6.3140666e-05
3.4288271e-05
1.4114005e-04
2.5077926e-04
3.5605623e-04
4.4990645e-04
5.2596974e-04
5.7914429e-04
6.0601060e-04
6.0508324e-04
5.7687164e-04
5.2375416e-04
4.4968936e-04
3.5980132e-04
2.5988313e-04
1.5586693e-04
5.3315277e-05
-4.3008601e-05
-1.2944372e-04
-2.0358147e-04
-2.6426173e-04
-3.1143210e-04
-3.4590268e-04
-3.6904343e-04
-3.8248007e-04
-3.8783741e-04
-3.8655584e-04
-3.7978303e-04
-3.6833159e-04
-3.5269548e-04
-3.3311883e-04
-3.0970341e-04
-2.8253245e-04
-2.5178726e-04
-2.1783819e-04
-1.8129459e-04
-1.4300094e-04
-1.0397614e-04
-6.5312815e-05
-2.8071783e-05
6.7936938e-06
3.8476506e-05
6.6338203e-05
8.9922990e-05
1.0897466e-04
1.2348885e-04
1.3379157e-04
1.4060553e-04
1.4507926e-04
1.4876290e-04
1.5352088e-04
1.6137672e-04
1.7429438e-04
1.9391014e-04
2.2123954e-04
2.5639298e-04
2.9834180e-04
3.4477913e-04
3.9211252e-04
4.3560958e-04
4.6969920e-04
4.8841574e-04
4.8595895e-04
4.5732582e-04
3.9895320e-04
3.0929814e-04
1.8928310e-04
4.2544793e-05
-1.2455750e-04
-3.0319881e-04
-4.8261192e-04
-6.5084961e-04
-7.9572861e-04
-9.0587405e-04
-9.7176624e-04
-9.8668404e-04
-9.4744090e-04
-8.5482443e-04
-7.1367779e-04
-5.3260067e-04
-3.2329081e-04
-9.9591991e-05
1.2362003e-04
3.3159239e-04
5.1084934e-04
6.5026148e-04
7.4188731e-04
7.8149065e-04
7.6869348e-04
7.0676659e-04
6.0210440e-04
4.6346424e-04
3.0106679e-04
1.2565455e-04
-5.2399377e-05
-2.2384767e-04
-3.8112039e-04
-5.1863043e-04
-6.3283138e-04
-7.2206518e-04
-7.8626087e-04
-8.2654800e-04
-8.4483966e-04
-8.4343043e-04
-8.2464821e-04
-7.9058778e-04
-7.4293756e-04
-6.8289715e-04
-6.1117836e-04
-5.2808429e-04
-4.3365715e-04
-3.2787476e-04
-2.1086686e-04
-8.3124536e-05
5.4314822e-05
1.9971973e-04
3.5057011e-04
5.0353680e-04
6.5455236e-04
7.9898109e-04
9.3188615e-04
1.0483839e-03
1.1439991e-03
1.2149023e-03
1.2580594e-03
1.2713834e-03
1.2538760e-03
1.2057218e-03
1.1283136e-03
1.0241938e-03
8.9690567e-04
7.5076863e-04
5.9060644e-04
4.2146471e-04
2.4834434e-04
7.5971387e-05
-9.1378588e-05
-2.4998850e-04
-3.9673880e-04
-5.2908895e-04
-6.4501714e-04
-7.4293063e-04
-8.2155865e-04
-8.7984785e-04
-9.1689041e-04
-9.3191394e-04
-9.2434752e-04
-8.9395659e-04
-8.4102070e-04
-7.6651473e-04
-6.7224958e-04
-5.6093320e-04
-4.3612773e-04
-3.0210001e-04
-1.6358434e-04
-2.5489820e-05
1.0740911e-04
2.3075650e-04
3.4082743e-04
4.3462560e-04
5.0983313e-04
5.6460614e-04
5.9732905e-04
6.0664138e-04
5.9186572e-04
5.5350261e-04
4.9346696e-04
4.1500353e-04
3.2232416e-04
2.2005992e-04
1.1265423e-04
3.8271683e-06
-1.0378773e-04
-2.0878353e-04
-3.1089484e-04
-4.1071707e-04
-5.0927563e-04
-6.0750460e-04
-7.0571000e-04
-8.0309934e-04
-8.9744591e-04
-9.8493145e-04
-1.0601882e-03
-1.1165477e-03
-1.1464905e-03
-1.1422676e-03
-1.0966427e-03
-1.0036865e-03
-8.5955064e-04
-6.6314623e-04
-4.1665082e-04
-1.2576666e-04
2.0032424e-04
5.4932454e-04
9.0647895e-04
1.2554705e-03
1.5794878e-03
1.8623801e-03
2.0897958e-03
2.2501778e-03
2.3354942e-03
2.3416243e-03
2.2683745e-03
2.1192785e-03
1.9013865e-03
1.6249483e-03
1.3028069e-03
9.4953542e-04
5.8044310e-04
2.1057929e-04
-1.4615431e-04
-4.7769995e-04
-7.7430268e-04
-1.0287291e-03
-1.2362812e-03
-1.3946582e-03
-1.5037123e-03
-1.5651342e-03
-1.5820931e-03
-1.5588564e-03
-1.5004168e-03
-1.4121465e-03
-1.2994964e-03
-1.1677455e-03
-1.0218036e-03
-8.6606158e-04
-7.0428330e-04
-5.3953549e-04
-3.7415942e-04
-2.0979101e-04
-4.7441486e-05
1.1234667e-04
2.6925960e-04
4.2289585e-04
5.7240857e-04
7.1616554e-04
8.5149742e-04
9.7459562e-04
1.0805949e-03
1.1638433e-03
1.2183299e-03
1.2382581e-03
1.2186638e-03
1.1559313e-03
1.0482590e-03
8.9607890e-04
7.0227149e-04
4.7209487e-04
2.1284766e-04
-6.6665589e-05
-3.5676439e-04
-6.4750688e-04
-9.2919813e-04
-1.1927439e-03
-1.4298507e-03
-1.6331154e-03
-1.7960705e-03
-1.9132526e-03
-1.9803414e-03
-1.9943785e-03
-1.9540298e-03
-1.8598263e-03
-1.7143147e-03
-1.5220667e-03
-1.2895202e-03
-1.0246429e-03
-7.3642879e-04
-4.3427020e-04
-1.2728575e-04
1.7629307e-04
4.6958130e-04
7.4728219e-04
1.0056821e-03
1.2423976e-03
1.4559041e-03
1.6449242e-03
1.8077980e-03
1.9419842e-03
2.0438154e-03
2.1085799e-03
2.1309473e-03
2.1056948e-03
2.0285419e-03
1.8967955e-03
1.7097298e-03
1.4688310e-03
1.1779773e-03
8.4353682e-04
4.7434554e-04
8.1544502e-05
-3.2173083e-04
-7.2078809e-04
-1.0999079e-03
-1.4429412e-03
-1.7339790e-03
-1.9581158e-03
-2.1023218e-03
-2.1563948e-03
-2.1139248e-03
-1.9731743e-03
-1.7377567e-03
-1.4169830e-03
-1.0257509e-03
-5.8389357e-04
-1.1498505e-04
3.5531574e-04
8.0122070e-04
1.1988583e-03
1.5281760e-03
1.7744777e-03
1.9294207e-03
1.9913757e-03
1.9651291e-03
1.8609819e-03
1.6933571e-03
1.4790927e-03
1.2356297e-03
9.7930432e-04
7.2390770e-04
4.7962012e-04
2.5237888e-04
4.3700255e-05
-1.4906741e-04
-3.3192673e-04
-5.1270547e-04
-6.9915442e-04
-8.9717001e-04
-1.1094152e-03
-1.3344857e-03
-1.5666860e-03
-1.7963959e-03
-2.0109333e-03
-2.1957765e-03
-2.3359888e-03
-2.4176883e-03
-2.4294081e-03
-2.3632121e-03
-2.2154705e-03
-1.9872513e-03
-1.6843240e-03
-1.3168002e-03
-8.9845422e-04
-4.4579268e-04
2.3032194e-05
4.8936439e-04
9.3515190e-04
1.3439490e-03
1.7017534e-03
1.9976308e-03
2.2241004e-03
2.3772875e-03
2.4568705e-03
2.4658528e-03
2.4101839e-03
2.2982394e-03
2.1401694e-03
1.9471279e-03
1.7304051e-03
1.5004980e-03
1.2661807e-03
1.0336669e-03
8.0597767e-04
5.8260570e-04
3.5968720e-04
1.3091936e-04
-1.1091990e-04
-3.7222143e-04
-6.5685323e-04
-9.6476756e-04
-1.2911043e-03
-1.6259070e-03
-1.9544708e-03
-2.2582608e-03
-2.5162922e-03
-2.7068453e-03
-2.8093725e-03
-2.8064488e-03
-2.6856058e-03
-2.4408922e-03
-2.0740114e-03
-1.5948950e-03
-1.0216000e-03
-3.7948290e-04
3.0031968e-04
9.8298202e-04
1.6324714e-03
2.2141981e-03
2.6975888e-03
3.0583316e-03
3.2800678e-03
3.3553606e-03
3.2858667e-03
3.0817292e-03
2.7603069e-03
2.3444179e-03
1.8603169e-03
1.3356160e-03
7.9731610e-04
2.7006883e-04
-2.2525509e-04
-6.7264267e-04
-1.0616489e-03
-1.3876992e-03
-1.6516269e-03
-1.8581725e-03
-2.0139501e-03
-2.1255722e-03
-2.1982560e-03
-2.2350433e-03
-2.2366427e-03
-2.2018086e-03
-2.1281040e-03
-2.0128770e-03
-1.8542718e-03
-1.6521111e-03
-1.4085051e-03
-1.1280925e-03
-8.1788317e-04
-4.8674778e-04
-1.4465049e-04
1.9823893e-04
5.3240817e-04
8.4970446e-04
1.1437768e-03
1.4102167e-03
1.6464160e-03
1.8512005e-03
2.0243173e-03
2.1658567e-03
2.2756911e-03
2.3530143e-03
2.3960464e-03
2.4019373e-03
2.3668693e-03
2.2863400e-03
2.1556060e-03
1.9702563e-03
1.7268648e-03
1.4236522e-03
1.0610816e-03
6.4231446e-04
1.7345273e-04
-3.3653558e-04
-8.7593247e-04
-1.4300098e-03
-1.9807281e-03
-2.5069692e-03
-2.9854468e-03
-3.3922215e-03
-3.7046408e-03
-3.9034371e-03
-3.9746738e-03
-3.9112491e-03
-3.7137379e-03
-3.3904578e-03
-2.9567572e-03
-2.4336364e-03
-1.8458961e-03
-1.2200571e-03
-5.8230373e-04
4.3332737e-05
6.3638408e-04
1.1808455e-03
1.6655235e-03
2.0838564e-03
2.4332988e-03
2.7144043e-03
2.9297602e-03
3.0829106e-03
3.1773914e-03
3.2159792e-03
3.2002305e-03
3.1303490e-03
3.0053707e-03
2.8236196e-03
2.5833655e-03
2.2836047e-03
1.9248767e-03
1.5100280e-03
1.0448250e-03
5.3831801e-04
2.8495938e-06
-5.4645327e-04
-1.0925255e-03
-1.6170603e-03
-2.1010776e-03
-2.5256769e-03
-2.8730283e-03
-3.1275135e-03
-3.2768856e-03
-3.3132928e-03
-3.2340234e-03
-3.0418761e-03
-2.7451090e-03
-2.3569750e-03
-1.8948950e-03
-1.3793604e-03
-8.3267762e-04
-2.7767334e-04
2.6354478e-04
7.7070121e-04
1.2262861e-03
1.6162648e-03
1.9305343e-03
2.1631220e-03
2.3121450e-03
2.3795589e-03
2.3707236e-03
2.2938170e-03
2.1591307e-03
1.9782912e-03
1.7634452e-03
1.5264549e-03
1.2781495e-03
1.0276932e-03
7.8212698e-04
5.4612839e-04
3.2200954e-04
1.0994730e-04
-9.1581477e-05
-2.8521342e-04
-4.7406379e-04
-6.6120434e-04
-8.4916111e-04
-1.0391837e-03
-1.2304752e-03
-1.4197365e-03
-1.6011328e-03
-1.7666638e-03
-1.9068636e-03
-2.0117110e-03
-2.0716245e-03
-2.0784247e-03
-2.0261704e-03
-1.9117939e-03
-1.7354869e-03
-1.5008162e-03
-1.2145894e-03
-8.8650651e-04
-5.2864657e-04
-1.5482366e-04
2.2015328e-04
5.8128676e-04
9.1422779e-04
1.2061041e-03
1.4462938e-03
1.6270924e-03
1.7442096e-03
1.7970309e-03
1.7885869e-03
1.7252021e-03
1.6158379e-03
1.4711894e-03
1.3026361e-03
1.1211623e-03
9.3636934e-04
7.5569224e-04
5.8391138e-04
4.2302032e-04
2.7246251e-04
1.2969407e-04
-9.0373392e-06
-1.4794362e-04
-2.9098898e-04
-4.4092200e-04
-5.9818652e-04
-7.6016362e-04
-9.2096135e-04
-1.0717905e-03
-1.2018623e-03
-1.2996611e-03
-1.3543967e-03
-1.3574198e-03
-1.3033986e-03
-1.1910951e-03
-1.0236470e-03
-8.0834111e-04
-5.5593810e-04
-2.7966046e-04
6.0144283e-06
2.8660334e-04
5.4876567e-04
7.8123781e-04
9.7548511e-04
1.1260515e-03
1.2306215e-03
1.2898258e-03
1.3068324e-03
1.2867684e-03
1.2360346e-03
1.1615791e-03
1.0701964e-03
9.6791419e-04
8.5952537e-04
7.4831291e-04
6.3599289e-04
5.2285956e-04
4.0807789e-04
2.9004749e-04
1.6676209e-04
3.6097322e-05
-1.0403771e-04
-2.5574019e-04
-4.2100962e-04
-6.0102427e-04
-7.9507617e-04
-9.9975697e-04
-1.2086361e-03
-1.4124761e-03
-1.5999338e-03
-1.7586085e-03
-1.8762606e-03
-1.9420187e-03
-1.9474237e-03
-1.8871989e-03
-1.7596861e-03
-1.5669483e-03
-1.3145946e-03
-1.0114097e-03
-6.6886042e-04
-3.0053405e-04
7.8464918e-05
4.5214968e-04
8.0432416e-04
1.1193127e-03
1.3827607e-03
1.5824958e-03
1.7094027e-03
1.7582361e-03
1.7282827e-03
1.6237720e-03
1.4539406e-03
1.2326657e-03
9.7762539e-04
7.0900621e-04
4.4784733e-04
2.1418132e-04
2.5178222e-05
-1.0648293e-04
-1.7381569e-04
-1.7616111e-04
-1.1920191e-04
-1.4518880e-05
1.2127153e-04
2.6812110e-04
4.0483562e-04
5.1154547e-04
5.7197737e-04
5.7527389e-04
5.1717143e-04
4.0042287e-04
2.3443163e-04
3.4149084e-05
-1.8162937e-04
-3.9236807e-04
-5.7805479e-04
-7.2137301e-04
-8.0954149e-04
-8.3561419e-04
-7.9910037e-04
-7.0585908e-04
-5.6732229e-04
-3.9917791e-04
-2.1968635e-04
-4.7820825e-05
9.8576949e-05
2.0444940e-04
2.5884525e-04
2.5582699e-04
1.9492565e-04
8.1127299e-05
-7.5613565e-05
-2.6131415e-04
-4.5928887e-04
-6.5173713e-04
-8.2143164e-04
-9.5333111e-04
-1.0359444e-03
-1.0622936e-03
-1.0303648e-03
-9.4300676e-04
-8.0732583e-04
-6.3379043e-04
-4.3518212e-04
-2.2528002e-04
-1.7402188e-05
1.7685457e-04
3.4849325e-04
4.9156878e-04
6.0324210e-04
6.8351046e-04
7.3470446e-04
7.6084280e-04
7.6693278e-04
7.5829856e-04
7.4000637e-04
7.1643630e-04
6.9102757e-04
6.6619886e-04
6.4341342e-04
6.2332808e-04
6.0595173e-04
5.9075361e-04
5.7670032e-04
5.6224100e-04
5.4528790e-04
5.2324638e-04
4.9314082e-04
4.5186179e-04
3.9652835e-04
3.2492093e-04
2.3591183e-04
1.2981243e-04
8.5690002e-06
-1.2423657e-04
-2.6359440e-04
-4.0346123e-04
-5.3728522e-04
-6.5857977e-04
-7.6145960e-04
-8.4106943e-04
-8.9388543e-04
-9.1797935e-04
-9.1324309e-04
-8.8136856e-04
-8.2553928e-04
-7.4998163e-04
-6.5947134e-04
-5.5884173e-04
-4.5253167e-04
-3.4420935e-04
-2.3650630e-04
-1.3088757e-04
-2.7671851e-05
7.3797173e-05
1.7483946e-04
2.7701637e-04
3.8164744e-04
4.8933278e-04
5.9955180e-04
7.1039782e-04
8.1848772e-04
9.1906489e-04
1.0062942e-03
1.0737271e-03
1.1148928e-03
1.1239513e-03
1.0963379e-03
1.0293325e-03
9.2248585e-04
7.7784179e-04
5.9991079e-04
3.9538308e-04
1.7261664e-04
-5.9027542e-05
-2.8991410e-04
-5.1083826e-04
-7.1362901e-04
-8.9158744e-04
-1.0397252e-03
-1.1548119e-03
-1.2352980e-03
-1.2812640e-03
-1.2943549e-03
-1.2774333e-03
-1.2340102e-03
-1.1677329e-03
-1.0820384e-03
-9.7997597e-04
-8.6416796e-04
-7.3686512e-04
-6.0005680e-04
-4.5560154e-04
-3.0534955e-04
-1.5124004e-04
4.6283593e-06
1.5994459e-04
3.1214166e-04
4.5836581e-04
5.9547136e-04
7.2005418e-04
8.2853059e-04
9.1726448e-04
9.8274819e-04
1.0218416e-03
1.0320618e-03
1.0118957e-03
9.6109448e-04
8.8090217e-04
7.7417772e-04
6.4537432e-04
5.0035717e-04
3.4605799e-04
1.8998374e-04
3.9616050e-05
-9.8239667e-05
-2.1807259e-04
-3.1615218e-04
-3.9078377e-04
-4.4226833e-04
-4.7255769e-04
-4.8467061e-04
-4.8213693e-04
-4.6867963e-04
-4.4795665e-04
-4.2324237e-04
-3.9715665e-04
-3.7150202e-04
-3.4721347e-04
-3.2440826e-04
-3.0251394e-04
-2.8044635e-04
-2.5680838e-04
-2.3008701e-04
-1.9883934e-04
-1.6186882e-04
-1.1839172e-04
-6.8184950e-05
-1.1699418e-05
4.9875801e-05
1.1460630e-04
1.7986539e-04
2.4245141e-04
2.9877521e-04
3.4511884e-04
3.7795367e-04
3.9429187e-04
3.9203471e-04
3.7027495e-04
3.2950738e-04
2.7170347e-04
2.0022013e-04
1.1953974e-04
3.4868147e-05
-4.8363049e-05
-1.2503370e-04
-1.9084584e-04
-2.4273026e-04
-2.7907050e-04
-2.9969011e-04
-3.0559369e-04
-2.9850612e-04
-2.8044043e-04
-2.5351542e-04
-2.1986639e-04
-1.8146670e-04
-1.3991510e-04
-9.6264908e-05
-5.0929725e-05
-3.6868991e-06
4.6206170e-05
9.9777885e-05
1.5800861e-04
2.2144628e-04
2.8984116e-04
3.6186837e-04
4.3498921e-04
5.0548322e-04
5.6866700e-04
6.1929641e-04
6.5211876e-04
6.6250946e-04
6.4710780e-04
6.0436492e-04
5.3492657e-04
4.4178917e-04
3.3018930e-04
2.0721773e-04
8.1185762e-05
-3.9194415e-05
-1.4572743e-04
-2.3164554e-04
-2.9239942e-04
-3.2622035e-04
-3.3436792e-04
-3.2101887e-04
-2.9280142e-04
-2.5802347e-04
-2.2567662e-04
-2.0432677e-04
-2.0102768e-04
-2.2041623e-04
-2.6418248e-04
-3.3095867e-04
-4.1646383e-04
-5.1386024e-04
-6.1438453e-04
-7.0821709e-04
-7.8548669e-04
-8.3728802e-04
-8.5658559e-04
-8.3889120e-04
-7.8263625e-04
-6.8921438e-04
-5.6272916e-04
-4.0952532e-04
-2.3759386e-04
-5.5926342e-05
1.2612739e-04
2.9945435e-04
4.5568905e-04
5.8761974e-04
6.8949716e-04
7.5727341e-04
7.8879679e-04
7.8396829e-04
7.4484101e-04
6.7562644e-04
5.8256372e-04
4.7360944e-04
3.5792148e-04
2.4514593e-04
1.4456045e-04
6.4165933e-05
9.8367833e-06
-1.5358295e-05
-1.1562349e-05
1.7820640e-05
6.6480548e-05
1.2594679e-04
1.8663986e-04
2.3907339e-04
2.7489379e-04
2.8755163e-04
2.7278431e-04
2.2900964e-04
1.5749890e-04
6.2267437e-05
-5.0296012e-05
-1.7201294e-04
-2.9364899e-04
-4.0572767e-04
-4.9934904e-04
-5.6694143e-04
-6.0288767e-04
-6.0398863e-04
-5.6974255e-04
-5.0242032e-04
-4.0691186e-04
-2.9032643e-04
-1.6136155e-04
-2.9498345e-05
9.5885872e-05
2.0638604e-04
2.9532567e-04
3.5832379e-04
3.9361538e-04
4.0209492e-04
3.8708551e-04
3.5386557e-04
3.0900111e-04
2.5954082e-04
2.1214563e-04
1.7224725e-04
1.4334941e-04
1.2658375e-04
1.2060355e-04
1.2184692e-04
1.2514053e-04
1.2455767e-04
1.1439899e-04
9.0137841e-05
4.9099840e-05
-9.2689736e-06
-8.3417521e-05
-1.6985865e-04
-2.6349295e-04
-3.5807188e-04
-4.4675259e-04
-5.2268783e-04
-5.7959328e-04
-6.1224227e-04
-6.1685125e-04
-5.9133748e-04
-5.3545119e-04
-4.5080152e-04
-3.4080064e-04
-2.1054058e-04
-6.6599851e-05
8.3235390e-05
2.3034718e-04
3.6575486e-04
4.8065704e-04
5.6701737e-04
6.1815975e-04
6.2933485e-04
5.9821578e-04
5.2528076e-04
4.1404150e-04
2.7107322e-04
1.0580090e-04
-6.9995048e-05
-2.4296421e-04
-3.9923386e-04
-5.2564211e-04
-6.1103367e-04
-6.4745848e-04
-6.3109927e-04
-5.6277329e-04
-4.4791016e-04
-2.9599148e-04
-1.1954169e-04
6.7046507e-05
2.4866094e-04
4.1073485e-04
5.4060898e-04
6.2872249e-04
6.6945081e-04
6.6151527e-04
6.0794908e-04
5.1564819e-04
3.9456742e-04
2.5665118e-04
1.1461246e-04
-1.9312671e-05
-1.3451122e-04
-2.2293178e-04
-2.7972732e-04
-3.0353949e-04
-2.9639698e-04
-2.6324841e-04
-2.1119682e-04
-1.4853583e-04
-8.3703327e-05
-2.4275343e-05
2.3877701e-05
5.7169374e-05
7.4549333e-05
7.7422892e-05
6.9276938e-05
5.5075759e-05
4.0502731e-05
3.1137099e-05
3.1669002e-05
4.5256949e-05
7.3110730e-05
1.1434550e-04
1.6611428e-04
2.2399337e-04
2.8256360e-04
3.3609910e-04
3.7925600e-04
4.0756756e-04
4.1764544e-04
4.0727712e-04
3.7551276e-04
3.2262717e-04
2.4992930e-04
1.5948767e-04
5.3856201e-05
-6.4126572e-05
-1.9142633e-04
-3.2478888e-04
-4.6062869e-04
-5.9487096e-04
-7.2280017e-04
-8.3897909e-04
-9.3730347e-04
-1.0112409e-03
-1.0542674e-03
-1.0604721e-03
-1.0252637e-03
-9.4608461e-04
-8.2302598e-04
-6.5923203e-04
-4.6100320e-04
-2.3755120e-04
-4.1494646e-07
2.3739975e-04
4.6245493e-04
6.6196611e-04
8.2481308e-04
9.4236734e-04
1.0090608e-03
1.0226618e-03
9.8426597e-04
8.9804381e-04
7.7081347e-04
6.1150979e-04
4.3060913e-04
2.3954086e-04
5.0102801e-05
-1.2625968e-04
-2.7939203e-04
-4.0125060e-04
-4.8635197e-04
-5.3192967e-04
-5.3788156e-04
-5.0654748e-04
-4.4235634e-04
-3.5138213e-04
-2.4084862e-04
-1.1861925e-04
7.2969304e-06
1.2919791e-04
2.4007836e-04
3.3394324e-04
4.0604583e-04
4.5306257e-04
4.7321594e-04
4.6634304e-04
4.3389480e-04
3.7885035e-04
3.0554484e-04
2.1942077e-04
1.2671431e-04
3.4080473e-05
-5.1837847e-05
-1.2487729e-04
-1.7982008e-04
-2.1281461e-04
-2.2171376e-04
-2.0630336e-04
-1.6839623e-04
-1.1176868e-04
-4.1926825e-05
3.4291529e-05
1.0925693e-04
1.7519728e-04
2.2490980e-04
2.5246666e-04
2.5381120e-04
2.2706282e-04
1.7253458e-04
9.2725958e-05
-7.7031935e-06
-1.2216794e-04
-2.4264420e-04
-3.6034829e-04
-4.6651676e-04
-5.5318135e-04
-6.1384579e-04
-6.4399807e-04
-6.4142098e-04
-6.0629161e-04
-5.4108459e-04
-4.5031115e-04
-3.4013593e-04
-2.1791428e-04
-9.1684520e-05
3.0363125e-05
1.4042461e-04
2.3160606e-04
2.9840496e-04
3.3711802e-04
3.4614716e-04
3.2617410e-04
2.8017185e-04
2.1322977e-04
1.3218964e-04
4.5113291e-05
-3.9381559e-05
-1.1286819e-04
-1.6787713e-04
-1.9860430e-04
-2.0147832e-04
-1.7551299e-04
-1.2239544e-04
-4.6295411e-05
4.6581008e-05
1.4863542e-04
2.5163086e-04
3.4737281e-04
4.2828352e-04
4.8808544e-04
5.2253898e-04
5.2995061e-04
5.1132251e-04
4.7014105e-04
4.1185989e-04
3.4317546e-04
2.7120966e-04
2.0271063e-04
1.4336547e-04
9.7293524e-05
6.6757215e-05
5.2092110e-05
5.1825834e-05
6.2936321e-05
8.1197700e-05
1.0157306e-04
1.1862832e-04
1.2695279e-04
1.2157840e-04
9.8390829e-05
5.4520969e-05
-1.1305319e-05
-9.8492866e-05
-2.0441804e-04
-3.2442111e-04
-4.5197498e-04
-5.7904123e-04
-6.9660820e-04
-7.9538686e-04
-8.6661442e-04
-9.0289058e-04
-8.9895690e-04
-8.5233107e-04
-7.6372234e-04
-6.3717492e-04
-4.7991023e-04
-3.0186411e-04
-1.1500478e-04
6.7548991e-05
2.3273415e-04
3.6895159e-04
4.6734584e-04
5.2274003e-04
5.3411714e-04
5.0460628e-04
4.4100092e-04
3.5289254e-04
2.5154205e-04
1.4863266e-04
5.5053366e-05
-2.0148821e-05
-7.0537173e-05
-9.2706872e-05
-8.6342450e-05
-5.3938733e-05
-2.4659793e-07
6.8471615e-05
1.4527556e-04
2.2336111e-04
2.9675766e-04
3.6083766e-04
4.1259959e-04
4.5071479e-04
4.7535467e-04
4.8784347e-04
4.9020534e-04
4.8468148e-04
4.7328080e-04
4.5740851e-04
4.3760583e-04
4.1343252e-04
3.8351607e-04
3.4576686e-04
2.9772078e-04
2.3693619e-04
1.6135463e-04
6.9519940e-05
-3.9425866e-05
-1.6570443e-04
-3.0848434e-04
-4.6535079e-04
-6.3206121e-04
-8.0266265e-04
-9.6992055e-04
-1.1259626e-03
-1.2630123e-03
-1.3740839e-03
-1.4535373e-03
-1.4974363e-03
-1.5037022e-03
-1.4720839e-03
-1.4039839e-03
-1.3021861e-03
-1.1705352e-03
-1.0136153e-03
-8.3646201e-04
-6.4432436e-04
-4.4247290e-04
-2.3604355e-04
-2.9903882e-05
1.7147168e-04
3.6413177e-04
5.4479219e-04
7.1098523e-04
8.6117901e-04
9.9481499e-04
1.1122195e-03
1.2143747e-03
1.3025674e-03
1.3779626e-03
1.4411674e-03
1.4918658e-03
1.5286050e-03
1.5487927e-03
1.5489302e-03
1.5250695e-03
1.4734483e-03
1.3911684e-03
1.2767450e-03
1.1304801e-03
9.5466890e-04
7.5361350e-04
5.3342929e-04
3.0165069e-04
6.6673545e-05
-1.6291098e-04
-3.7902218e-04
-5.7475583e-04
-7.4492784e-04
-8.8642276e-04
-9.9829619e-04
-1.0816094e-03
-1.1390088e-03
-1.1741025e-03
-1.1907308e-03
-1.1922490e-03
-1.1809423e-03
-1.1576622e-03
-1.1217338e-03
-1.0711503e-03
-1.0030298e-03
-9.1427456e-04
-8.0233934e-04
-6.6599466e-04
-5.0597492e-04
-3.2541364e-04
-1.2999140e-04
7.2249012e-05
2.7142907e-04
4.5666768e-04
6.1713993e-04
7.4323746e-04
8.2767633e-04
8.6638702e-04
8.5903702e-04
8.0908060e-04
7.2330845e-04
6.1110541e-04
4.8371657e-04
3.5347631e-04
2.3282932e-04
1.3320519e-04
6.3912095e-05
3.1203204e-05
3.7642888e-05
8.1850487e-05
1.5864293e-04
2.5954476e-04
3.7359264e-04
4.8833616e-04
5.9093399e-04
6.6925979e-04
7.1295222e-04
7.1434995e-04
6.6924364e-04
5.7736596e-04
4.4254765e-04
2.7249748e-04
7.8204799e-05
-1.2699860e-04
-3.2864665e-04
-5.1251286e-04
-6.6601061e-04
-7.7945732e-04
-8.4704219e-04
-8.6736918e-04
-8.4349836e-04
-7.8247087e-04
-6.9436954e-04
-5.9103488e-04
-4.8460839e-04
-3.8609813e-04
-3.0415058e-04
-2.4417636e-04
-2.0793074e-04
-1.9359870e-04
-1.9636898e-04
-2.0921658e-04
-2.2363326e-04
-2.3049878e-04
-2.2118829e-04
-1.8869364e-04
-1.2857429e-04
-3.9616143e-05
7.5888473e-05
2.1227301e-04
3.6101380e-04
5.1155870e-04
6.5237159e-04
7.7208733e-04
8.6065923e-04
9.1036880e-04
9.1657713e-04
8.7813803e-04
7.9744825e-04
6.8015243e-04
5.3454604e-04
3.7074166e-04
1.9968881e-04
3.2155435e-05
-1.2222525e-04
-2.5576064e-04
-3.6329494e-04
-4.4253882e-04
-4.9408096e-04
-5.2105901e-04
-5.2852164e-04
-5.2256990e-04
-5.0939832e-04
-4.9435865e-04
-4.8116038e-04
-4.7131335e-04
-4.6390250e-04
-4.5574644e-04
-4.4193019e-04
-4.1663342e-04
-3.7412302e-04
-3.0963219e-04
-2.1998845e-04
-1.0420426e-04
3.5975835e-05
1.9580954e-04
3.6765878e-04
5.4144044e-04
7.0537350e-04
8.4695337e-04
9.5407064e-04
1.0161745e-03
1.0253689e-03
9.7732641e-04
8.7191977e-04
7.1348721e-04
5.1068436e-04
2.7591527e-04
2.4388381e-05
-2.2711047e-04
-4.6160607e-04
-6.6335228e-04
-8.1915341e-04
-9.1946813e-04
-9.5918975e-04
-9.3802523e-04
-8.6044043e-04
-7.3518922e-04
-5.7448459e-04
-3.9289421e-04
-2.0605840e-04
-2.9342054e-05
1.2345755e-04
2.4122872e-04
3.1639035e-04
3.4539518e-04
3.2885515e-04
2.7128889e-04
1.8053161e-04
6.6889812e-05
-5.7823101e-05
-1.8123185e-04
-2.9142261e-04
-3.7817386e-04
-4.3411994e-04
-4.5549209e-04
-4.4231932e-04
-3.9810394e-04
-3.2906293e-04
-2.4307554e-04
-1.4850043e-04
-5.3026488e-05
3.7297489e-05
1.1874339e-04
1.9022706e-04
2.5325033e-04
3.1147761e-04
3.6999984e-04
4.3437413e-04
5.0956061e-04
5.9889941e-04
7.0327179e-04
8.2056616e-04
9.4552673e-04
1.0700125e-03
1.1836435e-03
1.2747613e-03
1.3315873e-03
1.3434401e-03
1.3018690e-03
1.2015874e-03
1.0411165e-03
8.2308253e-04
5.5414276e-04
2.4455391e-04
-9.2570091e-05
-4.4223089e-04
-7.8864752e-04
-1.1163709e-03
-1.4112925e-03
-1.6614438e-03
-1.8575938e-03
-1.9937784e-03
-2.0677446e-03
-2.0810880e-03
-2.0389350e-03
-1.9491934e-03
-1.8214775e-03
-1.6658620e-03
-1.4916438e-03
-1.3062798e-03
-1.1146428e-03
-9.1869115e-04
-7.1759869e-04
-5.0833725e-04
-2.8664163e-04
-4.8233543e-05
2.0985995e-04
4.8807767e-04
7.8336764e-04
1.0886599e-03
1.3928743e-03
1.6814935e-03
1.9376522e-03
2.1436214e-03
2.2825262e-03
2.3401082e-03
2.3063379e-03
2.1766875e-03
1.9529033e-03
1.6431739e-03
1.2616639e-03
8.2745562e-04
3.6300662e-04
-1.0771429e-04
-5.6119908e-04
-9.7623836e-04
-1.3353903e-03
-1.6259014e-03
-1.8399953e-03
-1.9745706e-03
-2.0306455e-03
-2.0128748e-03
-1.9289885e-03
-1.7889959e-03
-1.6042778e-03
-1.3866944e-03
-1.1477857e-03
-8.9811391e-04
-6.4679004e-04
-4.0121048e-04
-1.6701067e-04
5.1789129e-05
2.5249382e-04
4.3336064e-04
5.9320975e-04
7.3108470e-04
8.4602131e-04
9.3696007e-04
1.0028074e-03
1.0426253e-03
1.0559134e-03
1.0429324e-03
1.0050023e-03
9.4469478e-04
8.6585646e-04
7.7343478e-04
6.7313041e-04
5.7092891e-04
4.7257299e-04
3.8303288e-04
3.0602969e-04
2.4366726e-04
1.9622157e-04
1.6212138e-04
1.3813059e-04
1.1972125e-04
1.0160797e-04
7.8396046e-05
4.5272251e-05
-1.3696929e-06
-6.3553293e-05
-1.4160259e-04
-2.3404644e-04
-3.3753196e-04
-4.4692745e-04
-5.5567375e-04
-6.5635070e-04
-7.4138226e-04
-8.0378193e-04
-8.3784449e-04
-8.3970704e-04
-8.0771878e-04
-7.4257597e-04
-6.4720858e-04
-5.2644580e-04
-3.8652396e-04
-2.3451341e-04
-7.7733699e-05
7.6786186e-05
2.2275208e-04
3.5491071e-04
4.6919746e-04
5.6273900e-04
6.3375048e-04
6.8137422e-04
7.0550040e-04
7.0660389e-04
6.8562774e-04
6.4393727e-04
5.8335086e-04
5.0622818e-04
4.1557416e-04
3.1510968e-04
2.0926371e-04
1.0305208e-04
1.8198279e-06
-8.9155545e-05
-1.6517419e-04
-2.2268278e-04
-2.5983745e-04
-2.7702185e-04
-2.7708843e-04
-2.6498935e-04
-2.4690274e-04
-2.2920199e-04
-2.1747601e-04
-2.1573796e-04
-2.2592291e-04
-2.4772049e-04
-2.7873165e-04
-3.1489557e-04
-3.5110669e-04
-3.8192693e-04
-4.0229123e-04
-4.0811341e-04
-3.9672815e-04
-3.6714602e-04
-3.2013192e-04
-2.5813305e-04
-1.8508423e-04
-1.0611377e-04
-2.7168818e-05
4.5425698e-05
1.0546270e-04
1.4738764e-04
1.6684359e-04
1.6118116e-04
1.2987536e-04
7.4792009e-05
2.5617401e-07
-8.7108946e-05
-1.7878444e-04
-2.6498633e-04
-3.3548167e-04
-3.8051818e-04
-3.9177471e-04
-3.6323115e-04
-2.9185906e-04
-1.7804688e-04
-2.5697965e-05
1.5796910e-04
3.6283509e-04
5.7652373e-04
7.8530979e-04
9.7522728e-04
1.1332545e-03
1.2484369e-03
1.3128116e-03
1.3220259e-03
1.2755911e-03
1.1767687e-03
1.0321317e-03
8.5087354e-04
6.4395298e-04
4.2316804e-04
2.0025092e-04
-1.3936503e-05
-2.1004810e-04
-3.8070624e-04
-5.2075161e-04
-6.2730099e-04
-6.9963994e-04
-7.3898602e-04
-7.4815997e-04
-7.3120040e-04
-6.9295583e-04
-6.3868519e-04
-5.7369238e-04
-5.0301170e-04
-4.3115287e-04
-3.6190975e-04
-2.9823424e-04
-2.4217561e-04
-1.9488281e-04
-1.5666456e-04
-1.2709850e-04
-1.0517768e-04
-8.9480427e-05
-7.8348045e-05
