7.5525481e-02
7.6705312e-02
7.8956448e-02
8.2960230e-02
8.8807589e-02
9.5821644e-02
1.0252414e-01
1.0674921e-01
1.0588664e-01
9.7219084e-02
7.8305245e-02
4.7356097e-02
3.5543483e-03
-5.2722151e-02
-1.1979878e-01
-1.9473679e-01
-2.7350024e-01
-3.5124415e-01
-4.2269701e-01
-4.8260020e-01
-5.2616132e-01
-5.4947716e-01
-5.4988426e-01
-5.2619974e-01
-4.7882490e-01
-4.0969874e-01
-3.2210677e-01
-2.2036955e-01
-1.0945072e-01
5.4676934e-03
1.1939436e-01
2.2788058e-01
3.2728507e-01
4.1493466e-01
4.8917609e-01
5.4932452e-01
5.9552260e-01
6.2853162e-01
6.4948084e-01
6.5960328e-01
6.5998692e-01
6.5136940e-01
6.3400141e-01
6.0759697e-01
5.7137849e-01
5.2421182e-01
4.6481493e-01
3.9201557e-01
3.0502844e-01
2.0372051e-01
8.8834434e-02
-3.7856279e-02
-1.7348091e-01
-3.1410717e-01
-4.5488287e-01
-5.9027755e-01
-7.1440756e-01
-8.2141952e-01
-9.0590080e-01
-9.6328162e-01
-9.9019326e-01
-9.8474834e-01
-9.4671502e-01
-8.7756522e-01
-7.8038968e-01
-6.5968587e-01
-5.2103733e-01
-3.7071341e-01
-2.1522523e-01
-6.0877505e-02
8.6643906e-02
2.2261074e-01
3.4348490e-01
4.4702327e-01
5.3224858e-01
5.9929833e-01
6.4917968e-01
6.8346974e-01
7.0400464e-01
7.1259893e-01
7.1082766e-01
6.9988874e-01
6.8054704e-01
6.5314885e-01
6.1768835e-01
5.7390680e-01
5.2140672e-01
4.5976858e-01
3.8866318e-01
3.0795811e-01
2.1781890e-01
1.1880478e-01
1.1956940e-02
-1.0112481e-01
-2.1822356e-01
-3.3647525e-01
-4.5238148e-01
-5.6188243e-01
-6.6050536e-01
-7.4359622e-01
-8.0662944e-01
-8.4557513e-01
-8.5728840e-01
-8.3987478e-01
-7.9298234e-01
-7.1797626e-01
-6.1796482e-01
-4.9766299e-01
-3.6309876e-01
-2.2118382e-01
-7.9185977e-02
5.5846186e-02
1.7764746e-01
2.8122847e-01
3.6324232e-01
4.2218550e-01
4.5841367e-01
4.7397639e-01
4.7229742e-01
4.5774416e-01
4.3513824e-01
4.0925849e-01
3.8438075e-01
3.6389021e-01
3.4999317e-01
3.4354607e-01
3.4401014e-01
3.4953023e-01
3.5712775e-01
3.6299112e-01
3.6284198e-01
3.5235093e-01
3.2757197e-01
2.8536046e-01
2.2373899e-01
1.4217817e-01
4.1766195e-02
-7.4750029e-02
-2.0305863e-01
-3.3750640e-01
-4.7143816e-01
-5.9763015e-01
-7.0878860e-01
-7.9807724e-01
-8.5963162e-01
-8.8901601e-01
-8.8358072e-01
-8.4268455e-01
-7.6775766e-01
-6.6219592e-01
-5.3109533e-01
-3.8085337e-01
-2.1867807e-01
-5.2053187e-02
1.1178876e-01
2.6633580e-01
4.0616514e-01
5.2718147e-01
6.2671296e-01
7.0347056e-01
7.5739082e-01
7.8939474e-01
8.0110179e-01
7.9453869e-01
7.7187479e-01
7.3520613e-01
6.8640062e-01
6.2700915e-01
5.5824078e-01
4.8099532e-01
3.9594293e-01
3.0363830e-01
2.0465598e-01
9.9733357e-02
-1.0092334e-02
-1.2336808e-01
-2.3814774e-01
-3.5196982e-01
-4.6190084e-01
-5.6464578e-01
-6.5671901e-01
-7.3466277e-01
-7.9529403e-01
-8.3595429e-01
-8.5473278e-01
-8.5063574e-01
-8.2368151e-01
-7.7491090e-01
-7.0631180e-01
-6.2066570e-01
-5.2133299e-01
-4.1200144e-01
-2.9642914e-01
-1.7821426e-01
-6.0618646e-02
5.3538379e-02
1.6191386e-01
2.6261448e-01
3.5413173e-01
4.3526640e-01
5.0506639e-01
5.6279185e-01
6.0790963e-01
6.4010965e-01
6.5933170e-01
6.6579050e-01
6.5998849e-01
6.4270733e-01
6.1497141e-01
5.7797996e-01
5.3301065e-01
4.8130585e-01
4.2395953e-01
3.6182535e-01
2.9546474e-01
2.2514782e-01
1.5091230e-01
7.2677265e-02
-9.5989402e-03
-9.5733518e-02
-1.8512868e-01
-2.7660235e-01
-3.6826961e-01
-4.5750335e-01
-5.4099543e-01
-6.1492484e-01
-6.7521913e-01
-7.1787602e-01
-7.3930128e-01
-7.3662099e-01
-7.0793745e-01
-6.5251083e-01
-5.7085980e-01
-4.6478391e-01
-3.3731843e-01
-1.9263678e-01
-3.5913424e-02
1.2684649e-01
2.8901220e-01
4.4357249e-01
5.8342544e-01
7.0171057e-01
7.9217222e-01
8.4953192e-01
8.6983968e-01
8.5077063e-01
7.9183679e-01
6.9449206e-01
5.6212055e-01
3.9990977e-01
2.1461855e-01
1.4255556e-02
-1.9231141e-01
-3.9579189e-01
-5.8693141e-01
-7.5696980e-01
-8.9807781e-01
-1.0037494e+00
-1.0691255e+00
-1.0912246e+00
-1.0690636e+00
-1.0036602e+00
-8.9792020e-01
-7.5642040e-01
-5.8510667e-01
-3.9093246e-01
-1.8146827e-01
3.5487089e-02
2.5226622e-01
4.6164129e-01
6.5706487e-01
8.3283643e-01
9.8419690e-01
1.1073608e+00
1.1994989e+00
1.2586852e+00
1.2838198e+00
1.2745409e+00
1.2311365e+00
1.1544671e+00
1.0459139e+00
9.0735716e-01
7.4119613e-01
5.5040719e-01
3.3863407e-01
1.1029091e-01
-1.2934857e-01
-3.7410644e-01
-6.1693063e-01
-8.5002285e-01
-1.0650766e+00
-1.2536226e+00
-1.4074666e+00
-1.5191889e+00
-1.5826718e+00
-1.5936051e+00
-1.5499245e+00
-1.4521310e+00
-1.3034525e+00
-1.1098133e+00
-8.7959695e-01
-6.2320230e-01
-3.5241765e-01
-7.9660169e-02
1.8285379e-01
4.2393167e-01
6.3414426e-01
8.0641266e-01
9.3639019e-01
1.0226099e+00
1.0663933e+00
1.0715390e+00
1.0438297e+00
9.9041054e-01
9.1910252e-01
8.3771395e-01
7.5340785e-01
6.7217211e-01
5.9842695e-01
5.3478986e-01
4.8200478e-01
4.3902900e-01
4.0326119e-01
3.7088665e-01
3.3731075e-01
2.9764718e-01
2.4722406e-01
1.8207090e-01
9.9352967e-02
-2.2755250e-03
-1.2242322e-01
-2.5883864e-01
-4.0742827e-01
-5.6242464e-01
-7.1670472e-01
-8.6224630e-01
-9.9069568e-01
-1.0940046e+00
-1.1650826e+00
-1.1984042e+00
-1.1905095e+00
-1.1403432e+00
-1.0493917e+00
-9.2159662e-01
-7.6305405e-01
-5.8153104e-01
-3.8585249e-01
-1.8522253e-01
1.1452413e-02
1.9617563e-01
3.6235410e-01
5.0513598e-01
6.2157182e-01
7.1059916e-01
7.7286736e-01
8.1043158e-01
8.2635301e-01
8.2424883e-01
8.0783775e-01
7.8052621e-01
7.4507367e-01
7.0336610e-01
6.5631408e-01
6.0387871e-01
5.4521610e-01
4.7892175e-01
4.0334959e-01
3.1697658e-01
2.1878038e-01
1.0859326e-01
-1.2607723e-02
-1.4251563e-01
-2.7744829e-01
-4.1246338e-01
-5.4163366e-01
-6.5845965e-01
-7.5637685e-01
-8.2930188e-01
-8.7215750e-01
-8.8132143e-01
-8.5495651e-01
-7.9319549e-01
-6.9816909e-01
-5.7387935e-01
-4.2593171e-01
-2.6115125e-01
-8.7118536e-02
8.8333739e-02
2.5762060e-01
4.1386118e-01
5.5125757e-01
6.6536978e-01
7.5326891e-01
8.1356011e-01
8.4627733e-01
8.5266431e-01
8.3486857e-01
7.9558581e-01
7.3769826e-01
6.6395112e-01
5.7670487e-01
4.7779121e-01
3.6848787e-01
2.4961440e-01
1.2173672e-01
-1.4547706e-02
-1.5828688e-01
-3.0786437e-01
-4.6075239e-01
-6.1336917e-01
-7.6107008e-01
-8.9828813e-01
-1.0188234e+00
-1.1162616e+00
-1.1844848e+00
-1.2182215e+00
-1.2135781e+00
-1.1684898e+00
-1.0830406e+00
-9.5960808e-01
-8.0281456e-01
-6.1927828e-01
-4.1718159e-01
-2.0569000e-01
5.7246183e-03
2.0798930e-01
3.9309031e-01
5.5462070e-01
6.8816246e-01
7.9147265e-01
8.6446684e-01
9.0901490e-01
9.2858040e-01
9.2774619e-01
9.1167475e-01
8.8555287e-01
8.5406846e-01
8.2096267e-01
7.8869487e-01
7.5824970e-01
7.2910297e-01
6.9934862e-01
6.6597419e-01
6.2525891e-01
5.7325670e-01
5.0631671e-01
4.2158809e-01
3.1745562e-01
1.9386011e-01
5.2469785e-02
-1.0331465e-01
-2.6852245e-01
-4.3692716e-01
-6.0148123e-01
-7.5482536e-01
-8.8981844e-01
-1.0000341e+00
-1.0801795e+00
-1.1264076e+00
-1.1365108e+00
-1.1099964e+00
-1.0480549e+00
-9.5343620e-01
-8.3025303e-01
-6.8373137e-01
-5.1992980e-01
-3.4544568e-01
-1.6712221e-01
8.2347834e-03
1.7412477e-01
3.2460041e-01
4.5448967e-01
5.5958514e-01
6.3679295e-01
6.8423379e-01
7.0129007e-01
6.8859655e-01
6.4797733e-01
5.8233673e-01
4.9551362e-01
3.9210796e-01
2.7728547e-01
1.5656372e-01
3.5581028e-02
-8.0148981e-02
-1.8549040e-01
-2.7593320e-01
-3.4781986e-01
-3.9853247e-01
-4.2662413e-01
-4.3188109e-01
-4.1530616e-01
-3.7901963e-01
-3.2608192e-01
-2.6025112e-01
-1.8569677e-01
-1.0669535e-01
-2.7333743e-02
4.8756620e-02
1.1861739e-01
1.8011995e-01
2.3205240e-01
2.7413035e-01
3.0692878e-01
3.3173701e-01
3.5034730e-01
3.6479534e-01
3.7707813e-01
3.8887765e-01
4.0131901e-01
4.1478769e-01
4.2882441e-01
4.4210781e-01
4.5252694e-01
4.5733731e-01
4.5338682e-01
4.3739295e-01
4.0625130e-01
3.5735605e-01
2.8891213e-01
2.0021664e-01
9.1883617e-02
-3.4013691e-02
-1.7390669e-01
-3.2281799e-01
-4.7457746e-01
-6.2216195e-01
-7.5813844e-01
-8.7517615e-01
-9.6658242e-01
-1.0268121e+00
-1.0519036e+00
-1.0398040e+00
-9.9055625e-01
-9.0633459e-01
-7.9132195e-01
-6.5143368e-01
-4.9390294e-01
-3.2675640e-01
-1.5822271e-01
3.8720123e-03
1.5266231e-01
2.8269976e-01
3.9026489e-01
4.7351094e-01
5.3243623e-01
5.6870038e-01
5.8531361e-01
5.8623764e-01
5.7594146e-01
5.5895587e-01
5.3946572e-01
5.2096934e-01
5.0602346e-01
4.9608313e-01
4.9143951e-01
4.9125272e-01
4.9367144e-01
4.9602667e-01
4.9508475e-01
4.8734250e-01
4.6934541e-01
4.3800699e-01
3.9090631e-01
3.2654069e-01
2.4451443e-01
1.4564980e-01
3.2013051e-02
-9.3146001e-02
-2.2553690e-01
-3.6004640e-01
-4.9102114e-01
-6.1260199e-01
-7.1909269e-01
-8.0533873e-01
-8.6708776e-01
-9.0130064e-01
-9.0638378e-01
-8.8231833e-01
-8.3066888e-01
-7.5446421e-01
-6.5795431e-01
-5.4626226e-01
-4.2496481e-01
-2.9964722e-01
-1.7548223e-01
-5.6878637e-02
5.2765927e-02
1.5118797e-01
2.3725322e-01
3.1083711e-01
3.7261788e-01
4.2381745e-01
4.6592542e-01
5.0043673e-01
5.2862622e-01
5.5137695e-01
5.6907260e-01
5.8155963e-01
5.8817991e-01
5.8787015e-01
5.7931822e-01
5.6115784e-01
5.3217575e-01
4.9150234e-01
4.3876088e-01
3.7416000e-01
2.9852452e-01
2.1326986e-01
1.2033213e-01
2.2069645e-02
-7.8849766e-02
-1.7956483e-01
-2.7713406e-01
-3.6864373e-01
-4.5131098e-01
-5.2258433e-01
-5.8024239e-01
-6.2248901e-01
-6.4803932e-01
-6.5619031e-01
-6.4686977e-01
-6.2065717e-01
-5.7876961e-01
-5.2300658e-01
-4.5565060e-01
-3.7932714e-01
-2.9683463e-01
-2.1096164e-01
-1.2431037e-01
-3.9145510e-02
4.2715581e-02
1.1995840e-01
1.9176517e-01
2.5774769e-01
3.1782910e-01
3.7209279e-01
4.2062096e-01
4.6334596e-01
4.9993437e-01
5.2971890e-01
5.5168643e-01
5.6452446e-01
5.6672165e-01
5.5671255e-01
5.3305220e-01
4.9460290e-01
4.4071374e-01
3.7137418e-01
2.8732617e-01
1.9012603e-01
8.2152417e-02
-3.3440157e-02
-1.5282202e-01
-2.7164134e-01
-3.8522480e-01
-4.8881892e-01
-5.7786194e-01
-6.4827141e-01
-6.9672617e-01
-7.2091612e-01
-7.1973101e-01
-6.9336396e-01
-6.4331368e-01
-5.7228180e-01
-4.8397375e-01
-3.8282185e-01
-2.7365746e-01
-1.6136486e-01
-5.0551068e-02
5.4737621e-02
1.5123005e-01
2.3656323e-01
3.0933056e-01
3.6904797e-01
4.1604591e-01
4.5129982e-01
4.7621707e-01
4.9240229e-01
5.0142535e-01
5.0461472e-01
5.0289569e-01
4.9668689e-01
4.8586194e-01
4.6977703e-01
4.4736096e-01
4.1726086e-01
3.7803246e-01
3.2835919e-01
2.6727970e-01
1.9440125e-01
1.1007683e-01
1.5526600e-02
-8.7111028e-02
-1.9480858e-01
-3.0376364e-01
-4.0959647e-01
-5.0762067e-01
-5.9316691e-01
-6.6192987e-01
-7.1030421e-01
-7.3567412e-01
-7.3662532e-01
-7.1305682e-01
-6.6618191e-01
-5.9842276e-01
-5.1321507e-01
-4.1474724e-01
-3.0766081e-01
-1.9673833e-01
-8.6602541e-02
1.8552055e-02
1.1517793e-01
2.0053144e-01
2.7276251e-01
3.3093812e-01
3.7500432e-01
4.0569353e-01
4.2438459e-01
4.3292596e-01
4.3343683e-01
4.2810509e-01
4.1900107e-01
4.0792213e-01
3.9627629e-01
3.8500610e-01
3.7454991e-01
3.6483659e-01
3.5531216e-01
3.4499934e-01
3.3259155e-01
3.1657871e-01
2.9539707e-01
2.6758865e-01
2.3195351e-01
1.8767946e-01
1.3443884e-01
7.2447869e-02
2.4900373e-03
-7.4091875e-02
-1.5542984e-01
-2.3918874e-01
-3.2265058e-01
-4.0282899e-01
-4.7661689e-01
-5.4096541e-01
-5.9308502e-01
-6.3065182e-01
-6.5199714e-01
-6.5625761e-01
-6.4346390e-01
-6.1455100e-01
-5.7128101e-01
-5.1608229e-01
-4.5182260e-01
-3.8154453e-01
-3.0819468e-01
-2.3437525e-01
-1.6214058e-01
-9.2855771e-02
-2.7130656e-02
3.5161009e-02
9.4774536e-02
1.5290739e-01
2.1095205e-01
2.7021735e-01
3.3165137e-01
3.9559893e-01
4.6162303e-01
5.2841266e-01
5.9379024e-01
6.5482049e-01
7.0801233e-01
7.4959504e-01
7.7584206e-01
7.8340941e-01
7.6965476e-01
7.3290619e-01
6.7265701e-01
5.8967067e-01
4.8598937e-01
3.6484854e-01
2.3050695e-01
8.8006962e-02
-5.7117230e-02
-1.9916227e-01
-3.3258686e-01
-4.5233071e-01
-5.5410395e-01
-6.3463150e-01
-6.9183715e-01
-7.2495215e-01
-7.3453512e-01
-7.2239513e-01
-6.9141710e-01
-6.4529928e-01
-5.8822303e-01
-5.2448540e-01
-4.5813153e-01
-3.9262591e-01
-3.3059749e-01
-2.7368483e-01
-2.2249558e-01
-1.7668086e-01
-1.3511101e-01
-9.6126961e-02
-5.7833620e-02
-1.8398377e-02
2.3680392e-02
6.9364461e-02
1.1894622e-01
1.7200468e-01
2.2743896e-01
2.8356103e-01
3.3822595e-01
3.8898130e-01
4.3322415e-01
4.6835896e-01
4.9195283e-01
5.0188491e-01
4.9648702e-01
4.7467392e-01
4.3606070e-01
3.8106242e-01
3.1096732e-01
2.2797260e-01
1.3517098e-01
3.6475970e-02
-6.3523593e-02
-1.5978328e-01
-2.4709126e-01
-3.2040873e-01
-3.7523670e-01
-4.0797758e-01
-4.1625604e-01
-3.9916355e-01
-3.5739341e-01
-2.9324243e-01
-2.1047044e-01
-1.1402707e-01
-9.6717333e-03
9.6474552e-02
1.9839869e-01
2.9063781e-01
3.6865055e-01
4.2908431e-01
4.6991816e-01
4.9047468e-01
4.9130699e-01
4.7398012e-01
4.4077625e-01
3.9436140e-01
3.3745391e-01
2.7253225e-01
2.0161206e-01
1.2611247e-01
4.6822299e-02
-3.6032245e-02
-1.2262579e-01
-2.1329417e-01
-3.0824220e-01
-4.0723271e-01
-5.0929715e-01
-6.1251033e-01
-7.1386869e-01
-8.0930176e-01
-8.9383110e-01
-9.6187193e-01
-1.0076535e+00
-1.0257196e+00
-1.0114590e+00
-9.6161231e-01
-8.7469761e-01
-7.5130702e-01
-5.9423391e-01
-4.0841093e-01
-2.0065842e-01
2.0736580e-02
2.4657199e-01
4.6735971e-01
6.7397038e-01
8.5823136e-01
1.0134237e+00
1.1346391e+00
1.2189777e+00
1.2655806e+00
1.2755070e+00
1.2514740e+00
1.1974889e+00
1.1184119e+00
1.0194919e+00
9.0591919e-01
7.8243714e-01
6.5304980e-01
5.2084969e-01
3.8797541e-01
2.5569184e-01
1.2457174e-01
-5.2529872e-03
-1.3380730e-01
-2.6099442e-01
-3.8635690e-01
-5.0890544e-01
-6.2703466e-01
-7.3853533e-01
-8.4069974e-01
-9.3050480e-01
-1.0048473e+00
-1.0608009e+00
-1.0958646e+00
-1.1081740e+00
-1.0966550e+00
-1.0611036e+00
-1.0021883e+00
-9.2137990e-01
-8.2082387e-01
-7.0317352e-01
-5.7140653e-01
-4.2864641e-01
-2.7800836e-01
-1.2248419e-01
3.5124997e-02
1.9222463e-01
3.4639250e-01
4.9530372e-01
6.3663290e-01
7.6795722e-01
8.8668272e-01
9.9001033e-01
1.0749519e+00
1.1384026e+00
1.1772703e+00
1.1886602e+00
1.1701015e+00
1.1197990e+00
1.0368856e+00
9.2165119e-01
7.7571997e-01
6.0215588e-01
4.0547667e-01
1.9156802e-01
-3.2502314e-02
-2.5876203e-01
-4.7868934e-01
-6.8362867e-01
-8.6524741e-01
-1.0160107e+00
-1.1296449e+00
-1.2015541e+00
-1.2291505e+00
-1.2120584e+00
-1.1521628e+00
-1.0534854e+00
-9.2189202e-01
-7.6465230e-01
-5.8989110e-01
-4.0598542e-01
-2.2096740e-01
-4.1994981e-02
1.2505587e-01
2.7583769e-01
4.0759831e-01
5.1907354e-01
6.1023466e-01
6.8193653e-01
7.3552249e-01
7.7244341e-01
7.9394220e-01
8.0084208e-01
7.9345985e-01
7.7164640e-01
7.3493839e-01
6.8278960e-01
6.1483879e-01
5.3116779e-01
4.3250877e-01
3.2037319e-01
1.9709155e-01
6.5767744e-02
-6.9840043e-02
-2.0549662e-01
-3.3670918e-01
-4.5897045e-01
-5.6800520e-01
-6.5999993e-01
-7.3179881e-01
-7.8105453e-01
-8.0632977e-01
-8.0715032e-01
-7.8401391e-01
-7.3835804e-01
-6.7248695e-01
-5.8945510e-01
-4.9290534e-01
-3.8686284e-01
-2.7549301e-01
-1.6283910e-01
-5.2563180e-02
5.2281507e-02
1.4941760e-01
2.3742602e-01
3.1572993e-01
3.8448103e-01
4.4436348e-01
4.9634247e-01
5.4139127e-01
5.8023196e-01
6.1312148e-01
6.3970793e-01
6.5897302e-01
6.6926741e-01
6.6843611e-01
6.5402267e-01
6.2353480e-01
5.7474817e-01
5.0602092e-01
4.1658768e-01
3.0680161e-01
1.7829687e-01
3.4050949e-02
-1.2166414e-01
-2.8344211e-01
-4.4500354e-01
-5.9953832e-01
-7.4010236e-01
-8.6003770e-01
-9.5338349e-01
-1.0152480e+00
-1.0421167e+00
-1.0320787e+00
-9.8496040e-01
-9.0235919e-01
-7.8757503e-01
-6.4543790e-01
-4.8203648e-01
-3.0436135e-01
-1.1988736e-01
6.3872076e-02
2.3980334e-01
4.0158922e-01
5.4403308e-01
6.6328553e-01
7.5695743e-01
8.2411592e-01
8.6517206e-01
8.8167958e-01
8.7607045e-01
8.5135450e-01
8.1080797e-01
7.5767234e-01
6.9488427e-01
6.2485923e-01
5.4935192e-01
4.6941152e-01
3.8543792e-01
2.9732919e-01
2.0469521e-01
1.0710387e-01
4.3251265e-03
-1.0345580e-01
-2.1547540e-01
-3.3028917e-01
-4.4573300e-01
-5.5894871e-01
-6.6647198e-01
-7.6437964e-01
-8.4849271e-01
-9.1462967e-01
-9.5889943e-01
-9.7801647e-01
-9.6961313e-01
-9.3251992e-01
-8.6698230e-01
-7.7478180e-01
-6.5923251e-01
-5.2503437e-01
-3.7798361e-01
-2.2456331e-01
-7.1456676e-02
7.4963556e-02
2.0911392e-01
3.2659718e-01
4.2447920e-01
5.0142463e-01
5.5768793e-01
5.9496958e-01
6.1615553e-01
6.2496379e-01
6.2552844e-01
6.2195795e-01
6.1790819e-01
6.1620937e-01
6.1858023e-01
6.2545327e-01
6.3592377e-01
6.4782386e-01
6.5791236e-01
6.6216226e-01
6.5612258e-01
6.3532730e-01
5.9572168e-01
5.3407355e-01
4.4833646e-01
3.3793425e-01
2.0394290e-01
4.9153800e-02
-1.2198805e-01
-3.0356997e-01
-4.8851304e-01
-6.6897230e-01
-8.3681081e-01
-9.8411571e-01
-1.1037209e+00
-1.1896990e+00
-1.2377853e+00
-1.2456995e+00
-1.2133335e+00
-1.1427833e+00
-1.0382157e+00
-9.0557225e-01
-7.5213311e-01
-5.8597008e-01
-4.1533566e-01
-2.4804015e-01
-9.0873178e-02
5.0876715e-02
1.7375634e-01
2.7629917e-01
3.5897594e-01
4.2395162e-01
4.7468068e-01
5.1539160e-01
5.5052224e-01
5.8416939e-01
6.1960900e-01
6.5893048e-01
7.0281051e-01
7.5043441e-01
7.9955895e-01
8.4670188e-01
8.8743804e-01
9.1677777e-01
9.2959901e-01
9.2110051e-01
8.8724177e-01
8.2513571e-01
7.3336352e-01
6.1218562e-01
4.6362969e-01
2.9144594e-01
1.0093220e-01
-1.0135532e-01
-3.0797795e-01
-5.1104245e-01
-7.0264501e-01
-8.7530069e-01
-1.0223353e+00
-1.1382233e+00
-1.2188596e+00
-1.2617513e+00
-1.2661174e+00
-1.2328854e+00
-1.1645783e+00
-1.0650974e+00
-9.3941571e-01
-7.9321359e-01
-6.3248832e-01
-4.6317669e-01
-2.9082265e-01
-1.2031830e-01
4.4263173e-02
1.9973450e-01
3.4376539e-01
4.7477266e-01
5.9175333e-01
6.9408921e-01
7.8135225e-01
8.5313563e-01
9.0892934e-01
9.4805039e-01
9.6963085e-01
9.7266177e-01
9.5608747e-01
9.1894124e-01
8.6050930e-01
7.8050561e-01
6.7923734e-01
5.5774249e-01
4.1788562e-01
2.6240408e-01
9.4901190e-02
-8.0215058e-02
-2.5784839e-01
-4.3238505e-01
-5.9791603e-01
-7.4850427e-01
-8.7848535e-01
-9.8278439e-01
-1.0572247e+00
-1.0987991e+00
-1.1058724e+00
-1.0782893e+00
-1.0173711e+00
-9.2579920e-01
-8.0740100e-01
-6.6686462e-01
-5.0942031e-01
-3.4052618e-01
-1.6559157e-01
1.0239361e-02
1.8223308e-01
3.4614290e-01
4.9822747e-01
6.3523075e-01
7.5434692e-01
8.5319340e-01
9.2980954e-01
9.8268766e-01
1.0108313e+00
1.0138249e+00
9.9189450e-01
9.4593839e-01
8.7751454e-01
7.8877882e-01
6.8237719e-01
5.6130210e-01
4.2873100e-01
2.8787147e-01
1.4183948e-01
-6.4081333e-03
-1.5407879e-01
-2.9849454e-01
-4.3700941e-01
-5.6692399e-01
-6.8542874e-01
-7.8960059e-01
-8.7646561e-01
-9.4312614e-01
-9.8693890e-01
-1.0057225e+00
-9.9796836e-01
-9.6302803e-01
-9.0125072e-01
-8.1405094e-01
-7.0389399e-01
-5.7419741e-01
-4.2915747e-01
-2.7351835e-01
-1.1230785e-01
4.9435313e-02
2.0691767e-01
3.5580819e-01
4.9239661e-01
6.1367911e-01
7.1736647e-01
8.0182198e-01
8.6594820e-01
9.0904884e-01
9.3069419e-01
9.3061474e-01
9.0864115e-01
8.6470001e-01
7.9886587e-01
7.1146181e-01
6.0319467e-01
4.7530638e-01
3.2971937e-01
1.6915308e-01
-2.8089356e-03
-1.8171722e-01
-3.6232928e-01
-5.3875979e-01
-7.0470375e-01
-8.5372118e-01
-9.7956592e-01
-1.0765374e+00
-1.1398320e+00
-1.1658698e+00
-1.1525722e+00
-1.0995655e+00
-1.0082856e+00
-8.8196208e-01
-7.2546998e-01
-5.4504736e-01
-3.4790109e-01
-1.4173976e-01
6.5714568e-02
2.6718336e-01
4.5621428e-01
6.2746065e-01
7.7684521e-01
9.0161102e-01
1.0002738e+00
1.0724961e+00
1.1189055e+00
1.1408750e+00
1.1402818e+00
1.1192611e+00
1.0799695e+00
1.0243767e+00
9.5410251e-01
8.7031726e-01
7.7372015e-01
6.6460409e-01
5.4300202e-01
4.0889714e-01
2.6247059e-01
1.0435659e-01
-6.4124293e-02
-2.4078020e-01
-4.2243610e-01
-6.0491699e-01
-7.8314271e-01
-9.5134049e-01
-1.1033674e+00
-1.2331199e+00
-1.3349951e+00
-1.4043621e+00
-1.4379944e+00
-1.4344150e+00
-1.3941057e+00
-1.3195434e+00
-1.2150394e+00
-1.0863821e+00
-9.4031154e-01
-7.8387801e-01
-6.2376329e-01
-4.6564723e-01
-3.1370334e-01
-1.7029067e-01
-3.5885240e-02
9.0738898e-02
2.1210315e-01
3.3144772e-01
4.5206201e-01
5.7660920e-01
7.0652940e-01
8.4159196e-01
9.7964885e-01
1.1166196e+00
1.2467161e+00
1.3628892e+00
1.4574580e+00
1.5228556e+00
1.5524125e+00
1.5410897e+00
1.4860722e+00
1.3871501e+00
1.2468334e+00
1.0701842e+00
8.6438322e-01
6.3808963e-01
4.0067916e-01
1.6146139e-01
-7.1030005e-02
-2.8959956e-01
-4.8875726e-01
-6.6487017e-01
-8.1610422e-01
-9.4218308e-01
-1.0440061e+00
-1.1231780e+00
-1.1815091e+00
-1.2205499e+00
-1.2412234e+00
-1.2436071e+00
-1.2269023e+00
-1.1895978e+00
-1.1298099e+00
-1.0457507e+00
-9.3625908e-01
-8.0131447e-01
-6.4245489e-01
-4.6302998e-01
-2.6824232e-01
-6.4959081e-02
1.3869023e-01
3.3388204e-01
5.1176231e-01
6.6412713e-01
7.8404731e-01
8.6637695e-01
9.0810214e-01
9.0850490e-01
8.6913841e-01
7.9363017e-01
6.8734782e-01
5.5697401e-01
4.1003929e-01
2.5445573e-01
9.8081296e-02
-5.1667425e-02
-1.8814587e-01
-3.0575224e-01
-4.0013585e-01
-4.6833927e-01
-5.0886658e-01
-5.2166968e-01
-5.0804666e-01
-4.7045345e-01
-4.1223870e-01
-3.3732258e-01
-2.4985090e-01
-1.5386319e-01
-5.3013318e-02
4.9625005e-02
1.5164751e-01
2.5129738e-01
3.4734208e-01
4.3887374e-01
5.2506896e-01
6.0494772e-01
6.7717006e-01
7.3990143e-01
7.9076759e-01
8.2690715e-01
8.4511875e-01
8.4208943e-01
8.1468360e-01
7.6026702e-01
6.7703794e-01
5.6433670e-01
4.2290313e-01
2.5505215e-01
6.4741341e-02
-1.4248595e-01
-3.5968524e-01
-5.7881100e-01
-7.9110763e-01
-9.8756200e-01
-1.1593887e+00
-1.2985219e+00
-1.3980889e+00
-1.4528392e+00
-1.4595016e+00
-1.4170431e+00
-1.3268048e+00
-1.1924951e+00
-1.0200275e+00
-8.1720187e-01
-5.9323985e-01
-3.5820325e-01
-1.2234168e-01
1.0457264e-01
3.1386098e-01
4.9844955e-01
6.5323487e-01
7.7527831e-01
8.6382233e-01
9.2013610e-01
9.4721180e-01
9.4934482e-01
9.3164124e-01
8.9950197e-01
8.5813220e-01
8.1211668e-01
7.6508898e-01
7.1951081e-01
6.7656707e-01
6.3617430e-01
5.9709291e-01
5.5712839e-01
5.1340394e-01
4.6268502e-01
4.0173553e-01
3.2768262e-01
2.3836470e-01
1.3263619e-01
1.0604199e-02
-1.2622267e-01
-2.7488673e-01
-4.3104113e-01
-5.8911810e-01
-7.4260040e-01
-8.8438501e-01
-1.0072207e+00
-1.1041937e+00
-1.1692304e+00
-1.1975779e+00
-1.1862220e+00
-1.1342017e+00
-1.0427845e+00
-9.1547930e-01
-7.5787457e-01
-5.7730544e-01
-3.8237118e-01
-1.8233986e-01
1.3509165e-02
1.9654413e-01
3.5937627e-01
4.9633180e-01
6.0375470e-01
6.8011684e-01
7.2593649e-01
7.4352935e-01
7.3663409e-01
7.0996469e-01
6.6874449e-01
6.1827039e-01
5.6354297e-01
5.0898063e-01
4.5822063e-01
4.1399802e-01
3.7808853e-01
3.5130031e-01
3.3350177e-01
3.2367639e-01
3.1999966e-01
3.1993676e-01
3.2036222e-01
3.1770451e-01
3.0811931e-01
2.8769499e-01
2.5269259e-01
1.9981994e-01
1.2653372e-01
3.1354560e-02
-8.5829949e-02
-2.2350880e-01
-3.7837750e-01
-5.4529345e-01
-7.1738843e-01
-8.8635565e-01
-1.0429105e+00
-1.1774023e+00
-1.2805288e+00
-1.3440849e+00
-1.3616562e+00
-1.3291755e+00
-1.2452732e+00
-1.1113920e+00
-9.3167132e-01
-7.1263507e-01
-4.6273540e-01
-1.9180676e-01
8.9517186e-02
3.7037851e-01
6.4022616e-01
8.8927986e-01
1.1089159e+00
1.2919724e+00
1.4329755e+00
1.5282844e+00
1.5761521e+00
1.5766999e+00
1.5318054e+00
1.4449113e+00
1.3207684e+00
1.1651279e+00
9.8440106e-01
7.8530776e-01
5.7453588e-01
3.5843778e-01
1.4278725e-01
-6.7384234e-02
-2.6786244e-01
-4.5523824e-01
-6.2682115e-01
-7.8050169e-01
-9.1459155e-01
-1.0276728e+00
-1.1184843e+00
-1.1858649e+00
-1.2287644e+00
-1.2463155e+00
-1.2379542e+00
-1.2035635e+00
-1.1436165e+00
-1.0592931e+00
-9.5254952e-01
-8.2612550e-01
-6.8348408e-01
-5.2868374e-01
-3.6619116e-01
-2.0064938e-01
-3.6623403e-02
1.2165027e-01
2.7048334e-01
4.0690136e-01
5.2873885e-01
6.3465738e-01
7.2408987e-01
7.9712336e-01
8.5433692e-01
8.9661403e-01
9.2494902e-01
9.4026633e-01
9.4327053e-01
9.3434157e-01
9.1348567e-01
8.8034592e-01
8.3427121e-01
7.7443657e-01
7.0000365e-01
6.1030671e-01
5.0504743e-01
3.8448125e-01
2.4957951e-01
1.0215359e-01
-5.5069847e-02
-2.1843174e-01
-3.8338931e-01
-5.4463816e-01
-6.9631272e-01
-8.3226542e-01
-9.4641611e-01
-1.0331534e+00
-1.0877585e+00
-1.1068131e+00
-1.0885502e+00
-1.0331029e+00
-9.4261665e-01
-8.2119605e-01
-6.7468064e-01
-5.1026092e-01
-3.3597033e-01
-1.6010372e-01
9.3780557e-03
1.6539757e-01
3.0221108e-01
4.1571913e-01
5.0361482e-01
5.6536759e-01
6.0206063e-01
6.1611384e-01
6.1093073e-01
5.9050826e-01
5.5904658e-01
5.2059167e-01
4.7873710e-01
4.3640056e-01
3.9568073e-01
3.5779055e-01
3.2305912e-01
2.9099271e-01
2.6038758e-01
2.2948851e-01
1.9618721e-01
1.5825188e-01
1.1357496e-01
6.0423335e-02
-2.3263755e-03
-7.4986783e-02
-1.5691236e-01
-2.4642319e-01
-3.4081240e-01
-4.3644399e-01
-5.2893942e-01
-6.1344286e-01
-6.8494638e-01
-7.3865089e-01
-7.7033512e-01
-7.7670311e-01
-7.5568083e-01
-7.0663380e-01
-6.3048260e-01
-5.2969954e-01
-4.0817846e-01
-2.7098027e-01
-1.2396992e-01
2.6624569e-02
1.7468775e-01
3.1467575e-01
4.4200803e-01
5.5334882e-01
6.4674832e-01
7.2163043e-01
7.7863342e-01
8.1932796e-01
8.4585129e-01
8.6050531e-01
8.6536906e-01
8.6197210e-01
8.5106434e-01
8.3250209e-01
8.0525354e-01
7.6751298e-01
7.1690559e-01
6.5076087e-01
5.6643253e-01
4.6164233e-01
3.3482531e-01
1.8545276e-01
1.4307403e-02
-1.7631686e-01
-3.8251752e-01
-5.9880928e-01
-8.1828474e-01
-1.0329087e+00
-1.2339329e+00
-1.4124056e+00
-1.5597421e+00
-1.6683142e+00
-1.7320097e+00
-1.7467106e+00
-1.7106385e+00
-1.6245256e+00
-1.4915814e+00
-1.3172490e+00
-1.1087601e+00
-8.7452762e-01
-6.2343349e-01
-3.6409526e-01
-1.0420202e-01
1.4999363e-01
3.9396188e-01
6.2492575e-01
8.4163555e-01
1.0439258e+00
1.2321241e+00
1.4064053e+00
1.5661893e+00
1.7096768e+00
1.8335942e+00
1.9331943e+00
2.0025270e+00
2.0349576e+00
2.0238783e+00
1.9635277e+00
1.8498179e+00
1.6810627e+00
1.4585094e+00
1.1865962e+00
8.7289041e-01
5.2769905e-01
1.6338939e-01
-2.0650442e-01
-5.6827705e-01
-9.0902552e-01
-1.2174871e+00
-1.4846584e+00
-1.7041531e+00
-1.8722923e+00
-1.9879554e+00
-2.0522408e+00
-2.0679997e+00
-2.0393102e+00
-1.9709578e+00
-1.8679725e+00
-1.7352636e+00
-1.5773722e+00
-1.3983494e+00
-1.2017503e+00
-9.9072566e-01
-7.6818204e-01
-5.3697555e-01
-3.0009957e-01
-6.0828911e-02
1.7721171e-01
4.1007471e-01
6.3361479e-01
8.4369349e-01
1.0364250e+00
1.2084144e+00
1.3569399e+00
1.4800468e+00
1.5765334e+00
1.6458347e+00
1.6878210e+00
1.7025468e+00
1.6899925e+00
1.6498484e+00
1.5813832e+00
1.4834348e+00
1.3545460e+00
1.1932505e+00
9.9849423e-01
7.7015155e-01
5.0957602e-01
2.2010844e-01
-9.2541127e-02
-4.2011761e-01
-7.5191625e-01
-1.0751850e+00
-1.3758298e+00
-1.6393725e+00
-1.8520646e+00
-2.0020302e+00
-2.0802986e+00
-2.0816045e+00
-2.0048722e+00
-1.8533404e+00
-1.6343303e+00
-1.3586918e+00
-1.0399962e+00
-6.9356198e-01
-3.3541236e-01
1.8737173e-02
3.5437841e-01
6.5893238e-01
9.2225595e-01
1.1369217e+00
1.2982845e+00
1.4043663e+00
1.4556047e+00
1.4545112e+00
1.4052852e+00
1.3134190e+00
1.1853193e+00
1.0279627e+00
8.4859649e-01
6.5448933e-01
4.5273185e-01
2.5007971e-01
5.2828824e-02
-1.3328905e-01
-3.0320038e-01
-4.5257964e-01
-5.7793637e-01
-6.7669629e-01
-7.4727020e-01
-7.8910167e-01
-8.0268392e-01
-7.8953784e-01
-7.5214568e-01
-6.9383714e-01
-6.1862632e-01
-5.3100106e-01
-4.3567154e-01
-3.3729223e-01
-2.4017721e-01
-1.4803343e-01
-6.3738666e-02
1.0808814e-02
7.4746631e-02
1.2819798e-01
1.7211717e-01
2.0805083e-01
2.3784924e-01
2.6336854e-01
2.8620273e-01
3.0747573e-01
3.2771320e-01
3.4680344e-01
3.6404665e-01
3.7828121e-01
3.8806550e-01
3.9188753e-01
3.8837343e-01
3.7646896e-01
3.5557431e-01
3.2562026e-01
2.8708228e-01
2.4093670e-01
1.8856821e-01
1.3164147e-01
7.1951798e-02
1.1271873e-02
-4.8786203e-02
-1.0687303e-01
-1.6195085e-01
-2.1328064e-01
-2.6035145e-01
-3.0276750e-01
-3.4011617e-01
-3.7184205e-01
-3.9715179e-01
-4.1497141e-01
-4.2397163e-01
-4.2266743e-01
-4.0958719e-01
-3.8349606e-01
-3.4364875e-01
-2.9003973e-01
-2.2361546e-01
-1.4641532e-01
-6.1615612e-02
2.6538250e-02
1.1291539e-01
1.9179252e-01
2.5724074e-01
3.0358235e-01
3.2588821e-01
3.2048221e-01
2.8541501e-01
2.2086190e-01
1.2939158e-01
1.6049459e-02
-1.1179080e-01
-2.4482756e-01
-3.7246605e-01
-4.8363404e-01
-5.6769657e-01
-6.1537320e-01
-6.1956076e-01
-5.7597757e-01
-4.8356933e-01
-3.4464601e-01
-1.6474902e-01
4.7725911e-02
2.8210375e-01
5.2614382e-01
7.6682785e-01
9.9115971e-01
1.1869198e+00
1.3433274e+00
1.4515774e+00
1.5052316e+00
1.5004604e+00
1.4361363e+00
1.3137918e+00
1.1374549e+00
9.1337881e-01
6.4968560e-01
3.5594644e-01
4.2726328e-02
-2.7887694e-01
-5.9767115e-01
-9.0276386e-01
-1.1839017e+00
-1.4317547e+00
-1.6381543e+00
-1.7962949e+00
-1.9009097e+00
-1.9484264e+00
-1.9371002e+00
-1.8671144e+00
-1.7406364e+00
-1.5618107e+00
-1.3366781e+00
-1.0730086e+00
-7.8003738e-01
-4.6810100e-01
-1.4818000e-01
1.6863128e-01
4.7169085e-01
7.5136117e-01
9.9948824e-01
1.2097514e+00
1.3778449e+00
1.5014799e+00
1.5802248e+00
1.6152217e+00
1.6088312e+00
1.5642594e+00
1.4852170e+00
1.3756483e+00
1.2395518e+00
1.0808937e+00
9.0360601e-01
7.1164622e-01
5.0909312e-01
3.0024519e-01
8.9690784e-02
-1.1767723e-01
-3.1672068e-01
-5.0219549e-01
-6.6896399e-01
-8.1226115e-01
-9.2798701e-01
-1.0129930e+00
-1.0653302e+00
-1.0844319e+00
-1.0712090e+00
-1.0280436e+00
-9.5867232e-01
-8.6795863e-01
-7.6156533e-01
-6.4555347e-01
-5.2594481e-01
-4.0829243e-01
-2.9730386e-01
-1.9655392e-01
-1.0831322e-01
-3.3504126e-02
2.8218992e-02
7.8282328e-02
1.1892574e-01
1.5288964e-01
1.8308917e-01
2.1230515e-01
2.4291484e-01
2.7668046e-01
3.1460864e-01
3.5688985e-01
4.0291917e-01
4.5138911e-01
5.0043396e-01
5.4779936e-01
5.9101311e-01
6.2754129e-01
6.5492190e-01
6.7087406e-01
6.7338388e-01
6.6077068e-01
6.3173939e-01
5.8542648e-01
5.2144638e-01
4.3994161e-01
3.4163488e-01
2.2787730e-01
1.0068629e-01
-3.7233689e-02
-1.8249520e-01
-3.3106569e-01
-4.7834813e-01
-6.1931095e-01
-7.4867067e-01
-8.6112671e-01
-9.5164175e-01
-1.0157535e+00
-1.0498924e+00
-1.0516719e+00
-1.0201132e+00
-9.5577421e-01
-8.6076390e-01
-7.3863980e-01
-5.9419795e-01
-4.3317817e-01
-2.6191259e-01
-8.6948607e-02
8.5322567e-02
2.4900158e-01
3.9895470e-01
5.3100786e-01
6.4205376e-01
7.3007490e-01
7.9409248e-01
8.3405677e-01
8.5069912e-01
8.4536863e-01
8.1987495e-01
7.7635201e-01
7.1714838e-01
6.4474226e-01
5.6167513e-01
4.7049731e-01
3.7371961e-01
2.7376681e-01
1.7293156e-01
7.3330562e-02
-2.3131896e-02
-1.1478649e-01
-2.0020272e-01
-2.7817317e-01
-3.4768242e-01
-4.0786914e-01
-4.5799160e-01
-4.9740570e-01
-5.2556266e-01
-5.4202996e-01
-5.4653466e-01
-5.3902310e-01
-5.1972610e-01
-4.8921640e-01
-4.4844670e-01
-3.9875999e-01
-3.4186889e-01
-2.7980292e-01
-2.1482425e-01
-1.4931284e-01
-8.5625442e-02
-2.5936405e-02
2.7926365e-02
7.4632617e-02
1.1346724e-01
1.4439452e-01
1.6805630e-01
1.8570158e-01
1.9905511e-01
2.1013960e-01
2.2106865e-01
2.3382770e-01
2.5006054e-01
2.7087900e-01
2.9671110e-01
3.2719988e-01
3.6116146e-01
3.9660882e-01
4.3084434e-01
4.6061936e-01
4.8235437e-01
4.9240856e-01
4.8738237e-01
4.6443116e-01
4.2156409e-01
3.5790064e-01
2.7385714e-01
1.7123820e-01
5.3215624e-02
-7.5811204e-02
-2.1046528e-01
-3.4473268e-01
-4.7236555e-01
-5.8731330e-01
-6.8414449e-01
-7.5842220e-01
-8.0699931e-01
-8.2820800e-01
-8.2192856e-01
-7.8953433e-01
-7.3372156e-01
-6.5824319e-01
-5.6757419e-01
-4.6654209e-01
-3.5995916e-01
-2.5229182e-01
-1.4739619e-01
-4.8338865e-02
4.2691227e-02
1.2438571e-01
1.9624931e-01
2.5848137e-01
3.1182554e-01
3.5740334e-01
3.9654367e-01
4.3061856e-01
4.6089383e-01
4.8840210e-01
5.1384337e-01
5.3751683e-01
5.5928630e-01
5.7858125e-01
5.9443416e-01
6.0555268e-01
6.1042064e-01
6.0741835e-01
5.9494987e-01
5.7156481e-01
5.3606422e-01
4.8758442e-01
4.2565849e-01
3.5026000e-01
2.6183527e-01
1.6132781e-01
5.0194448e-02
-6.9588968e-02
-1.9553466e-01
-3.2466562e-01
-4.5355837e-01
-5.7841218e-01
-6.9515163e-01
-7.9956794e-01
-8.8750001e-01
-9.5504979e-01
-9.9881944e-01
-1.0161518e+00
-1.0053518e+00
-9.6586682e-01
-8.9840426e-01
-8.0496885e-01
-6.8880806e-01
-5.5426170e-01
-4.0652364e-01
-2.5133485e-01
-9.4635416e-02
5.7793583e-02
2.0066808e-01
3.2949240e-01
4.4078219e-01
5.3220335e-01
6.0261828e-01
6.5203922e-01
6.8149691e-01
6.9284190e-01
6.8850266e-01
6.7122947e-01
6.4385208e-01
6.0907469e-01
5.6932287e-01
5.2664672e-01
4.8267516e-01
4.3861021e-01
3.9524872e-01
3.5302100e-01
3.1203895e-01
2.7214844e-01
2.3298215e-01
1.9400975e-01
1.5458363e-01
1.1398145e-01
7.1449286e-02
2.6250717e-02
-2.2274102e-02
-7.4638795e-02
-1.3113343e-01
-1.9174480e-01
-2.5608161e-01
-3.2331485e-01
-3.9214492e-01
-4.6080590e-01
-5.2711201e-01
-5.8854430e-01
-6.4237134e-01
-6.8579644e-01
-7.1612450e-01
-7.3094101e-01
-7.2829231e-01
-7.0685148e-01
-6.6604962e-01
-6.0615230e-01
-5.2826787e-01
-4.3428688e-01
-3.2676621e-01
-2.0877988e-01
-8.3758703e-02
4.4665215e-02
1.7280105e-01
2.9702645e-01
4.1389958e-01
5.2025765e-01
6.1330443e-01
6.9068792e-01
7.5056669e-01
7.9166090e-01
8.1328387e-01
8.1535193e-01
7.9837057e-01
7.6339539e-01
7.1196585e-01
6.4601318e-01
5.6774788e-01
4.7953707e-01
3.8378384e-01
2.8281987e-01
1.7881979e-01
7.3744212e-02
-3.0683656e-02
-1.3296652e-01
-2.3178988e-01
-3.2595509e-01
-4.1429897e-01
-4.9561259e-01
-5.6857278e-01
-6.3170077e-01
-6.8336151e-01
-7.2181492e-01
-7.4532362e-01
-7.5231199e-01
-7.4156056e-01
-7.1241040e-01
-6.6494674e-01
-6.0012994e-01
-5.1984566e-01
-4.2685506e-01
-3.2463962e-01
-2.1715172e-01
-1.0849823e-01
-2.5959495e-03
9.7156884e-02
1.8815048e-01
2.6874005e-01
3.3830758e-01
3.9720324e-01
4.4657741e-01
4.8812766e-01
5.2379357e-01
5.5543434e-01
5.8452243e-01
6.1188291e-01
6.3750491e-01
6.6044580e-01
6.7883937e-01
6.9000923e-01
6.9067860e-01
6.7726061e-01
6.4620727e-01
5.9438876e-01
5.1947044e-01
4.2025386e-01
2.9695140e-01
1.5137024e-01
-1.3013195e-02
-1.9110052e-01
-3.7634601e-01
-5.6105528e-01
-7.3679549e-01
-8.9489507e-01
-1.0270032e+00
-1.1256727e+00
-1.1849221e+00
-1.2007307e+00
-1.1714161e+00
-1.0978508e+00
-9.8348393e-01
-8.3415443e-01
-6.5770323e-01
-4.6341451e-01
-2.6133599e-01
-6.1540797e-02
1.2659938e-01
2.9506029e-01
4.3766994e-01
5.5042929e-01
6.3162984e-01
6.8177207e-01
7.0330891e-01
7.0025283e-01
6.7769465e-01
6.4128497e-01
5.9672629e-01
5.4931555e-01
5.0356619e-01
4.6292719e-01
4.2960731e-01
4.0450484e-01
3.8723683e-01
3.7625701e-01
3.6904807e-01
3.6237353e-01
3.5257336e-01
3.3588687e-01
3.0878527e-01
2.6829526e-01
2.1229413e-01
1.3975600e-01
5.0930562e-02
-5.2561727e-02
-1.6773088e-01
-2.9032608e-01
-4.1505788e-01
-5.3593016e-01
-6.4666292e-01
-7.4117205e-01
-8.1406120e-01
-8.6107721e-01
-8.7948205e-01
-8.6830055e-01
-8.2841345e-01
-7.6248033e-01
-6.7469431e-01
-5.7038960e-01
-4.5554102e-01
-3.3620935e-01
-2.1799520e-01
-1.0556499e-01
-2.3041665e-03
8.9865836e-02
1.7049389e-01
2.4043883e-01
3.0157049e-01
3.5637239e-01
4.0749497e-01
4.5731207e-01
5.0753060e-01
5.5889493e-01
6.1101430e-01
6.6232721e-01
7.1020236e-01
7.5116187e-01
7.8119998e-01
7.9616052e-01
7.9213202e-01
7.6582105e-01
7.1487201e-01
6.3811177e-01
5.3570735e-01
4.0923184e-01
2.6163919e-01
9.7153242e-02
-7.8918170e-02
-2.6042867e-01
-4.4068170e-01
-6.1274714e-01
-7.6979374e-01
-9.0542382e-01
-1.0139945e+00
-1.0909080e+00
-1.1328563e+00
-1.1380083e+00
-1.1061304e+00
-1.0386309e+00
-9.3851572e-01
-8.1024503e-01
-6.5948987e-01
-4.9279868e-01
-3.1719828e-01
-1.3976107e-01
3.2826277e-02
1.9465706e-01
3.4092841e-01
4.6816575e-01
5.7432866e-01
6.5879066e-01
7.2219897e-01
7.6623089e-01
7.9327284e-01
8.0605595e-01
8.0728799e-01
7.9932305e-01
7.8390587e-01
7.6201740e-01
7.3383482e-01
6.9880398e-01
6.5580692e-01
6.0339661e-01
5.4006568e-01
4.6451727e-01
3.7591050e-01
2.7405949e-01
1.5957166e-01
3.3918521e-02
-1.0056212e-01
-2.4072965e-01
-3.8276355e-01
-5.2233626e-01
-6.5482258e-01
-7.7553071e-01
-8.7994108e-01
-9.6394191e-01
-1.0240523e+00
-1.0576232e+00
-1.0630045e+00
-1.0396632e+00
-9.8823974e-01
-9.1053232e-01
-8.0940605e-01
-6.8863047e-01
-5.5265683e-01
-4.0635247e-01
-2.5471525e-01
-1.0259350e-01
4.5563497e-02
1.8590409e-01
3.1530873e-01
4.3145554e-01
5.3281883e-01
6.1860697e-01
6.8864936e-01
7.4324605e-01
7.8299919e-01
8.0864992e-01
8.2094504e-01
8.2055135e-01
8.0802332e-01
7.8381736e-01
7.4833736e-01
7.0199373e-01
6.4526052e-01
5.7871904e-01
5.0308124e-01
4.1919212e-01
3.2801731e-01
2.3062701e-01
1.2818908e-01
2.1980821e-02
-8.6577974e-02
-1.9587658e-01
-3.0406312e-01
-4.0901031e-01
-5.0831392e-01
-5.9933576e-01
-6.7929548e-01
-7.4540734e-01
-7.9505141e-01
-8.2596284e-01
-8.3641886e-01
-8.2540140e-01
-7.9271551e-01
-7.3904975e-01
-6.6597196e-01
-5.7586042e-01
-4.7177589e-01
-3.5728470e-01
-2.3624735e-01
-1.1259155e-01
9.9091454e-03
1.2782984e-01
2.3824436e-01
3.3881958e-01
4.2785055e-01
5.0424021e-01
5.6743376e-01
6.1732042e-01
6.5411620e-01
6.7823903e-01
6.9018469e-01
6.9040966e-01
6.7922894e-01
6.5674015e-01
6.2278778e-01
5.7697972e-01
5.1876395e-01
4.4756560e-01
3.6297560e-01
2.6497154e-01
1.5414386e-01
3.1895418e-02
-9.9417916e-02
-2.3643568e-01
-3.7485160e-01
-5.0959110e-01
-6.3509870e-01
-7.4570905e-01
-8.3606219e-01
-9.0151637e-01
-9.3851357e-01
-9.4485911e-01
-9.1988776e-01
-8.6450062e-01
-7.8107182e-01
-6.7323864e-01
-5.4560222e-01
-4.0337408e-01
-2.5200692e-01
-9.6846769e-02
5.7161419e-02
2.0569087e-01
3.4516081e-01
4.7277491e-01
5.8648141e-01
6.8487363e-01
7.6705310e-01
8.3247750e-01
8.8081229e-01
9.1180176e-01
9.2517282e-01
9.2058324e-01
8.9762346e-01
8.5587479e-01
7.9501718e-01
7.1497068e-01
6.1604946e-01
4.9910869e-01
3.6566767e-01
2.1799581e-01
5.9150836e-02
-1.0703874e-01
-2.7605103e-01
-4.4280883e-01
-6.0187510e-01
-7.4769873e-01
-8.7489942e-01
-9.7857438e-01
-1.0546036e+00
-1.0999250e+00
-1.1127495e+00
-1.0926922e+00
-1.0408025e+00
-9.5948927e-01
-8.5234986e-01
-7.2391828e-01
-5.7935783e-01
-4.2412639e-01
-2.6364608e-01
-1.0300829e-01
5.3260560e-02
2.0135629e-01
3.3827142e-01
4.6179029e-01
5.7041755e-01
6.6325943e-01
7.3988097e-01
8.0016161e-01
8.4416826e-01
8.7205877e-01
8.8402182e-01
8.8025177e-01
8.6095157e-01
8.2635324e-01
7.7674624e-01
7.1250792e-01
6.3413555e-01
5.4228426e-01
4.3781509e-01
3.2185443e-01
1.9586058e-01
6.1690513e-02
-7.8342014e-02
-2.2142597e-01
-3.6424049e-01
-5.0298080e-01
-6.3343247e-01
-7.5110041e-01
-8.5139428e-01
-9.2986618e-01
-9.8249080e-01
-1.0059707e+00
-9.9804052e-01
-9.5773738e-01
-8.8560326e-01
-7.8379118e-01
-6.5605460e-01
-5.0761009e-01
-3.4487440e-01
-1.7508960e-01
-5.8612465e-03
1.5535472e-01
3.0177117e-01
4.2774553e-01
5.2916324e-01
6.0368956e-01
6.5086491e-01
6.7203700e-01
6.7013966e-01
6.4934190e-01
6.1460213e-01
5.7117017e-01
5.2408415e-01
4.7770840e-01
4.3535187e-01
3.9899669e-01
3.6915703e-01
3.4487950e-01
3.2388705e-01
3.0285668e-01
2.7780852e-01
2.4457361e-01
1.9930019e-01
1.3895426e-01
6.1766907e-02
-3.2420057e-02
-1.4195351e-01
-2.6334495e-01
-3.9143602e-01
-5.1974596e-01
-6.4097145e-01
-7.4759063e-01
-8.3250858e-01
-8.8967653e-01
-9.1462090e-01
-9.0482975e-01
-8.5996109e-01
-7.8185683e-01
-6.7436739e-01
-5.4301004e-01
-3.9449925e-01
-2.3619777e-01
-7.5544357e-02
8.0484098e-02
2.2582507e-01
3.5565979e-01
4.6659991e-01
5.5672981e-01
6.2551722e-01
6.7361491e-01
7.0258335e-01
7.1456943e-01
7.1197896e-01
6.9717843e-01
6.7225411e-01
6.3884538e-01
5.9805886e-01
5.5046243e-01
4.9615282e-01
4.3488579e-01
3.6625217e-01
2.8987948e-01
2.0563695e-01
1.1382216e-01
1.5308877e-02
-8.8361895e-02
-1.9496012e-01
-3.0161912e-01
-4.0495804e-01
-5.0126287e-01
-5.8671015e-01
-6.5761594e-01
-7.1069252e-01
-7.4329486e-01
-7.5363856e-01
-7.4096908e-01
-7.0566117e-01
-6.4922894e-01
-5.7423505e-01
-4.8410173e-01
-3.8284328e-01
-2.7475326e-01
-1.6408475e-01
-5.4761286e-02
4.9851430e-02
1.4709323e-01
2.3507019e-01
3.1263553e-01
3.7930763e-01
4.3514530e-01
4.8059828e-01
5.1634614e-01
5.4313541e-01
5.6162325e-01
5.7223717e-01
5.7506270e-01
5.6977346e-01
5.5561851e-01
5.3147893e-01
4.9599784e-01
4.4777625e-01
3.8561511e-01
3.0877459e-01
2.1721830e-01
1.1181296e-01
-5.5390703e-03
-1.3184952e-01
-2.6308444e-01
-3.9429755e-01
-5.1985284e-01
-6.3372620e-01
-7.2986969e-01
-8.0261704e-01
-8.4710354e-01
-8.5966972e-01
-8.3821519e-01
-7.8246861e-01
-6.9414154e-01
-5.7693913e-01
-4.3641085e-01
-2.7963877e-01
-1.1477823e-01
4.9515817e-02
2.0472904e-01
3.4313650e-01
4.5839805e-01
5.4603976e-01
6.0376938e-01
6.3158964e-01
6.3169544e-01
6.0816630e-01
5.6648969e-01
5.1296958e-01
4.5408478e-01
3.9586355e-01
3.4333585e-01
3.0011243e-01
2.6812436e-01
2.4753765e-01
2.3684088e-01
2.3308832e-01
2.3226856e-01
2.2975817e-01
2.2081451e-01
2.0106105e-01
1.6692413e-01
1.1598934e-01
4.7256290e-02
-3.8719057e-02
-1.3979791e-01
-2.5234721e-01
-3.7143903e-01
-4.9115191e-01
-6.0495934e-01
-7.0618285e-01
-7.8847998e-01
-8.4632915e-01
-8.7546947e-01
-8.7325476e-01
-8.3888898e-01
-7.7352071e-01
-6.8018556e-01
-5.6359610e-01
-4.2979189e-01
-2.8567551e-01
-1.3847420e-01
4.8236248e-03
1.3800202e-01
2.5606767e-01
3.5556978e-01
4.3475690e-01
4.9355756e-01
5.3339349e-01
5.5685435e-01
5.6727768e-01
5.6828678e-01
5.6334155e-01
5.5535419e-01
5.4641171e-01
5.3763119e-01
5.2915332e-01
5.2025959e-01
5.0958349e-01
4.9537752e-01
4.7579494e-01
4.4914763e-01
4.1410917e-01
3.6984416e-01
3.1605920e-01
2.5298458e-01
1.8130563e-01
1.0206794e-01
1.6579570e-02
-7.3670422e-02
-1.6706588e-01
-2.6188716e-01
-3.5630964e-01
-4.4838590e-01
-5.3602198e-01
-6.1695930e-01
-6.8877615e-01
-7.4892395e-01
-7.9481016e-01
-8.2393152e-01
-8.3405190e-01
-8.2340993e-01
-7.9093426e-01
-7.3643856e-01
-6.6076595e-01
-5.6585520e-01
-4.5470862e-01
-3.3125523e-01
-2.0011853e-01
-6.6313625e-02
6.5092179e-02
1.8931788e-01
3.0217270e-01
4.0029935e-01
4.8134152e-01
5.4403056e-01
5.8819443e-01
6.1469519e-01
6.2530253e-01
6.2251017e-01
6.0930318e-01
5.8888681e-01
5.6439416e-01
5.3859567e-01
5.1363864e-01
4.9084473e-01
4.7058909e-01
4.5227629e-01
4.3441725e-01
4.1480058e-01
3.9074209e-01
3.5938776e-01
3.1803954e-01
2.6447090e-01
1.9720185e-01
1.1570882e-01
2.0553811e-02
-8.6573907e-02
-2.0290229e-01
-3.2470036e-01
-4.4747178e-01
-5.6620653e-01
-6.7567544e-01
-7.7074764e-01
-8.4670815e-01
-8.9955436e-01
-9.2625500e-01
-9.2496003e-01
-8.9515058e-01
-8.3771740e-01
-7.5495505e-01
-6.5046149e-01
-5.2893824e-01
-3.9589537e-01
-2.5727916e-01
-1.1905426e-01
1.3217451e-02
1.3475647e-01
2.4186460e-01
3.3211550e-01
4.0442367e-01
4.5899315e-01
4.9715861e-01
5.2114159e-01
5.3375126e-01
5.3806331e-01
5.3710891e-01
5.3360047e-01
5.2971317e-01
5.2693345e-01
5.2597820e-01
5.2678145e-01
5.2853968e-01
5.2980422e-01
5.2860907e-01
5.2262594e-01
5.0934116e-01
4.8624936e-01
4.5105674e-01
4.0188322e-01
3.3745077e-01
2.5724399e-01
1.6162994e-01
5.1927418e-02
-6.9579153e-02
-1.9968235e-01
-3.3435060e-01
-4.6888341e-01
-5.9812158e-01
-7.1670714e-01
-8.1938180e-01
-9.0130743e-01
-9.5838692e-01
-9.8756080e-01
-9.8705275e-01
-9.5653841e-01
-8.9721494e-01
-8.1175588e-01
-7.0414557e-01
-5.7940023e-01
-4.4319805e-01
-3.0145488e-01
-1.5989128e-01
-2.3638235e-02
1.0307744e-01
2.1713804e-01
3.1661451e-01
4.0071981e-01
4.6965122e-01
5.2435029e-01
5.6621818e-01
5.9682636e-01
6.1765841e-01
6.2990962e-01
6.3436153e-01
6.3133783e-01
6.2073882e-01
6.0214202e-01
5.7494933e-01
5.3855676e-01
4.9252324e-01
4.3671897e-01
3.7143949e-01
2.9747755e-01
2.1615008e-01
1.2928233e-01
3.9153847e-02
-5.1587307e-02
-1.4003576e-01
-2.2315944e-01
-2.9794419e-01
-3.6154718e-01
-4.1145436e-01
-4.4563614e-01
-4.6269393e-01
-4.6198774e-01
-4.4373265e-01
-4.0905019e-01
-3.5995986e-01
-2.9929921e-01
-2.3056957e-01
-1.5771659e-01
-8.4865529e-02
-1.6037291e-02
4.5127548e-02
9.5611525e-02
1.3320977e-01
1.5665318e-01
1.6565921e-01
1.6090887e-01
1.4395261e-01
1.1705228e-01
8.2972788e-02
4.4742285e-02
5.4037193e-03
-3.2218177e-02
-6.5712050e-02
-9.3219743e-02
-1.1351178e-01
-1.2599997e-01
-1.3069848e-01
-1.2815126e-01
-1.1934452e-01
-1.0561862e-01
-8.8585536e-02
-7.0049598e-02
-5.1922358e-02
-3.6120020e-02
-2.4434638e-02
-1.8377985e-02
-1.9007526e-02
-2.6755212e-02
-4.1289419e-02
-6.1444477e-02
-8.5247472e-02
-1.1005738e-01
-1.3281016e-01
-1.5034133e-01
-1.5974266e-01
-1.5870377e-01
-1.4579251e-01
-1.2063543e-01
-8.3970365e-02
-3.7559906e-02
1.6024874e-02
7.3718516e-02
1.3232467e-01
1.8887381e-01
2.4092425e-01
2.8676787e-01
3.2551959e-01
3.5708822e-01
3.8204326e-01
4.0140452e-01
4.1638830e-01
4.2814595e-01
4.3752873e-01
4.4490766e-01
4.5006738e-01
4.5218275e-01
4.4987597e-01
4.4134253e-01
4.2452744e-01
3.9733102e-01
3.5782549e-01
3.0446821e-01
2.3629983e-01
1.5311425e-01
5.5584361e-02
-5.4671820e-02
-1.7509495e-01
-3.0225937e-01
-4.3201189e-01
-5.5966161e-01
-6.8020724e-01
-7.8859089e-01
-8.7996935e-01
-9.4999260e-01
-9.9507524e-01
-1.0126418e+00
-1.0013249e+00
-9.6109696e-01
-8.9332124e-01
-8.0071032e-01
-6.8718804e-01
-5.5765747e-01
-4.1768921e-01
-2.7315343e-01
-1.2982612e-01
6.9964867e-03
1.3284191e-01
2.4433398e-01
3.3937210e-01
4.1720268e-01
4.7837604e-01
5.2459074e-01
5.5843861e-01
5.8307539e-01
6.0184931e-01
6.1792227e-01
6.3391700e-01
6.5162168e-01
6.7178135e-01
6.9399934e-01
7.1676092e-01
7.3757656e-01
7.5322607e-01
7.6007345e-01
7.5441550e-01
7.3282819e-01
6.9248006e-01
6.3138982e-01
5.4861352e-01
4.4435523e-01
3.2000339e-01
1.7810003e-01
2.2251581e-02
-1.4301116e-01
-3.1241756e-01
-4.8018065e-01
-6.4025329e-01
-7.8661000e-01
-9.1354563e-01
-1.0159803e+00
-1.0897561e+00
-1.1319063e+00
-1.1408684e+00
-1.1166162e+00
-1.0606827e+00
-9.7606246e-01
-8.6699399e-01
-7.3864055e-01
-5.9670232e-01
-4.4700197e-01
-2.9508742e-01
-1.4589121e-01
-3.4770509e-03
1.2910630e-01
2.4985679e-01
3.5774140e-01
4.5252707e-01
5.3454813e-01
6.0444373e-01
6.6289786e-01
7.1041106e-01
7.4712794e-01
7.7273948e-01
7.8647121e-01
7.8715785e-01
7.7339432e-01
7.4374370e-01
6.9697674e-01
6.3231393e-01
5.4964085e-01
4.4967099e-01
3.3403823e-01
2.0531288e-01
6.6946015e-02
-7.6845666e-02
-2.2124074e-01
-3.6100887e-01
-4.9073548e-01
-6.0507197e-01
-6.9900681e-01
-7.6814942e-01
-8.0901417e-01
-8.1928833e-01
-7.9806366e-01
-7.4600805e-01
-6.6545078e-01
-5.6035490e-01
-4.3615448e-01
-2.9944600e-01
-1.5754201e-01
-1.7919026e-02
1.1238585e-01
2.2736038e-01
3.2251175e-01
3.9520493e-01
4.4479846e-01
4.7255843e-01
4.8136397e-01
4.7524841e-01
4.5884310e-01
4.3680037e-01
4.1326698e-01
3.9146319e-01
3.7340117e-01
3.5975686e-01
3.4989256e-01
3.4201485e-01
3.3344172e-01
3.2094486e-01
3.0112897e-01
2.7080978e-01
2.2735673e-01
1.6897323e-01
9.4896984e-02
5.5134551e-03
-9.7615661e-02
-2.1180117e-01
-3.3334233e-01
-4.5769883e-01
-5.7970701e-01
-6.9382756e-01
-7.9441273e-01
-8.7598415e-01
-9.3351579e-01
-9.6271830e-01
-9.6031831e-01
-9.2431927e-01
-8.5422304e-01
-7.5118549e-01
-6.1807861e-01
-4.5943655e-01
-2.8127505e-01
-9.0788243e-02
1.0405726e-01
2.9499885e-01
4.7398511e-01
6.3367225e-01
7.6787207e-01
8.7191970e-01
9.4293424e-01
9.7995012e-01
9.8390495e-01
9.5748076e-01
9.0481055e-01
8.3107653e-01
7.4203892e-01
6.4354015e-01
5.4103192e-01
4.3917018e-01
3.4151613e-01
2.5036843e-01
1.6673497e-01
9.0436330e-02
2.0320850e-02
-4.5436607e-02
-1.0898456e-01
-1.7242829e-01
-2.3748217e-01
-3.0517415e-01
-3.7563108e-01
-4.4796498e-01
-5.2026953e-01
-5.8972609e-01
-6.5280983e-01
-7.0558003e-01
-7.4403122e-01
-7.6447403e-01
-7.6390829e-01
-7.4034934e-01
-6.9307289e-01
-6.2275352e-01
-5.3148359e-01
-4.2267155e-01
-3.0082858e-01
-1.7126209e-01
-3.9702869e-02
8.8100978e-02
2.0678704e-01
3.1174413e-01
3.9941045e-01
4.6748145e-01
5.1501249e-01
5.4240927e-01
5.5130788e-01
5.4435463e-01
5.2490507e-01
4.9666973e-01
4.6333942e-01
4.2822468e-01
3.9394178e-01
3.6217385e-01
3.3353055e-01
3.0752237e-01
2.8265672e-01
2.5665083e-01
2.2674406e-01
1.9007926e-01
1.4411312e-01
8.7009037e-02
1.7965644e-02
-6.2557901e-02
-1.5274546e-01
-2.4946596e-01
-3.4844984e-01
-4.4458434e-01
-5.3230303e-01
-6.0603646e-01
-6.6068398e-01
-6.9206336e-01
-6.9729641e-01
-6.7509316e-01
-6.2590379e-01
-5.5191666e-01
-4.5689569e-01
-3.4586892e-01
-2.2470073e-01
-9.9596404e-02
2.3403111e-02
1.3887979e-01
2.4240505e-01
3.3078577e-01
4.0217896e-01
4.5607856e-01
4.9318940e-01
5.1521122e-01
5.2456013e-01
5.2405520e-01
5.1659534e-01
5.0484936e-01
4.9098022e-01
4.7642356e-01
4.6173885e-01
4.4654831e-01
4.2957360e-01
4.0877221e-01
3.8156526e-01
3.4513815e-01
2.9678687e-01
2.3427631e-01
1.5617559e-01
6.2137686e-02
-4.6904903e-02
-1.6865012e-01
-2.9945496e-01
-4.3448480e-01
-5.6797341e-01
-6.9357403e-01
-8.0477488e-01
-8.9534813e-01
-9.5979833e-01
-9.9377532e-01
-9.9441747e-01
-9.6059405e-01
-8.9301962e-01
-7.9422181e-01
-6.6835838e-01
-5.2089828e-01
-3.5819996e-01
-1.8703496e-01
-1.4111123e-02
1.5435130e-01
3.1294891e-01
4.5730444e-01
5.8414953e-01
6.9129195e-01
7.7749153e-01
8.4227725e-01
8.8574072e-01
9.0833934e-01
9.1073669e-01
8.9369850e-01
8.5805090e-01
8.0469609e-01
7.3467150e-01
6.4923338e-01
5.4994364e-01
4.3873870e-01
3.1796368e-01
1.9036277e-01
5.9025486e-02
-7.2705610e-02
-2.0135725e-01
-3.2346710e-01
-4.3573153e-01
-5.3514566e-01
-6.1912384e-01
-6.8559365e-01
-7.3306198e-01
-7.6065528e-01
-7.6813867e-01
-7.5591714e-01
-7.2501987e-01
-6.7706582e-01
-6.1420601e-01
-5.3903698e-01
-4.5448099e-01
-3.6363259e-01
-2.6957784e-01
-1.7519989e-01
-8.2991382e-02
5.1022411e-03
8.7783703e-02
1.6442845e-01
2.3502066e-01
3.0000239e-01
3.6005439e-01
4.1584244e-01
4.6777219e-01
5.1579421e-01
5.5928929e-01
5.9704612e-01
6.2732649e-01
6.4800071e-01
6.5673190e-01
6.5118792e-01
6.2926202e-01
5.8928481e-01
5.3021195e-01
4.5177484e-01
3.5458628e-01
2.4019871e-01
1.1111583e-01
-2.9242054e-02
-1.7662023e-01
-3.2606218e-01
-4.7209469e-01
-6.0896462e-01
-7.3092168e-01
-8.3253534e-01
-9.0902754e-01
-9.5659711e-01
-9.7270672e-01
-9.5629967e-01
-9.0791518e-01
-8.2967905e-01
-7.2516164e-01
-5.9911378e-01
-4.5710767e-01
-3.0512140e-01
-1.4911168e-01
5.3806854e-03
1.5355418e-01
2.9157173e-01
4.1667364e-01
5.2717574e-01
6.2236032e-01
7.0227771e-01
7.6748775e-01
8.1877861e-01
8.5690244e-01
8.8236130e-01
8.9526585e-01
8.9527799e-01
8.8163761e-01
8.5326372e-01
8.0891113e-01
7.4735848e-01
6.6760503e-01
5.6906017e-01
4.5171637e-01
3.1630088e-01
1.6440035e-01
-1.4500198e-03
-1.7772427e-01
-3.5992332e-01
-5.4266554e-01
-7.1986075e-01
-8.8497215e-01
-1.0313586e+00
-1.1526747e+00
-1.2432910e+00
-1.2986928e+00
-1.3158148e+00
-1.2932796e+00
-1.2315169e+00
-1.1327543e+00
-1.0008776e+00
-8.4117568e-01
-6.5999035e-01
-4.6430485e-01
-2.6130874e-01
-5.7979453e-02
1.3928272e-01
3.2493875e-01
4.9449755e-01
6.4460132e-01
7.7301601e-01
8.7854201e-01
9.6086531e-01
1.0203729e+00
1.0579561e+00
1.0748225e+00
1.0723334e+00
1.0518762e+00
1.0147742e+00
9.6223613e-01
8.9534022e-01
8.1504947e-01
7.2225222e-01
6.1782244e-01
5.0269508e-01
3.7795152e-01
2.4490888e-01
1.0520471e-01
-3.9133302e-02
-1.8564366e-01
-3.3142412e-01
-4.7317042e-01
-6.0726615e-01
-7.2992395e-01
-8.3737198e-01
-9.2607399e-01
-9.9296535e-01
-1.0356824e+00
-1.0527599e+00
-1.0437709e+00
-1.0093865e+00
-9.5134402e-01
-8.7232237e-01
-7.7573877e-01
-6.6549034e-01
-5.4566704e-01
-4.2026476e-01
-2.9292750e-01
-1.6674492e-01
-4.4126212e-02
7.3239040e-02
1.8433300e-01
2.8868669e-01
3.8620392e-01
4.7696028e-01
5.6100751e-01
6.3820974e-01
7.0813039e-01
7.6997828e-01
8.2261176e-01
8.6459231e-01
8.9427508e-01
9.0992301e-01
9.0983186e-01
8.9245563e-01
8.5652518e-01
8.0115761e-01
7.2595619e-01
6.3110066e-01
5.1742514e-01
3.8647715e-01
2.4054881e-01
8.2671631e-02
-8.3430331e-02
-2.5342897e-01
-4.2251844e-01
-5.8557370e-01
-7.3733641e-01
-8.7262384e-01
-9.8655478e-01
-1.0747828e+00
-1.1337238e+00
-1.1607625e+00
-1.1544237e+00
-1.1144911e+00
-1.0420608e+00
-9.3951717e-01
-8.1042933e-01
-6.5937333e-01
-4.9169380e-01
-3.1322671e-01
-1.3000773e-01
5.2009543e-02
2.2720692e-01
3.9051645e-01
5.3759302e-01
6.6494352e-01
7.7001075e-01
8.5121007e-01
9.0791766e-01
9.4040966e-01
9.4975215e-01
9.3764438e-01
9.0622419e-01
8.5785254e-01
7.9490114e-01
7.1956908e-01
6.3375064e-01
5.3896900e-01
4.3638315e-01
3.2686734e-01
2.1115459e-01
9.0026166e-02
-3.5480201e-02
-1.6387643e-01
-2.9307872e-01
-4.2033934e-01
-5.4227385e-01
-6.5498841e-01
-7.5429928e-01
-8.3602500e-01
-8.9632203e-01
-9.3202686e-01
-9.4096389e-01
-9.2217951e-01
-8.7607073e-01
-8.0438898e-01
-7.1011566e-01
-5.9722295e-01
-4.7034903e-01
-3.3442970e-01
-1.9433473e-01
-5.4554246e-02
8.1030191e-02
2.0927194e-01
3.2778303e-01
4.3487176e-01
5.2942179e-01
6.1074352e-01
6.7842572e-01
7.3220750e-01
7.7188297e-01
7.9724282e-01
8.0805232e-01
8.0406228e-01
7.8504879e-01
7.5087580e-01
7.0157143e-01
6.3740597e-01
5.5895903e-01
4.6716604e-01
3.6333954e-01
2.4916617e-01
1.2668449e-01
-1.7499058e-03
-1.3350692e-01
-2.6572991e-01
-3.9538904e-01
-5.1934111e-01
-6.3439826e-01
-7.3740852e-01
-8.2535033e-01
-8.9543998e-01
-9.4524786e-01
-9.7281604e-01
-9.7676792e-01
-9.5639981e-01
-9.1174464e-01
-8.4360112e-01
-7.5352663e-01
-6.4379634e-01
-5.1733332e-01
-3.7761325e-01
-2.2854528e-01
-7.4330150e-02
8.0702556e-02
2.3227351e-01
3.7634142e-01
5.0928757e-01
6.2808133e-01
7.3040862e-01
8.1474644e-01
8.8037169e-01
9.2730063e-01
9.5616399e-01
9.6802992e-01
9.6419207e-01
9.4594489e-01
9.1437219e-01
8.7017808e-01
8.1358712e-01
7.4433343e-01
6.6174666e-01
5.6492953e-01
4.5300932e-01
3.2543617e-01
1.8229383e-01
2.4584059e-02
-1.4555428e-01
-3.2472478e-01
-5.0827320e-01
-6.9041533e-01
-8.6448737e-01
-1.0233026e+00
-1.1595882e+00
-1.2664685e+00
-1.3379553e+00
-1.3694042e+00
-1.3579004e+00
-1.3025409e+00
-1.2045901e+00
-1.0674897e+00
-8.9671441e-01
-6.9947364e-01
-4.8427538e-01
-2.6038286e-01
-3.7207658e-02
1.7630947e-01
3.7227526e-01
5.4432328e-01
6.8794820e-01
8.0066244e-01
8.8196673e-01
9.3315102e-01
9.5696212e-01
9.5718458e-01
9.3818261e-01
9.0444793e-01
8.6019208e-01
8.0901308e-01
7.5365628e-01
6.9587950e-01
6.3642501e-01
5.7509345e-01
5.1090827e-01
4.4235341e-01
3.6766219e-01
2.8513171e-01
1.9343383e-01
9.1893850e-02
-1.9288115e-02
-1.3889234e-01
-2.6462438e-01
-3.9315727e-01
-5.2027272e-01
-6.4109684e-01
-7.5041774e-01
-8.4306290e-01
-9.1430375e-01
-9.6024689e-01
-9.7816860e-01
-9.6675342e-01
-9.2620902e-01
-8.5824657e-01
-7.6593378e-01
-6.5344172e-01
-5.2571605e-01
-3.8810687e-01
-2.4599180e-01
-1.0442514e-01
3.2158618e-02
1.6016347e-01
2.7695617e-01
3.8088838e-01
4.7121981e-01
5.4795628e-01
6.1162618e-01
6.6302521e-01
7.0296247e-01
7.3204045e-01
7.5049534e-01
7.5811352e-01
7.5422730e-01
7.3778432e-01
7.0748101e-01
6.6194846e-01
5.9997698e-01
5.2076093e-01
4.2414130e-01
3.1082025e-01
1.8252313e-01
4.2086672e-02
-1.0654186e-01
-2.5840452e-01
-4.0773586e-01
-5.4826658e-01
-6.7361472e-01
-7.7773785e-01
-8.5540549e-01
-9.0264129e-01
-9.1708271e-01
-8.9821315e-01
-8.4743538e-01
-7.6797299e-01
-6.6460652e-01
-5.4327002e-01
-4.1054997e-01
-2.7313859e-01
-1.3729780e-01
-8.3874545e-03
1.0949563e-01
2.1373329e-01
3.0323629e-01
3.7832534e-01
4.4045640e-01
4.9182265e-01
5.3488382e-01
5.7188637e-01
6.0444002e-01
6.3320624e-01
6.5773652e-01
6.7647601e-01
6.8692586e-01
6.8593736e-01
6.7009642e-01
6.3615028e-01
5.8142952e-01
5.0422422e-01
4.0408135e-01
2.8199978e-01
1.4050878e-01
-1.6372953e-02
-1.8329258e-01
-3.5382073e-01
-5.2079517e-01
-6.7672978e-01
-8.1426350e-01
-9.2662042e-01
-1.0080506e+00
-1.0542217e+00
-1.0625331e+00
-1.0323283e+00
-9.6498452e-01
-8.6386610e-01
-7.3413544e-01
-5.8242909e-01
-4.1641740e-01
-2.4427936e-01
-7.4135011e-02
8.6514458e-02
2.3128622e-01
3.5530697e-01
4.5546107e-01
5.3047970e-01
5.8087452e-01
6.0873489e-01
6.1741720e-01
6.1115952e-01
5.9465664e-01
5.7263060e-01
5.4942946e-01
5.2868110e-01
5.1302157e-01
5.0390979e-01
5.0153389e-01
5.0480980e-01
5.1146998e-01
5.1823912e-01
5.2109334e-01
5.1559516e-01
4.9728765e-01
4.6211984e-01
4.0686663e-01
3.2950305e-01
2.2949581e-01
1.0798218e-01
-3.2184267e-02
-1.8653044e-01
-3.4919992e-01
-5.1331124e-01
-6.7140779e-01
-8.1595930e-01
-9.3987146e-01
-1.0369619e+00
-1.1023679e+00
-1.1328583e+00
-1.1270317e+00
-1.0853887e+00
-1.0102728e+00
-9.0568520e-01
-7.7698607e-01
-6.3050697e-01
-4.7310544e-01
-3.1169890e-01
-1.5281694e-01
-2.2102721e-03
1.3545096e-01
2.5676711e-01
3.5967878e-01
4.4342338e-01
5.0839825e-01
5.5595783e-01
5.8817327e-01
6.0758025e-01
6.1693514e-01
6.1899397e-01
6.1632314e-01
6.1114548e-01
6.0522013e-01
5.9975213e-01
5.9532671e-01
5.9186673e-01
5.8861689e-01
5.8416386e-01
5.7650274e-01
5.6315652e-01
5.4134835e-01
5.0821978e-01
4.6108147e-01
3.9767870e-01
3.1645114e-01
2.1676756e-01
9.9119398e-02
-3.4741490e-02
-1.8173723e-01
-3.3748927e-01
-4.9645168e-01
-6.5216037e-01
-7.9759188e-01
-9.2561050e-01
-1.0294695e+00
-1.1033209e+00
-1.1426816e+00
-1.1448000e+00
-1.1088790e+00
-1.0361254e+00
-9.2962332e-01
-7.9405223e-01
-6.3529222e-01
-4.5996892e-01
-2.7499096e-01
-8.7125128e-02
9.7358372e-02
2.7295186e-01
4.3508037e-01
5.8017801e-01
7.0567974e-01
8.0994385e-01
8.9212397e-01
9.5201156e-01
9.8986833e-01
1.0062664e+00
1.0019501e+00
9.7773102e-01
9.3442324e-01
8.7282370e-01
7.9373453e-01
6.9802079e-01
5.8669282e-01
4.6100110e-01
3.2253107e-01
1.7328561e-01
1.5743429e-02
-1.4711644e-01
-3.1183009e-01
-4.7450567e-01
-6.3091851e-01
-7.7663724e-01
-9.0717274e-01
-1.0181434e+00
-1.1054539e+00
-1.1654889e+00
-1.1953189e+00
-1.1929109e+00
-1.1573236e+00
-1.0888607e+00
-9.8915282e-01
-8.6114663e-01
-7.0898960e-01
-5.3781424e-01
-3.5344102e-01
-1.6203085e-01
3.0275734e-02
2.1769588e-01
3.9508648e-01
5.5814801e-01
7.0353755e-01
8.2889029e-01
9.3275965e-01
1.0144947e+00
1.0740788e+00
1.1119527e+00
1.1288424e+00
1.1256050e+00
1.1031007e+00
1.0620997e+00
1.0032312e+00
9.2698200e-01
8.3374781e-01
7.2393680e-01
5.9811407e-01
4.5717014e-01
3.0249013e-01
1.3609928e-01
-3.9237470e-02
-2.1997881e-01
-4.0184289e-01
-5.7991611e-01
-7.4882772e-01
-9.0297798e-01
-1.0368062e+00
-1.1450848e+00
-1.2232255e+00
-1.2675811e+00
-1.2757257e+00
-1.2466883e+00
-1.1811164e+00
-1.0813406e+00
-9.5132128e-01
-7.9646524e-01
-6.2331544e-01
-4.3913363e-01
-2.5140901e-01
-6.7340138e-02
1.0665608e-01
2.6535373e-01
4.0500060e-01
5.2344652e-01
6.2011065e-01
6.9580180e-01
7.5242195e-01
7.9259353e-01
8.1925477e-01
8.3526558e-01
8.4306147e-01
8.4438590e-01
8.4012285e-01
8.3024000e-01
8.1383922e-01
7.8929867e-01
7.5448366e-01
7.0700161e-01
6.4447921e-01
5.6484366e-01
4.6659179e-01
3.4903171e-01
2.1248125e-01
5.8408902e-02
-1.1049470e-01
-2.9032372e-01
-4.7604810e-01
-6.6169139e-01
-8.4059451e-01
-1.0057583e+00
-1.1502488e+00
-1.2676396e+00
-1.3524537e+00
-1.4005620e+00
-1.4094956e+00
-1.3786367e+00
-1.3092677e+00
-1.2044698e+00
-1.0688803e+00
-9.0832635e-01
-7.2936828e-01
-5.3878853e-01
-3.4307369e-01
-1.4793813e-01
4.2062362e-02
2.2378461e-01
3.9558982e-01
5.5725954e-01
7.0974309e-01
8.5476415e-01
9.9433134e-01
1.1302063e+00
1.2633856e+00
1.3936488e+00
1.5192210e+00
1.6365868e+00
1.7404862e+00
1.8241047e+00
1.8794575e+00
1.8979483e+00
1.8710656e+00
1.7911646e+00
1.6522709e+00
1.4508390e+00
1.1863986e+00
8.6202636e-01
4.8459025e-01
6.4726234e-02
-3.8347466e-01
-8.4306666e-01
-1.2951115e+00
-1.7197551e+00
-2.0974527e+00
-2.4102611e+00
-2.6431026e+00
-2.7849031e+00
-2.8295001e+00
-2.7762299e+00
-2.6301064e+00
-2.4015380e+00
-2.1055643e+00
-1.7606544e+00
-1.3871706e+00
-1.0056569e+00
-6.3514251e-01
-2.9165196e-01
1.2923518e-02
2.7148631e-01
4.8188022e-01
6.4653776e-01
7.7168869e-01
8.6623101e-01
9.4039406e-01
1.0043420e+00
1.0668698e+00
1.1343310e+00
1.2099090e+00
1.2932994e+00
1.3808263e+00
1.4659660e+00
1.5402072e+00
1.5941372e+00
1.6186186e+00
1.6059058e+00
1.5505625e+00
1.4500717e+00
1.3050818e+00
1.1192906e+00
8.9902675e-01
6.5262340e-01
3.8968772e-01
1.2036194e-01
-1.4535155e-01
-3.9815328e-01
-6.2987506e-01
-8.3377078e-01
-1.0046794e+00
-1.1390778e+00
-1.2350453e+00
-1.2921626e+00
-1.3113649e+00
-1.2947654e+00
-1.2454600e+00
-1.1673199e+00
-1.0647766e+00
-9.4260261e-01
-8.0569417e-01
-6.5886771e-01
-5.0668547e-01
-3.5332462e-01
-2.0249966e-01
-5.7440604e-02
7.9077939e-02
2.0466768e-01
3.1723354e-01
4.1487685e-01
4.9581832e-01
5.5836266e-01
6.0092027e-01
6.2208909e-01
6.2078659e-01
5.9641197e-01
5.4901398e-01
4.7944136e-01
3.8945567e-01
2.8179179e-01
1.6015590e-01
2.9156289e-02
-1.0583470e-01
-2.3888730e-01
-3.6378701e-01
-4.7436521e-01
-5.6487039e-01
-6.3035239e-01
-6.6702315e-01
-6.7255390e-01
-6.4627348e-01
-5.8924466e-01
-5.0421146e-01
-3.9542392e-01
-2.6835523e-01
-1.2933207e-01
1.4895187e-02
1.5760918e-01
2.9257139e-01
4.1441860e-01
5.1897559e-01
6.0345761e-01
6.6654600e-01
7.0833216e-01
7.3013789e-01
7.3423339e-01
7.2348567e-01
7.0097830e-01
6.6964597e-01
6.3196428e-01
5.8972623e-01
5.4392420e-01
4.9474135e-01
4.4164233e-01
3.8354253e-01
3.1902975e-01
2.4661258e-01
1.6497379e-01
7.3211149e-02
-2.8949077e-02
-1.4097946e-01
-2.6143206e-01
-3.8788301e-01
-5.1694925e-01
-6.4438310e-01
-7.6524790e-01
-8.7417270e-01
-9.6567544e-01
-1.0345338e+00
-1.0761755e+00
-1.0870553e+00
-1.0649840e+00
-1.0093748e+00
-9.2137596e-01
-8.0386908e-01
-6.6132402e-01
-4.9951949e-01
-3.2515202e-01
-1.4537045e-01
3.2717444e-02
2.0251617e-01
3.5834436e-01
4.9573018e-01
6.1157769e-01
7.0419906e-01
7.7322318e-01
8.1940486e-01
8.4436632e-01
8.5030589e-01
8.3970679e-01
8.1507430e-01
7.7872200e-01
7.3261927e-01
6.7830360e-01
6.1685503e-01
5.4892591e-01
4.7481770e-01
3.9459525e-01
3.0822623e-01
2.1573109e-01
1.1732825e-01
1.3561544e-02
-9.4597927e-02
-2.0568009e-01
-3.1767677e-01
-4.2803895e-01
-5.3371637e-01
-6.3124575e-01
-7.1689208e-01
-7.8684170e-01
-8.3743924e-01
-8.6545336e-01
-8.6835012e-01
-8.4454821e-01
-7.9362672e-01
-7.1645733e-01
-6.1523988e-01
-4.9343118e-01
-3.5556960e-01
-2.0700863e-01
-5.3582389e-02
9.8766737e-02
2.4436463e-01
3.7815115e-01
4.9596238e-01
5.9472264e-01
6.7252928e-01
7.2862623e-01
7.6327566e-01
7.7754963e-01
7.7307267e-01
7.5175022e-01
7.1551757e-01
6.6613863e-01
6.0507479e-01
5.3343290e-01
4.5199190e-01
3.6129961e-01
2.6182635e-01
1.5415706e-01
3.9199633e-02
-8.1616240e-02
-2.0617794e-01
-3.3159434e-01
-4.5418964e-01
-5.6960189e-01
-6.7298923e-01
-7.5933343e-01
-8.2381681e-01
-8.6223822e-01
-8.7142687e-01
-8.4960988e-01
-7.9669150e-01
-7.1440706e-01
-6.0632422e-01
-4.7767795e-01
-3.3504314e-01
-1.8586857e-01
-3.7913776e-02
1.0135534e-01
2.2535011e-01
3.2886239e-01
4.0843861e-01
4.6259121e-01
4.9183143e-01
4.9852481e-01
4.8658657e-01
4.6104582e-01
4.2751841e-01
3.9163780e-01
3.5849983e-01
3.3217660e-01
3.1534544e-01
3.0906424e-01
3.1270983e-01
3.2408185e-01
3.3966038e-01
3.5499069e-01
3.6515519e-01
3.6528514e-01
3.5106334e-01
3.1917317e-01
2.6765771e-01
1.9616211e-01
1.0604277e-01
3.3536046e-04
-1.1641854e-01
-2.3847837e-01
-3.5932663e-01
-4.7217619e-01
-5.7052143e-01
-6.4868257e-01
-7.0228861e-01
-7.2864863e-01
-7.2697292e-01
-6.9842096e-01
-6.4597078e-01
-5.7412052e-01
-4.8844927e-01
-3.9507840e-01
-3.0008677e-01
-2.0894078e-01
-1.2600165e-01
-5.4164582e-02
5.3310234e-03
5.2902394e-02
9.0440023e-02
1.2096617e-01
1.4817931e-01
1.7594075e-01
2.0776358e-01
2.4635912e-01
2.9328516e-01
3.4872638e-01
4.1142312e-01
4.7875069e-01
5.4693640e-01
6.1138711e-01
6.6708788e-01
7.0902695e-01
7.3260495e-01
7.3399485e-01
7.1043055e-01
6.6041340e-01
5.8383492e-01
4.8201879e-01
3.5768603e-01
2.1484608e-01
5.8616564e-02
-1.0502311e-01
-2.6953388e-01
-4.2815982e-01
-5.7429332e-01
-7.0184287e-01
-8.0558100e-01
-8.8144837e-01
-9.2679010e-01
-9.4050409e-01
-9.2308681e-01
-8.7656965e-01
-8.0434736e-01
-7.1091024e-01
-6.0150207e-01
-4.8173437e-01
-3.5719349e-01
-2.3307824e-01
-1.1390081e-01
-3.2739736e-03
9.6206160e-02
1.8298417e-01
2.5648656e-01
3.1699441e-01
3.6546407e-01
4.0331631e-01
4.3221807e-01
4.5388146e-01
4.6989994e-01
4.8163191e-01
4.9013177e-01
4.9612081e-01
4.9998499e-01
5.0178571e-01
5.0127306e-01
4.9789769e-01
4.9082501e-01
4.7895974e-01
4.6099038e-01
4.3546059e-01
4.0087114e-01
3.5581155e-01
2.9911524e-01
2.3002649e-01
1.4836343e-01
5.4660739e-02
-4.9722242e-02
-1.6254099e-01
-2.8066523e-01
-4.0014955e-01
-5.1638266e-01
-6.2431606e-01
-7.1876229e-01
-7.9474271e-01
-8.4785485e-01
-8.7462437e-01
-8.7280473e-01
-8.4159240e-01
-7.8173387e-01
-6.9551197e-01
-5.8661047e-01
-4.5986729e-01
-3.2093772e-01
-1.7589923e-01
-3.0835072e-02
1.0856445e-01
2.3734727e-01
3.5156323e-01
4.4842864e-01
5.2638660e-01
5.8506817e-01
6.2516657e-01
6.4824148e-01
6.5647459e-01
6.5239945e-01
6.3863008e-01
6.1761042e-01
5.9140234e-01
5.6152373e-01
5.2884218e-01
4.9352630e-01
4.5505482e-01
4.1228358e-01
3.6357065e-01
3.0695826e-01
2.4040693e-01
1.6207230e-01
7.0609475e-02
-3.4517315e-02
-1.5275016e-01
-2.8221516e-01
-4.1960139e-01
-5.6017524e-01
-6.9795254e-01
-8.2603239e-01
-9.3707483e-01
-1.0238824e+00
-1.0800296e+00
-1.1004724e+00
-1.0820688e+00
-1.0239422e+00
-9.2763576e-01
-7.9702844e-01
-6.3801923e-01
-4.5801728e-01
-2.6530422e-01
-6.8349244e-02
1.2484095e-01
3.0726755e-01
4.7333032e-01
6.1903848e-01
7.4204056e-01
8.4149281e-01
9.1780048e-01
9.7227428e-01
1.0067478e+00
1.0232013e+00
1.0234337e+00
1.0088158e+00
9.8014748e-01
9.3762800e-01
8.8093429e-01
8.0939229e-01
7.2221631e-01
6.1878600e-01
4.9892690e-01
3.6316178e-01
2.1290497e-01
5.0578972e-02
-1.2035959e-01
-2.9548971e-01
-4.6958856e-01
-6.3687723e-01
-7.9133365e-01
-9.2705145e-01
-1.0386181e+00
-1.1214825e+00
-1.1722813e+00
-1.1890978e+00
-1.1716292e+00
-1.1212446e+00
-1.0409218e+00
-9.3505855e-01
-8.0916866e-01
-6.6948454e-01
-5.2249875e-01
-3.7448329e-01
-2.3102784e-01
-9.6639103e-02
2.5559113e-02
1.3399117e-01
2.2863873e-01
3.1088873e-01
3.8323384e-01
4.4885514e-01
5.1113050e-01
5.7312000e-01
6.3708259e-01
7.0407392e-01
7.7366666e-01
8.4382426e-01
9.1094690e-01
9.7009342e-01
1.0153645e+00
1.0404132e+00
1.0390356e+00
1.0057871e+00
9.3656969e-01
8.2914051e-01
6.8349701e-01
5.0210179e-01
2.8992274e-01
5.4276864e-02
-1.9551870e-01
-4.4866946e-01
-6.9356537e-01
-9.1853211e-01
-1.1126124e+00
-1.2663120e+00
-1.3722464e+00
-1.4256291e+00
-1.4245600e+00
-1.3700905e+00
-1.2660693e+00
-1.1187877e+00
-9.3646510e-01
-7.2861923e-01
-5.0538127e-01
-2.7681417e-01
-5.2293085e-02
1.6000339e-01
3.5345646e-01
5.2320641e-01
6.6618840e-01
7.8102300e-01
8.6779416e-01
9.2775318e-01
9.6298636e-01
9.7607842e-01
9.6979726e-01
9.4682039e-01
9.0951899e-01
8.5981047e-01
7.9908499e-01
7.2820493e-01
6.4757021e-01
5.5723855e-01
4.5708845e-01
3.4701178e-01
2.2712121e-01
9.7953433e-02
-3.9354187e-02
-1.8293622e-01
-3.3013963e-01
-4.7754298e-01
-6.2105617e-01
-7.5609492e-01
-8.7781668e-01
-9.8139966e-01
-1.0623427e+00
-1.1167630e+00
-1.1416715e+00
-1.1352053e+00
-1.0968017e+00
-1.0272975e+00
-9.2894016e-01
-8.0530164e-01
-6.6108967e-01
-5.0186304e-01
-3.3366964e-01
-1.6263943e-01
5.4256245e-03
1.6541963e-01
3.1321775e-01
4.4584866e-01
5.6154126e-01
6.5965002e-01
7.4047976e-01
8.0504020e-01
8.5476528e-01
8.9123076e-01
9.1590017e-01
9.2992418e-01
9.3401127e-01
9.2837791e-01
9.1277454e-01
8.8657333e-01
8.4889810e-01
7.9877558e-01
7.3528866e-01
6.5771704e-01
5.6565607e-01
4.5911002e-01
3.3855971e-01
2.0500719e-01
6.0002560e-02
-9.4340676e-02
-2.5533759e-01
-4.1973135e-01
-5.8370675e-01
-7.4292911e-01
-8.9262161e-01
-1.0276922e+00
-1.1429163e+00
-1.2331735e+00
-1.2937341e+00
-1.3205796e+00
-1.3107381e+00
-1.2626030e+00
-1.1761966e+00
-1.0533398e+00
-8.9769320e-01
-7.1464864e-01
-5.1106903e-01
-2.9489190e-01
-7.4630564e-02
1.4118165e-01
3.4455160e-01
5.2853702e-01
6.8765752e-01
8.1816623e-01
9.1815821e-01
9.8750993e-01
1.0276622e+00
1.0412750e+00
1.0317965e+00
1.0029975e+00
9.5852749e-01
9.0154101e-01
8.3443562e-01
7.5872398e-01
6.7504683e-01
5.8331703e-01
4.8297118e-01
3.7329453e-01
2.5377856e-01
1.2446868e-01
-1.3738728e-02
-1.5888500e-01
-3.0785178e-01
-4.5639612e-01
-5.9932595e-01
-7.3080935e-01
-8.4479360e-01
-9.3549222e-01
-9.9788608e-01
-1.0281815e+00
-1.0241746e+00
-9.8548060e-01
-9.1360347e-01
-8.1183404e-01
-6.8498670e-01
-5.3900295e-01
-3.8046848e-01
-2.1610234e-01
-5.2279094e-02
1.0536344e-01
2.5219529e-01
3.8472971e-01
5.0062827e-01
5.9859686e-01
6.7820340e-01
7.3965190e-01
7.8354604e-01
8.1067096e-01
8.2181392e-01
8.1763642e-01
7.9860286e-01
7.6496585e-01
7.1680480e-01
6.5411090e-01
5.7690762e-01
4.8539222e-01
3.8008222e-01
2.6195119e-01
1.3253919e-01
-5.9744552e-03
-1.5074451e-01
-2.9828342e-01
-4.4453644e-01
-5.8500787e-01
-7.1493659e-01
-8.2951537e-01
-9.2414406e-01
-9.9470195e-01
-1.0378204e+00
-1.0511341e+00
-1.0334867e+00
-9.8506615e-01
-9.0744784e-01
-8.0353118e-01
-6.7736848e-01
-5.3389896e-01
-3.7861216e-01
-2.1717374e-01
-5.5051621e-02
1.0281871e-01
2.5229596e-01
3.9019767e-01
5.1435542e-01
6.2356178e-01
7.1742263e-01
7.9613953e-01
8.6025439e-01
9.1039207e-01
9.4703456e-01
9.7035249e-01
9.8010985e-01
9.7564682e-01
9.5593663e-01
9.1970509e-01
8.6559692e-01
7.9237092e-01
6.9910800e-01
5.8541875e-01
4.5163834e-01
2.9899532e-01
1.2973901e-01
-5.2790531e-02
-2.4416440e-01
-4.3894935e-01
-6.3088020e-01
-8.1311853e-01
-9.7858817e-01
-1.1203690e+00
-1.2321209e+00
-1.3085049e+00
-1.3455624e+00
-1.3410192e+00
-1.2944846e+00
-1.2075223e+00
-1.0835862e+00
-9.2781800e-01
-7.4672190e-01
-5.4773876e-01
-3.3875638e-01
-1.2760286e-01
7.8426045e-02
2.7295840e-01
4.5082151e-01
6.0818361e-01
7.4256183e-01
8.5271136e-01
9.3842237e-01
1.0002584e+00
1.0392738e+00
1.0567465e+00
1.0539608e+00
1.0320607e+00
9.9198769e-01
9.3449765e-01
8.6024197e-01
7.6988890e-01
6.6425809e-01
5.4444570e-01
4.1192621e-01
2.6862575e-01
1.1696837e-01
-4.0104095e-02
-1.9914086e-01
-3.5622658e-01
-5.0706748e-01
-6.4712294e-01
-7.7178251e-01
-8.7658577e-01
-9.5747842e-01
-1.0110911e+00
-1.0350194e+00
-1.0280736e+00
-9.9046713e-01
-9.2391063e-01
-8.3159186e-01
-7.1802965e-01
-5.8880343e-01
-4.5017324e-01
-3.0861857e-01
-1.7033685e-01
-4.0751209e-02
7.5919427e-02
1.7697881e-01
2.6142210e-01
3.2993190e-01
3.8469644e-01
4.2906320e-01
4.6706006e-01
5.0283241e-01
5.4005547e-01
5.8138524e-01
6.2800779e-01
6.7933906e-01
7.3291461e-01
7.8449211e-01
8.2836741e-01
8.5787842e-01
8.6604567e-01
8.4627985e-01
7.9308122e-01
7.0266242e-01
5.7344241e-01
4.0637817e-01
2.0511860e-01
-2.4022544e-02
-2.7227098e-01
-5.2876628e-01
-7.8109490e-01
-1.0159636e+00
-1.2199852e+00
-1.3805355e+00
-1.4866298e+00
-1.5297520e+00
-1.5045705e+00
-1.4094735e+00
-1.2468663e+00
-1.0231912e+00
-7.4864555e-01
-4.3660506e-01
-1.0278535e-01
2.3579339e-01
5.6194913e-01
8.5948204e-01
1.1142127e+00
1.3148230e+00
1.4534359e+00
1.5259042e+00
1.5318121e+00
1.4742203e+00
1.3592095e+00
1.1952824e+00
9.9268886e-01
7.6272866e-01
5.1707329e-01
2.6713584e-01
2.3505975e-02
-2.0453833e-01
-4.0943193e-01
-5.8562370e-01
-7.2976142e-01
-8.4074145e-01
-9.1960472e-01
-9.6926671e-01
-9.9408284e-01
-9.9927082e-01
-9.9023624e-01
-9.7187358e-01
-9.4793506e-01
-9.2056186e-01
-8.9005201e-01
-8.5490154e-01
-8.1211293e-01
-7.5772617e-01
-6.8749763e-01
-5.9763486e-01
-4.8549021e-01
-3.5012417e-01
-1.9266579e-01
-1.6423530e-02
1.7326802e-01
3.6944510e-01
5.6410357e-01
7.4890602e-01
9.1592358e-01
1.0583284e+00
1.1709591e+00
1.2506969e+00
1.2966089e+00
1.3098494e+00
1.2933346e+00
1.2512402e+00
1.1883924e+00
1.1096352e+00
1.0192606e+00
9.2057249e-01
8.1563411e-01
7.0521878e-01
5.8895549e-01
4.6563844e-01
3.3365191e-01
1.9145180e-01
3.8042381e-02
-1.2660894e-01
-3.0126621e-01
-4.8326173e-01
-6.6849148e-01
-8.5156847e-01
-1.0261181e+00
-1.1851867e+00
-1.3217245e+00
-1.4290983e+00
-1.5015857e+00
-1.5348073e+00
-1.5260589e+00
-1.4745216e+00
-1.3813360e+00
-1.2495426e+00
-1.0839002e+00
-8.9060743e-01
-6.7695400e-01
-4.5092776e-01
-2.2080131e-01
5.2813337e-03
2.1969620e-01
4.1568772e-01
5.8765415e-01
7.3135292e-01
8.4401328e-01
9.2435122e-01
9.7249141e-01
9.8981125e-01
9.7872898e-01
9.4246154e-01
8.8477570e-01
8.0975230e-01
7.2157652e-01
6.2436102e-01
5.2200355e-01
4.1807640e-01
3.1574339e-01
2.1769920e-01
1.2612791e-01
4.2681863e-02
-3.1514739e-02
-9.5833599e-02
-1.5008062e-01
-1.9440804e-01
-2.2920768e-01
-2.5499620e-01
-2.7230567e-01
-2.8159220e-01
-2.8317183e-01
-2.7718979e-01
-2.6362597e-01
-2.4233772e-01
-2.1313787e-01
-1.7590053e-01
-1.3068271e-01
-7.7846165e-02
-1.8165428e-02
4.7088617e-02
1.1609728e-01
1.8648174e-01
2.5533728e-01
3.1932004e-01
3.7478875e-01
4.1799832e-01
4.4533711e-01
4.5359318e-01
4.4022966e-01
4.0364453e-01
3.4339097e-01
2.6033632e-01
1.5674228e-01
3.6253085e-02
-9.6215928e-02
-2.3468968e-01
-3.7243782e-01
-5.0235911e-01
-6.1742725e-01
-7.1117375e-01
-7.7817630e-01
-8.1451408e-01
-8.1814628e-01
-7.8916904e-01
-7.2991065e-01
-6.4483490e-01
-5.4023784e-01
-4.2374370e-01
-3.0363127e-01
-1.8805147e-01
-8.4224427e-02
2.2788507e-03
6.8069811e-02
1.1221734e-01
1.3623234e-01
1.4377284e-01
1.4011590e-01
1.3146670e-01
1.2418684e-01
1.2402768e-01
1.3545080e-01
1.6110837e-01
2.0154049e-01
2.5512458e-01
3.1828297e-01
3.8592226e-01
4.5204660e-01
5.1046558e-01
5.5550873e-01
5.8266325e-01
5.8906523e-01
5.7379422e-01
5.3794443e-01
4.8447154e-01
4.1784053e-01
3.4352344e-01
2.6741216e-01
1.9521704e-01
1.3191609e-01
8.1306579e-02
4.5694067e-02
2.5737566e-02
2.0453601e-02
2.7367390e-02
4.2788124e-02
6.2177322e-02
8.0574340e-02
9.3041396e-02
9.5092089e-02
8.3071749e-02
5.4463882e-02
8.1035101e-03
-5.5715090e-02
-1.3524221e-01
-2.2738784e-01
-3.2794135e-01
-4.3188017e-01
-5.3374251e-01
-6.2803038e-01
-7.0960690e-01
-7.7405512e-01
-8.1797353e-01
-8.3919041e-01
-8.3688357e-01
-8.1159507e-01
-7.6513611e-01
-7.0038600e-01
-6.2099957e-01
-5.3104896e-01
-4.3463499e-01
-3.3550982e-01
-2.3675342e-01
-1.4054147e-01
-4.8031221e-02
4.0623227e-02
1.2613021e-01
2.0981301e-01
2.9328489e-01
3.7808402e-01
4.6531004e-01
5.5530734e-01
6.4743736e-01
7.3997291e-01
8.3013021e-01
9.1423318e-01
9.8798561e-01
1.0468125e+00
1.0862266e+00
1.1021806e+00
1.0913736e+00
1.0514937e+00
9.8138587e-01
8.8114346e-01
7.5212646e-01
5.9691447e-01
4.1920615e-01
2.2367807e-01
1.5816705e-02
-1.9826520e-01
-4.1202126e-01
-6.1867271e-01
-8.1142296e-01
-9.8369278e-01
-1.1293805e+00
-1.2431439e+00
-1.3206903e+00
-1.3590499e+00
-1.3568053e+00
-1.3142445e+00
-1.2334105e+00
-1.1180272e+00
-9.7329445e-01
-8.0556502e-01
-6.2192947e-01
-4.2975150e-01
-2.3620133e-01
-4.7835138e-02
1.2973970e-01
2.9208761e-01
4.3604572e-01
5.5970584e-01
6.6229270e-01
7.4396292e-01
8.0555662e-01
8.4833764e-01
8.7375681e-01
8.8326642e-01
8.7820310e-01
8.5974193e-01
8.2891136e-01
7.8664792e-01
7.3386499e-01
6.7151042e-01
6.0059458e-01
5.2218161e-01
4.3735067e-01
3.4714479e-01
2.5253067e-01
1.5438925e-01
5.3547354e-02
-4.9152871e-02
-1.5276122e-01
-2.5612361e-01
-3.5780320e-01
-4.5603453e-01
-5.4872080e-01
-6.3348000e-01
-7.0774189e-01
-7.6889372e-01
-8.1446630e-01
-8.4234366e-01
-8.5097215e-01
-8.3954064e-01
-8.0810479e-01
-7.5763400e-01
-6.8996945e-01
-6.0769337e-01
-5.1392293e-01
-4.1205288e-01
-3.0547857e-01
-1.9733214e-01
-9.0262919e-02
1.3712344e-02
1.1327118e-01
2.0775093e-01
2.9702188e-01
3.8128510e-01
4.6082334e-01
5.3574127e-01
6.0573316e-01
6.6991307e-01
7.2673494e-01
7.7401900e-01
8.0908657e-01
8.2899026e-01
8.3081187e-01
8.1199064e-01
7.7064114e-01
7.0582383e-01
6.1773923e-01
5.0782798e-01
3.7877156e-01
2.3440026e-01
7.9522872e-02
-8.0304705e-02
-2.3905495e-01
-3.9053162e-01
-5.2868356e-01
-6.4791410e-01
-7.4337268e-01
-8.1121653e-01
-8.4882918e-01
-8.5498072e-01
-8.2991320e-01
-7.7533648e-01
-6.9432558e-01
-5.9112029e-01
-4.7083851e-01
-3.3912557e-01
-2.0177050e-01
-6.4325379e-02
6.8236280e-02
1.9179004e-01
3.0323521e-01
4.0055877e-01
4.8278536e-01
5.4982294e-01
6.0222531e-01
6.4090193e-01
6.6681230e-01
6.8068326e-01
6.8278501e-01
6.7279306e-01
6.4975168e-01
6.1214263e-01
5.5805347e-01
4.8543206e-01
3.9240650e-01
2.7764224e-01
1.4070180e-01
-1.7630293e-02
-1.9509397e-01
-3.8780420e-01
-5.9023156e-01
-7.9532731e-01
-9.9479389e-01
-1.1794877e+00
-1.3399304e+00
-1.4668957e+00
-1.5520304e+00
-1.5884621e+00
-1.5713403e+00
-1.4982619e+00
-1.3695349e+00
-1.1882500e+00
-9.6014683e-01
-6.9328335e-01
-3.9753643e-01
-8.3980207e-02
2.3580318e-01
5.5042048e-01
8.4931291e-01
1.1232968e+00
1.3649572e+00
1.5688703e+00
1.7316492e+00
1.8518280e+00
1.9296129e+00
1.9665381e+00
1.9650703e+00
1.9282080e+00
1.8591133e+00
1.7608117e+00
1.6359833e+00
1.4868549e+00
1.3151959e+00
1.1224035e+00
9.0966016e-01
6.7813359e-01
4.2919322e-01
1.6461650e-01
-1.1322961e-01
-4.0123996e-01
-6.9545885e-01
-9.9100896e-01
-1.2820707e+00
-1.5619254e+00
-1.8230754e+00
-2.0574541e+00
-2.2567293e+00
-2.4126983e+00
-2.5177607e+00
-2.5654398e+00
-2.5509155e+00
-2.4715156e+00
-2.3271118e+00
-2.1203692e+00
-1.8568062e+00
-1.5446433e+00
-1.1944349e+00
-8.1850414e-01
-4.3021722e-01
-4.3151470e-02
3.2977210e-01
6.7711136e-01
9.8959607e-01
1.2606142e+00
1.4864360e+00
1.6661542e+00
1.8013555e+00
1.8955738e+00
1.9535980e+00
1.9807213e+00
1.9820185e+00
1.9617318e+00
1.9228246e+00
1.8667409e+00
1.7933788e+00
1.7012686e+00
1.5879290e+00
1.4503670e+00
1.2856771e+00
1.0916817e+00
8.6755006e-01
6.1432526e-01
3.3529424e-01
3.6149117e-02
-2.7509707e-01
-5.8845228e-01
-8.9252813e-01
-1.1753146e+00
-1.4250700e+00
-1.6312337e+00
-1.7852655e+00
-1.8813246e+00
-1.9167218e+00
-1.8920992e+00
-1.8113238e+00
-1.6811096e+00
-1.5104126e+00
-1.3096653e+00
-1.0899333e+00
-8.6207779e-01
-6.3600179e-01
-4.2004538e-01
-2.2057314e-01
-4.1775987e-02
1.1431345e-01
2.4761390e-01
3.5963543e-01
4.5301588e-01
5.3100821e-01
5.9697326e-01
6.5392758e-01
7.0418654e-01
7.4912887e-01
7.8909355e-01
8.2340395e-01
8.5050252e-01
8.6817176e-01
8.7381347e-01
8.6475751e-01
8.3857247e-01
7.9335325e-01
7.2796372e-01
6.4221711e-01
5.3698242e-01
4.1421176e-01
2.7689112e-01
1.2892239e-01
-2.5051169e-02
-1.7986329e-01
-3.3007489e-01
-4.7024493e-01
-5.9520993e-01
-7.0035757e-01
-7.8187707e-01
-8.3696892e-01
-8.6399868e-01
-8.6258226e-01
-8.3359172e-01
-7.7907414e-01
-7.0208321e-01
-6.0643528e-01
-4.9641463e-01
-3.7646186e-01
-2.5088255e-01
-1.2360830e-01
1.9670191e-03
1.2306491e-01
2.3751512e-01
3.4367695e-01
4.4031237e-01
5.2643909e-01
6.0118920e-01
6.6369321e-01
7.1300160e-01
7.4805127e-01
7.6767942e-01
7.7068289e-01
7.5591671e-01
7.2242078e-01
6.6956054e-01
5.9716586e-01
5.0565287e-01
3.9611741e-01
2.7039470e-01
1.3108385e-01
-1.8462306e-02
-1.7418297e-01
-3.3139336e-01
-4.8490983e-01
-6.2921838e-01
-7.5868680e-01
-8.6781760e-01
-9.5153521e-01
-1.0054951e+00
-1.0263951e+00
-1.0122625e+00
-9.6268503e-01
-8.7895457e-01
-7.6409619e-01
-6.2276411e-01
-4.6100131e-01
-2.8587629e-01
-1.0502685e-01
7.3846933e-02
2.4349055e-01
3.9755285e-01
5.3094938e-01
6.4009936e-01
7.2301996e-01
7.7927772e-01
8.0981102e-01
8.1664987e-01
8.0256789e-01
7.7070752e-01
7.2422059e-01
6.6596301e-01
5.9827313e-01
5.2285169e-01
4.4074888e-01
3.5245328e-01
2.5806584e-01
1.5753273e-01
5.0903458e-02
-6.1419836e-02
-1.7847061e-01
-2.9856468e-01
-4.1922044e-01
-5.3716320e-01
-6.4841924e-01
-7.4849705e-01
-8.3264361e-01
-8.9615461e-01
-9.3471081e-01
-9.4470970e-01
-9.2356272e-01
-8.6993337e-01
-7.8389914e-01
-6.6702768e-01
-5.2236344e-01
-3.5432454e-01
-1.6851369e-01
2.8546764e-02
2.2973862e-01
4.2770775e-01
6.1523539e-01
7.8559530e-01
9.3287119e-01
1.0522116e+00
1.1400060e+00
1.1939753e+00
1.2131794e+00
1.1979532e+00
1.1497848e+00
1.0711522e+00
9.6532993e-01
8.3617544e-01
6.8790356e-01
5.2485901e-01
3.5130315e-01
1.7123384e-01
-1.1742500e-02
-1.9447150e-01
-3.7423590e-01
-5.4866546e-01
-7.1558287e-01
-8.7280862e-01
-1.0179579e+00
-1.1482689e+00
-1.2605027e+00
-1.3509484e+00
-1.4155552e+00
-1.4501945e+00
-1.4510320e+00
-1.4149656e+00
-1.3400732e+00
-1.2260053e+00
-1.0742669e+00
-8.8834099e-01
-6.7362803e-01
-4.3719708e-01
-1.8736628e-01
6.6845467e-02
3.1633775e-01
5.5255153e-01
7.6802822e-01
9.5684655e-01
1.1148934e+00
1.2399448e+00
1.3315565e+00
1.3907903e+00
1.4198222e+00
1.4214945e+00
1.3988730e+00
1.3548663e+00
1.2919453e+00
1.2119858e+00
1.1162393e+00
1.0054229e+00
8.7990419e-01
7.3994928e-01
5.8599231e-01
4.1888716e-01
2.4010907e-01
5.1884944e-02
-1.4275728e-01
-3.4002002e-01
-5.3544143e-01
-7.2406387e-01
-9.0065106e-01
-1.0599366e+00
-1.1968853e+00
-1.3069484e+00
-1.3862986e+00
-1.4320313e+00
-1.4423234e+00
-1.4165442e+00
-1.3553139e+00
-1.2605105e+00
-1.1352227e+00
-9.8364868e-01
-8.1094085e-01
-6.2299615e-01
-4.2619551e-01
-2.2710106e-01
-3.2127283e-02
1.5279115e-01
3.2250731e-01
4.7291624e-01
6.0112867e-01
7.0554517e-01
7.8582370e-01
8.4274666e-01
8.7800743e-01
8.9394582e-01
8.9326653e-01
8.7877190e-01
8.5313158e-01
8.1870197e-01
7.7740003e-01
7.3063133e-01
6.7926943e-01
6.2368192e-01
5.6379682e-01
4.9920255e-01
4.2927511e-01
3.5332633e-01
2.7076659e-01
1.8127213e-01
8.4944550e-02
-1.7551335e-02
-1.2488498e-01
-2.3500538e-01
-3.4514495e-01
-4.5189054e-01
-5.5132623e-01
-6.3924737e-01
-7.1143743e-01
-7.6399106e-01
-7.9365830e-01
-7.9817873e-01
-7.7656984e-01
-7.2933304e-01
-6.5854344e-01
-5.6779689e-01
-4.6200179e-01
-3.4702289e-01
-2.2920763e-01
-1.1484625e-01
-9.6298220e-03
8.1828298e-02
1.5635144e-01
2.1239957e-01
2.5009184e-01
2.7105610e-01
2.7813133e-01
2.7496642e-01
2.6556712e-01
2.5384334e-01
2.4320244e-01
2.3622426e-01
2.3444304e-01
2.3825058e-01
2.4692424e-01
2.5877167e-01
2.7137155e-01
2.8187928e-01
2.8736067e-01
2.8511720e-01
2.7297146e-01
2.4948901e-01
2.1412131e-01
1.6726305e-01
1.1022578e-01
4.5136486e-02
-2.5225965e-02
-9.7640457e-02
-1.6868145e-01
-2.3496440e-01
-2.9337638e-01
-3.4127052e-01
-3.7660704e-01
-3.9803273e-01
-4.0490064e-01
-3.9723988e-01
-3.7568935e-01
-3.4140942e-01
-2.9598283e-01
-2.4131183e-01
-1.7951421e-01
-1.1281821e-01
-4.3455987e-02
2.6442461e-02
9.4949656e-02
1.6042728e-01
2.2158997e-01
2.7753787e-01
3.2775191e-01
3.7204936e-01
4.1050212e-01
4.4332315e-01
4.7072985e-01
4.9279506e-01
5.0930038e-01
5.1960884e-01
5.2257604e-01
5.1651847e-01
4.9925662e-01
4.6824589e-01
4.2080053e-01
3.5440380e-01
2.6708394e-01
1.5782310e-01
2.6953689e-02
-1.2351254e-01
-2.8968058e-01
-4.6574334e-01
-6.4415935e-01
-8.1604362e-01
-9.7175181e-01
-1.1016125e+00
-1.1967406e+00
-1.2498501e+00
-1.2559801e+00
-1.2130509e+00
-1.1221782e+00
-9.8769653e-01
-8.1687162e-01
-6.1931623e-01
-4.0616421e-01
-1.8908664e-01
2.0743961e-02
2.1362850e-01
3.8214840e-01
5.2171507e-01
6.3079868e-01
7.1080855e-01
7.6564146e-01
8.0096100e-01
8.2331056e-01
8.3918352e-01
8.5416986e-01
8.7227340e-01
8.9545954e-01
9.2345803e-01
9.5381619e-01
9.8217548e-01
1.0027284e+00
1.0088039e+00
9.9352735e-01
9.5050136e-01
8.7445658e-01
7.6182598e-01
6.1120021e-01
4.2362980e-01
2.0274957e-01
-4.5286193e-02
-3.1205304e-01
-5.8727027e-01
-8.5934830e-01
-1.1160336e+00
-1.3451136e+00
-1.5351432e+00
-1.6761548e+00
-1.7603075e+00
-1.7824324e+00
-1.7404261e+00
-1.6354548e+00
-1.4719382e+00
-1.2573070e+00
-1.0015461e+00
-7.1655950e-01
-4.1541377e-01
-1.1152235e-01
1.8216092e-01
4.5387808e-01
6.9368197e-01
8.9389313e-01
1.0493767e+00
1.1576326e+00
1.2187057e+00
1.2349368e+00
1.2105846e+00
1.1513540e+00
1.0638736e+00
9.5516427e-01
8.3213924e-01
7.0117199e-01
5.6776031e-01
4.3630742e-01
3.1002800e-01
1.9097285e-01
8.0153005e-02
-2.2262528e-02
-1.1670197e-01
-2.0392248e-01
-2.8473963e-01
-3.5977525e-01
-4.2924498e-01
-4.9280554e-01
-5.4947794e-01
-5.9765601e-01
-6.3520180e-01
-6.5962207e-01
-6.6831369e-01
-6.5885964e-01
-6.2935068e-01
-5.7870127e-01
-5.0692387e-01
-4.1532649e-01
-3.0660375e-01
-1.8480094e-01
-5.5143625e-02
7.6260661e-02
2.0282809e-01
3.1797821e-01
4.1564377e-01
4.9076116e-01
5.3969170e-01
5.6052924e-01
5.5326015e-01
5.1975723e-01
4.6360844e-01
3.8979943e-01
3.0428270e-01
2.1347456e-01
1.2372604e-01
4.0815502e-02
-3.0491887e-02
-8.6779699e-02
-1.2618425e-01
-1.4845380e-01
-1.5486466e-01
-1.4800973e-01
-1.3148586e-01
-1.0951080e-01
-8.6502107e-02
-6.6650645e-02
-5.3522112e-02
-4.9720573e-02
-5.6644700e-02
-7.4359786e-02
-1.0159737e-01
-1.3588231e-01
-1.7377613e-01
-2.1121522e-01
-2.4391227e-01
-2.6778086e-01
-2.7933827e-01
-2.7604459e-01
-2.5654570e-01
-2.2080096e-01
-1.7008804e-01
-1.0688733e-01
-3.4656453e-02
4.2484827e-02
1.2012840e-01
1.9397037e-01
2.6017839e-01
3.1569241e-01
3.5842573e-01
3.8734688e-01
4.0243917e-01
4.0455239e-01
3.9517660e-01
3.7617710e-01
3.4953001e-01
3.1709091e-01
2.8041788e-01
2.4066013e-01
1.9851488e-01
1.5424882e-01
1.0777465e-01
5.8768928e-02
6.8144687e-03
-4.8449747e-02
-1.0718608e-01
-1.6923398e-01
-2.3401163e-01
-3.0045025e-01
-3.6696803e-01
-4.3149046e-01
-4.9152089e-01
-5.4426165e-01
-5.8678078e-01
-6.1621366e-01
-6.2998299e-01
-6.2601700e-01
-6.0294489e-01
-5.6025045e-01
-4.9836805e-01
-4.1870945e-01
-3.2361568e-01
-2.1623522e-01
-1.0033644e-01
1.9930129e-02
1.4029884e-01
2.5666079e-01
3.6531532e-01
4.6317721e-01
5.4791980e-01
6.1804079e-01
6.7284688e-01
7.1236361e-01
7.3718619e-01
7.4829261e-01
7.4684155e-01
7.3397531e-01
7.1064617e-01
6.7748296e-01
6.3471442e-01
5.8216356e-01
5.1932196e-01
4.4550398e-01
3.6006789e-01
2.6267778e-01
1.5356928e-01
3.3777678e-02
-9.4709865e-02
-2.2890754e-01
-3.6490560e-01
-4.9806729e-01
-6.2333123e-01
-7.3558667e-01
-8.3007662e-01
-9.0278075e-01
-9.5073397e-01
-9.7224663e-01
-9.6700405e-01
-9.3603702e-01
-8.8156971e-01
-8.0676606e-01
-7.1540741e-01
-6.1154046e-01
-4.9913611e-01
-3.8179697e-01
-2.6254504e-01
-1.4370989e-01
-2.6923755e-02
8.6786343e-02
1.9683265e-01
3.0285838e-01
4.0452054e-01
5.0129413e-01
5.9232176e-01
6.7632265e-01
7.5156635e-01
8.1590908e-01
8.6688726e-01
9.0186113e-01
9.1819878e-01
9.1348887e-01
8.8576801e-01
8.3374687e-01
7.5701631e-01
6.5621241e-01
5.3311984e-01
3.9069730e-01
2.3301730e-01
6.5122886e-02
-1.0718656e-01
-2.7762230e-01
-4.3970630e-01
-5.8708878e-01
-7.1387230e-01
-8.1493349e-01
-8.8622873e-01
-9.2506160e-01
-9.3028338e-01
-9.0239624e-01
-8.4353641e-01
-7.5732895e-01
-6.4862550e-01
-5.2315276e-01
-3.8711010e-01
-2.4675582e-01
-1.0801775e-01
2.3842481e-02
1.4448936e-01
2.5068395e-01
3.4035948e-01
4.1260455e-01
4.6756149e-01
5.0625284e-01
5.3035150e-01
5.4191298e-01
5.4308931e-01
5.3584700e-01
5.2171504e-01
5.0159236e-01
4.7564244e-01
4.4329488e-01
4.0336030e-01
3.5424958e-01
2.9427527e-01
2.2200265e-01
1.3661127e-01
3.8224234e-02
-7.1836662e-02
-1.9090659e-01
-3.1497031e-01
-4.3880473e-01
-5.5626898e-01
-6.6072237e-01
-7.4553492e-01
-8.0464270e-01
-8.3309366e-01
-8.2752931e-01
-7.8655243e-01
-7.1094050e-01
-6.0367773e-01
-4.6979464e-01
-3.1602334e-01
-1.5029820e-01
1.8847870e-02
1.8292726e-01
3.3411513e-01
4.6578158e-01
5.7289385e-01
6.5226084e-01
7.0261162e-01
7.2451653e-01
7.2017275e-01
6.9308334e-01
6.4766236e-01
5.8880097e-01
5.2143011e-01
4.5011495e-01
3.7871390e-01
3.1012987e-01
2.4617284e-01
1.8754197e-01
1.3392360e-01
8.4190899e-02
3.6682893e-02
-1.0466150e-02
-5.8981416e-02
-1.1012542e-01
-1.6443973e-01
-2.2158715e-01
-2.8031960e-01
-3.3857905e-01
-3.9371923e-01
-4.4281752e-01
-4.8303207e-01
-5.1195064e-01
-5.2787827e-01
-5.3002204e-01
-5.1855142e-01
-4.9453432e-01
-4.5976842e-01
-4.1653997e-01
-3.6734781e-01
-3.1463011e-01
-2.6052735e-01
-2.0670802e-01
-1.5427382e-01
-1.0374913e-01
-5.5146992e-02
-8.0931823e-03
3.8015475e-02
8.3841445e-02
1.2994439e-01
1.7664130e-01
2.2390077e-01
2.7128170e-01
3.1792397e-01
3.6259382e-01
4.0377846e-01
4.3981558e-01
4.6903707e-01
4.8990575e-01
5.0112948e-01
5.0174454e-01
4.9116702e-01
4.6921487e-01
4.3610516e-01
3.9243230e-01
3.3913344e-01
2.7744802e-01
2.0887767e-01
1.3515077e-01
5.8191302e-02
-1.9913682e-02
-9.6957997e-02
-1.7068250e-01
-2.3886963e-01
-2.9946405e-01
-3.5070758e-01
-3.9126804e-01
-4.2033929e-01
-4.3769397e-01
-4.4368056e-01
-4.3916667e-01
-4.2543830e-01
-4.0407063e-01
-3.7678963e-01
-3.4534267e-01
-3.1139257e-01
-2.7644258e-01
-2.4179257e-01
-2.0852135e-01
-1.7748723e-01
-1.4933840e-01
-1.2452521e-01
-1.0330718e-01
-8.5748923e-02
-7.1701521e-02
-6.0768729e-02
-5.2259479e-02
