-2.2759297e-03
-2.5131377e-03
-2.7625614e-03
-3.0246342e-03
-3.2931766e-03
-3.5513821e-03
-3.7691048e-03
-3.9052064e-03
-3.9084744e-03
-3.7184825e-03
-3.2823078e-03
-2.5815701e-03
-1.6336419e-03
-4.6319080e-04
9.1689285e-04
2.4897196e-03
4.2012415e-03
5.9601600e-03
7.6695173e-03
9.2323088e-03
1.0532867e-02
1.1436612e-02
1.1814536e-02
1.1575558e-02
1.0705026e-02
9.3029467e-03
7.5656982e-03
5.7048711e-03
3.8905159e-03
2.2387031e-03
7.8954595e-04
-5.0467017e-04
-1.7329673e-03
-2.9646121e-03
-4.2281897e-03
-5.5170104e-03
-6.7906499e-03
-7.9827862e-03
-9.0446659e-03
-9.9718863e-03
-1.0785072e-02
-1.1512505e-02
-1.2162660e-02
-1.2698947e-02
-1.3044118e-02
-1.3097115e-02
-1.2759539e-02
-1.1955973e-02
-1.0657666e-02
-8.8948308e-03
-6.7195805e-03
-4.1657069e-03
-1.2682998e-03
1.8720513e-03
5.0986124e-03
8.2834094e-03
1.1332178e-02
1.4136416e-02
1.6567441e-02
1.8473801e-02
1.9705187e-02
2.0200206e-02
2.0027648e-02
1.9307668e-02
1.8154922e-02
1.6711011e-02
1.5120594e-02
1.3452116e-02
1.1685354e-02
9.7754345e-03
7.7271751e-03
5.5849807e-03
3.3219232e-03
7.6076375e-04
-2.3220997e-03
-6.0006617e-03
-1.0156377e-02
-1.4602504e-02
-1.9180523e-02
-2.3685102e-02
-2.7742476e-02
-3.0880506e-02
-3.2712211e-02
-3.3022081e-02
-3.1769583e-02
-2.9094553e-02
-2.5292692e-02
-2.0727472e-02
-1.5749151e-02
-1.0653277e-02
-5.6598037e-03
-9.2145809e-04
3.4567912e-03
7.4226392e-03
1.1026101e-02
1.4430896e-02
1.7833955e-02
2.1386792e-02
2.5115386e-02
2.8844873e-02
3.2207510e-02
3.4715190e-02
3.5890295e-02
3.5425580e-02
3.3273558e-02
2.9596836e-02
2.4630349e-02
1.8605212e-02
1.1778895e-02
4.4986045e-03
-2.7977874e-03
-9.6394988e-03
-1.5548887e-02
-2.0099743e-02
-2.3049004e-02
-2.4419410e-02
-2.4484911e-02
-2.3678384e-02
-2.2425126e-02
-2.0966987e-02
-1.9334384e-02
-1.7480577e-02
-1.5399367e-02
-1.3159891e-02
-1.0912694e-02
-8.8853659e-03
-7.3182081e-03
-6.3683295e-03
-6.1022402e-03
-6.4941340e-03
-7.3370856e-03
-8.2328285e-03
-8.7351748e-03
-8.4837569e-03
-7.2248870e-03
-4.8282453e-03
-1.3530538e-03
2.9822612e-03
7.9516164e-03
1.3423939e-02
1.9282979e-02
2.5261972e-02
3.0936990e-02
3.5857120e-02
3.9599215e-02
4.1754348e-02
4.1968933e-02
4.0021743e-02
3.5910400e-02
2.9924060e-02
2.2561954e-02
1.4345843e-02
5.7524238e-03
-2.7367274e-03
-1.0643586e-02
-1.7621642e-02
-2.3539427e-02
-2.8377339e-02
-3.2113505e-02
-3.4810449e-02
-3.6717326e-02
-3.8095947e-02
-3.8983182e-02
-3.9245521e-02
-3.8759590e-02
-3.7454819e-02
-3.5278818e-02
-3.2205628e-02
-2.8273867e-02
-2.3566956e-02
-1.8178574e-02
-1.2263962e-02
-6.0836910e-03
1.0849667e-04
6.2137543e-03
1.2216980e-02
1.7994359e-02
2.3311970e-02
2.8004415e-02
3.2056928e-02
3.5485548e-02
3.8179929e-02
3.9894226e-02
4.0426496e-02
3.9773133e-02
3.8053188e-02
3.5384313e-02
3.1866114e-02
2.7597943e-02
2.2731774e-02
1.7534807e-02
1.2366649e-02
7.5661404e-03
3.3447815e-03
-2.6317800e-04
-3.4227858e-03
-6.4497190e-03
-9.6687248e-03
-1.3238694e-02
-1.7034188e-02
-2.0732475e-02
-2.4051215e-02
-2.6852155e-02
-2.9067558e-02
-3.0647497e-02
-3.1548072e-02
-3.1660087e-02
-3.0785424e-02
-2.8780779e-02
-2.5725661e-02
-2.1923743e-02
-1.7761000e-02
-1.3601581e-02
-9.7422175e-03
-6.3431504e-03
-3.4223152e-03
-9.5876039e-04
1.0226616e-03
2.5087290e-03
3.6439374e-03
4.7890458e-03
6.4384552e-03
9.0409900e-03
1.2814643e-02
1.7638869e-02
2.3012090e-02
2.8162203e-02
3.2343673e-02
3.5067473e-02
3.6067674e-02
3.5162579e-02
3.2308173e-02
2.7753682e-02
2.1987843e-02
1.5525415e-02
8.7318264e-03
1.7508798e-03
-5.4328083e-03
-1.2840231e-02
-2.0373552e-02
-2.7756260e-02
-3.4522590e-02
-4.0103798e-02
-4.3968476e-02
-4.5690205e-02
-4.4990912e-02
-4.1852843e-02
-3.6554870e-02
-2.9513169e-02
-2.1147449e-02
-1.1912148e-02
-2.2754563e-03
7.3847045e-03
1.6780353e-02
2.5667281e-02
3.3817489e-02
4.0913324e-02
4.6508557e-02
5.0232403e-02
5.1949505e-02
5.1665625e-02
4.9430209e-02
4.5362591e-02
3.9699292e-02
3.2753327e-02
2.4786227e-02
1.6002666e-02
6.6720998e-03
-2.8588056e-03
-1.2300758e-02
-2.1509125e-02
-3.0384716e-02
-3.8761963e-02
-4.6412884e-02
-5.3046462e-02
-5.8313231e-02
-6.1878191e-02
-6.3483480e-02
-6.2960273e-02
-6.0284644e-02
-5.5644535e-02
-4.9361887e-02
-4.1743845e-02
-3.2999348e-02
-2.3233189e-02
-1.2484169e-02
-7.6101415e-04
1.1881792e-02
2.5224341e-02
3.8830042e-02
5.2127351e-02
6.4517957e-02
7.5354517e-02
8.3900417e-02
8.9444228e-02
9.1463187e-02
8.9681437e-02
8.4025738e-02
7.4568451e-02
6.1545620e-02
4.5506968e-02
2.7412986e-02
8.4203182e-03
-1.0376498e-02
-2.7946830e-02
-4.3318125e-02
-5.5747576e-02
-6.4868993e-02
-7.0617825e-02
-7.3067748e-02
-7.2411178e-02
-6.9034337e-02
-6.3502015e-02
-5.6420477e-02
-4.8323707e-02
-3.9672197e-02
-3.0908914e-02
-2.2485471e-02
-1.4800442e-02
-8.1163936e-03
-2.5586249e-03
1.7986082e-03
4.8879407e-03
6.7624940e-03
7.6864003e-03
8.0548140e-03
8.2436922e-03
8.4976247e-03
8.9779085e-03
9.8763093e-03
1.1397941e-02
1.3725651e-02
1.7038467e-02
2.1437966e-02
2.6800561e-02
3.2752699e-02
3.8766853e-02
4.4243044e-02
4.8562630e-02
5.1101208e-02
5.1291241e-02
4.8835221e-02
4.3856828e-02
3.6825695e-02
2.8362733e-02
1.9085859e-02
9.5680427e-03
3.2760035e-04
-8.2051613e-03
-1.5713066e-02
-2.2029867e-02
-2.7186354e-02
-3.1314477e-02
-3.4446752e-02
-3.6540059e-02
-3.7656277e-02
-3.7959205e-02
-3.7609347e-02
-3.6753154e-02
-3.5542266e-02
-3.4083949e-02
-3.2403744e-02
-3.0477909e-02
-2.8255804e-02
-2.5721175e-02
-2.2968323e-02
-2.0119517e-02
-1.7183857e-02
-1.3989074e-02
-1.0154204e-02
-5.1999728e-03
1.2017185e-03
9.0620359e-03
1.8044933e-02
2.7480786e-02
3.6476283e-02
4.4118474e-02
4.9657724e-02
5.2663367e-02
5.3070447e-02
5.1019860e-02
4.6667334e-02
4.0183760e-02
3.1884880e-02
2.2236128e-02
1.1732756e-02
8.4559353e-04
-9.9816113e-03
-2.0365416e-02
-2.9992264e-02
-3.8542293e-02
-4.5643319e-02
-5.0939499e-02
-5.4174394e-02
-5.5270538e-02
-5.4373547e-02
-5.1776836e-02
-4.7824337e-02
-4.2844233e-02
-3.7092139e-02
-3.0788619e-02
-2.4217929e-02
-1.7691294e-02
-1.1339248e-02
-4.9834914e-03
1.7430786e-03
9.1525285e-03
1.7335617e-02
2.6199538e-02
3.5584772e-02
4.5254907e-02
5.4832636e-02
6.3813314e-02
7.1660469e-02
7.7911230e-02
8.2186413e-02
8.4195165e-02
8.3849164e-02
8.1281031e-02
7.6679878e-02
7.0221299e-02
6.2194586e-02
5.3155949e-02
4.3900374e-02
3.5220766e-02
2.7710999e-02
2.1673168e-02
1.7040395e-02
1.3399872e-02
1.0100749e-02
6.4174827e-03
1.6863478e-03
-4.6675913e-03
-1.3108690e-02
-2.4021426e-02
-3.7740226e-02
-5.4445853e-02
-7.4067918e-02
-9.6198808e-02
-1.2003217e-01
-1.4444594e-01
-1.6810577e-01
-1.8950984e-01
-2.0704807e-01
-2.1908395e-01
-2.2405164e-01
-2.2063216e-01
-2.0797862e-01
-1.8580061e-01
-1.5434166e-01
-1.1444600e-01
-6.7693918e-02
-1.6411604e-02
3.6567750e-02
8.8287442e-02
1.3607508e-01
1.7782736e-01
2.1205810e-01
2.3784753e-01
2.5470918e-01
2.6242563e-01
2.6107803e-01
2.5118064e-01
2.3367515e-01
2.0974177e-01
1.8062572e-01
1.4760924e-01
1.1204520e-01
7.5400924e-02
3.9188881e-02
4.7455270e-03
-2.6897831e-02
-5.4929323e-02
-7.8676917e-02
-9.7695153e-02
-1.1180514e-01
-1.2103019e-01
-1.2555210e-01
-1.2564062e-01
-1.2164845e-01
-1.1404634e-01
-1.0332955e-01
-8.9973816e-02
-7.4567080e-02
-5.7924110e-02
-4.1000405e-02
-2.4673114e-02
-9.6082435e-03
3.7089598e-03
1.4878635e-02
2.3573835e-02
2.9632154e-02
3.3130202e-02
3.4367101e-02
3.3776518e-02
3.1818503e-02
2.8855725e-02
2.5093145e-02
2.0662183e-02
1.5717677e-02
1.0485743e-02
5.2599109e-03
3.2069026e-04
-4.1288235e-03
-8.0053456e-03
-1.1365879e-02
-1.4371869e-02
-1.7234951e-02
-2.0137055e-02
-2.3163357e-02
-2.6297100e-02
-2.9454511e-02
-3.2479680e-02
-3.5072806e-02
-3.6827629e-02
-3.7435608e-02
-3.6826596e-02
-3.5036962e-02
-3.2000094e-02
-2.7552217e-02
-2.1519452e-02
-1.3786772e-02
-4.3780134e-03
6.5149079e-03
1.8506550e-02
3.0970485e-02
4.3026008e-02
5.3661303e-02
6.1978036e-02
6.7391656e-02
6.9745298e-02
6.9277713e-02
6.6397454e-02
6.1434705e-02
5.4580128e-02
4.5991547e-02
3.5891434e-02
2.4682468e-02
1.3041048e-02
1.7979457e-03
-8.2626398e-03
-1.6553902e-02
-2.2807719e-02
-2.7070398e-02
-2.9578359e-02
-3.0639407e-02
-3.0555111e-02
-2.9623690e-02
-2.8224550e-02
-2.6756485e-02
-2.5416481e-02
-2.4180628e-02
-2.3005177e-02
-2.1948195e-02
-2.1099410e-02
-2.0466809e-02
-2.0019765e-02
-1.9770225e-02
-1.9735980e-02
-1.9877589e-02
-2.0061700e-02
-2.0040181e-02
-1.9478044e-02
-1.8093771e-02
-1.5793671e-02
-1.2631699e-02
-8.7306814e-03
-4.2672470e-03
5.8282551e-04
5.7485933e-03
1.1263378e-02
1.7117334e-02
2.3148782e-02
2.9047620e-02
3.4424301e-02
3.8877333e-02
4.2008131e-02
4.3482761e-02
4.3096013e-02
4.0753191e-02
3.6524571e-02
3.0781956e-02
2.4193168e-02
1.7484165e-02
1.1212494e-02
5.7579820e-03
1.3577725e-03
-1.9387853e-03
-4.3196257e-03
-6.1958080e-03
-8.0374358e-03
-1.0122373e-02
-1.2451589e-02
-1.4895064e-02
-1.7327425e-02
-1.9652086e-02
-2.1825587e-02
-2.3901166e-02
-2.6045706e-02
-2.8410795e-02
-3.0884836e-02
-3.3008301e-02
-3.4171009e-02
-3.3932748e-02
-3.2163178e-02
-2.8948774e-02
-2.4513611e-02
-1.9197951e-02
-1.3411343e-02
-7.5126983e-03
-1.7058958e-03
3.9027165e-03
9.2287810e-03
1.4224890e-02
1.8886039e-02
2.3181685e-02
2.6967924e-02
3.0046639e-02
3.2314764e-02
3.3783487e-02
3.4477070e-02
3.4362838e-02
3.3381694e-02
3.1492826e-02
2.8713695e-02
2.5178075e-02
2.1113309e-02
1.6748511e-02
1.2235530e-02
7.6577105e-03
3.1245755e-03
-1.2042604e-03
-5.1975673e-03
-8.8418394e-03
-1.2237440e-02
-1.5499301e-02
-1.8699579e-02
-2.1846230e-02
-2.4863119e-02
-2.7630691e-02
-3.0052215e-02
-3.2046042e-02
-3.3484028e-02
-3.4201104e-02
-3.4053406e-02
-3.2910680e-02
-3.0624889e-02
-2.7118217e-02
-2.2525851e-02
-1.7149941e-02
-1.1264734e-02
-5.0174559e-03
1.4923778e-03
8.1170979e-03
1.4748808e-02
2.1377486e-02
2.7915790e-02
3.4066813e-02
3.9376411e-02
4.3333608e-02
4.5475605e-02
4.5533289e-02
4.3531900e-02
3.9724040e-02
3.4461484e-02
2.8141726e-02
2.1233537e-02
1.4277009e-02
7.7264955e-03
1.7982368e-03
-3.5142003e-03
-8.3285462e-03
-1.2709932e-02
-1.6591248e-02
-1.9858143e-02
-2.2460644e-02
-2.4453519e-02
-2.5953793e-02
-2.7077786e-02
-2.7915725e-02
-2.8511338e-02
-2.8821946e-02
-2.8751337e-02
-2.8269301e-02
-2.7444598e-02
-2.6364926e-02
-2.5033586e-02
-2.3340075e-02
-2.1139269e-02
-1.8305488e-02
-1.4772749e-02
-1.0562391e-02
-5.7176031e-03
-2.3425673e-04
5.9390012e-03
1.2767557e-02
1.9974706e-02
2.7081596e-02
3.3544839e-02
3.8840996e-02
4.2490923e-02
4.4116684e-02
4.3596491e-02
4.1165873e-02
3.7327616e-02
3.2622259e-02
2.7455588e-02
2.2089470e-02
1.6703637e-02
1.1462748e-02
6.5402419e-03
2.0762974e-03
-1.8959977e-03
-5.4674311e-03
-8.7269718e-03
-1.1646456e-02
-1.4093093e-02
-1.5925492e-02
-1.7156005e-02
-1.8026333e-02
-1.8867294e-02
-1.9881154e-02
-2.1066970e-02
-2.2256496e-02
-2.3163581e-02
-2.3559659e-02
-2.3456172e-02
-2.3075829e-02
-2.2686234e-02
-2.2438899e-02
-2.2298049e-02
-2.2016980e-02
-2.1213341e-02
-1.9598185e-02
-1.7090481e-02
-1.3777406e-02
-9.9236499e-03
-5.9428578e-03
-2.2223455e-03
1.0681519e-03
4.0047146e-03
6.7845629e-03
9.6135725e-03
1.2665673e-02
1.5995993e-02
1.9442442e-02
2.2747404e-02
2.5721144e-02
2.8179071e-02
2.9896949e-02
3.0723121e-02
3.0724670e-02
3.0256807e-02
2.9829134e-02
2.9853578e-02
3.0453321e-02
3.1427634e-02
3.2423628e-02
3.3208412e-02
3.3788159e-02
3.4228571e-02
3.4411554e-02
3.3995167e-02
3.2516827e-02
2.9524987e-02
2.4645111e-02
1.7554388e-02
8.0132171e-03
-4.0052172e-03
-1.8238199e-02
-3.4167123e-02
-5.1069906e-02
-6.8015875e-02
-8.3841226e-02
-9.7291976e-02
-1.0731225e-01
-1.1318013e-01
-1.1452000e-01
-1.1134690e-01
-1.0405774e-01
-9.3314541e-02
-7.9841304e-02
-6.4331840e-02
-4.7562456e-02
-3.0357478e-02
-1.3324609e-02
3.2384243e-03
1.9140432e-02
3.4117631e-02
4.7854896e-02
6.0040716e-02
7.0394180e-02
7.8716961e-02
8.4947370e-02
8.9191388e-02
9.1696173e-02
9.2802773e-02
9.2862101e-02
9.2076603e-02
9.0451951e-02
8.7893215e-02
8.4230445e-02
7.9166119e-02
7.2314631e-02
6.3340208e-02
5.2085282e-02
3.8635613e-02
2.3309304e-02
6.6436540e-03
-1.0584050e-02
-2.7381599e-02
-4.2680997e-02
-5.5612331e-02
-6.5716968e-02
-7.2923840e-02
-7.7415370e-02
-7.9443364e-02
-7.9162163e-02
-7.6694760e-02
-7.2322152e-02
-6.6429653e-02
-5.9302646e-02
-5.1140121e-02
-4.2169725e-02
-3.2647186e-02
-2.2804809e-02
-1.2816269e-02
-2.8350811e-03
6.9319155e-03
1.6177588e-02
2.4502115e-02
3.1514192e-02
3.6884072e-02
4.0259956e-02
4.1201918e-02
3.9304102e-02
3.4446383e-02
2.6865689e-02
1.7015290e-02
5.4916553e-03
-6.9437955e-03
-1.9424836e-02
-3.1162516e-02
-4.1558633e-02
-5.0146170e-02
-5.6513770e-02
-6.0339157e-02
-6.1488052e-02
-6.0037290e-02
-5.6273425e-02
-5.0712568e-02
-4.3902710e-02
-3.6170772e-02
-2.7651406e-02
-1.8416017e-02
-8.5241332e-03
1.9536323e-03
1.2901437e-02
2.4162187e-02
3.5631130e-02
4.7315996e-02
5.9301729e-02
7.1679347e-02
8.4443425e-02
9.7333393e-02
1.0973299e-01
1.2081506e-01
1.2975166e-01
1.3576548e-01
1.3814809e-01
1.3627509e-01
1.2959507e-01
1.1773239e-01
1.0065882e-01
7.8709445e-02
5.2532292e-02
2.3130337e-02
-8.1856862e-03
-3.9928440e-02
-7.0520537e-02
-9.8477779e-02
-1.2268487e-01
-1.4251161e-01
-1.5759982e-01
-1.6759569e-01
-1.7222531e-01
-1.7151462e-01
-1.6578892e-01
-1.5551294e-01
-1.4125690e-01
-1.2380911e-01
-1.0416420e-01
-8.3396760e-02
-6.2532853e-02
-4.2385821e-02
-2.3502700e-02
-6.2479222e-03
9.1654376e-03
2.2724245e-02
3.4678212e-02
4.5550448e-02
5.5986336e-02
6.6437262e-02
7.6934458e-02
8.7150696e-02
9.6597645e-02
1.0478670e-01
1.1127346e-01
1.1557028e-01
1.1710990e-01
1.1539495e-01
1.1022697e-01
1.0178997e-01
9.0510678e-02
7.6898576e-02
6.1568758e-02
4.5297597e-02
2.8843016e-02
1.2710295e-02
-2.8222023e-03
-1.7460303e-02
-3.0759411e-02
-4.2390116e-02
-5.2459105e-02
-6.1330292e-02
-6.9166202e-02
-7.5780155e-02
-8.0862099e-02
-8.4189171e-02
-8.5677847e-02
-8.5363647e-02
-8.3282471e-02
-7.9392869e-02
-7.3695338e-02
-6.6307702e-02
-5.7342975e-02
-4.6869379e-02
-3.5037101e-02
-2.2145022e-02
-8.6395125e-03
4.9261674e-03
1.8036801e-02
3.0353658e-02
4.1699966e-02
5.1937485e-02
6.0892128e-02
6.8297412e-02
7.3725877e-02
7.6681569e-02
7.6797196e-02
7.3948288e-02
6.8254150e-02
6.0033353e-02
4.9794735e-02
3.8214169e-02
2.6050367e-02
1.4049478e-02
2.8935697e-03
-6.8381355e-03
-1.4803788e-02
-2.1003265e-02
-2.5687146e-02
-2.9217788e-02
-3.1979687e-02
-3.4312869e-02
-3.6476704e-02
-3.8602159e-02
-4.0660503e-02
-4.2515808e-02
-4.3986582e-02
-4.4805490e-02
-4.4577609e-02
-4.2882109e-02
-3.9427082e-02
-3.4182443e-02
-2.7462077e-02
-1.9817134e-02
-1.1759386e-02
-3.5883577e-03
4.5223888e-03
1.2363544e-02
1.9638896e-02
2.6018684e-02
3.1235847e-02
3.5141677e-02
3.7712895e-02
3.9064261e-02
3.9421386e-02
3.8983906e-02
3.7796247e-02
3.5788735e-02
3.2886741e-02
2.9052886e-02
2.4335959e-02
1.8929631e-02
1.3144053e-02
7.3385306e-03
1.9157552e-03
-2.7142609e-03
-6.3163295e-03
-8.9592330e-03
-1.0923487e-02
-1.2554096e-02
-1.4176100e-02
-1.6025330e-02
-1.8193217e-02
-2.0645046e-02
-2.3273397e-02
-2.5907994e-02
-2.8323272e-02
-3.0290595e-02
-3.1649924e-02
-3.2313535e-02
-3.2172544e-02
-3.1039258e-02
-2.8703096e-02
-2.5024950e-02
-1.9975724e-02
-1.3629634e-02
-6.1696240e-03
2.1120815e-03
1.0832727e-02
1.9559979e-02
2.7848780e-02
3.5245311e-02
4.1335859e-02
4.5844797e-02
4.8664088e-02
4.9809883e-02
4.9370434e-02
4.7411905e-02
4.3871886e-02
3.8622225e-02
3.1687464e-02
2.3361292e-02
1.4113879e-02
4.3958729e-03
-5.4447974e-03
-1.5040322e-02
-2.3933313e-02
-3.1709976e-02
-3.8118237e-02
-4.3044959e-02
-4.6468663e-02
-4.8437692e-02
-4.8980766e-02
-4.7990972e-02
-4.5279911e-02
-4.0814974e-02
-3.4919458e-02
-2.8264940e-02
-2.1647401e-02
-1.5677279e-02
-1.0581927e-02
-6.2041519e-03
-2.1729436e-03
1.8658652e-03
6.1290293e-03
1.0657767e-02
1.5311453e-02
1.9881293e-02
2.4202116e-02
2.8117148e-02
3.1470936e-02
3.4211550e-02
3.6406141e-02
3.8104001e-02
3.9211846e-02
3.9530852e-02
3.8891458e-02
3.7197373e-02
3.4333299e-02
3.0090600e-02
2.4280481e-02
1.6999169e-02
8.7919108e-03
4.9441731e-04
-7.1158038e-03
-1.3500197e-02
-1.8313293e-02
-2.1396372e-02
-2.2896355e-02
-2.3253211e-02
-2.2943844e-02
-2.2231452e-02
-2.1165614e-02
-1.9789077e-02
-1.8271557e-02
-1.6864407e-02
-1.5795910e-02
-1.5184326e-02
-1.5036952e-02
-1.5309639e-02
-1.5937687e-02
-1.6837558e-02
-1.7889727e-02
-1.8954424e-02
-1.9909314e-02
-2.0599320e-02
-2.0762178e-02
-2.0072060e-02
-1.8265292e-02
-1.5244961e-02
-1.1123337e-02
-6.1409967e-03
-5.1665651e-04
5.5723253e-03
1.1893525e-02
1.8128864e-02
2.3965557e-02
2.9172443e-02
3.3567369e-02
3.6996839e-02
3.9321353e-02
4.0353264e-02
3.9918179e-02
3.8021120e-02
3.4844492e-02
3.0585735e-02
2.5439579e-02
1.9740503e-02
1.3942986e-02
8.4070919e-03
3.3237269e-03
-1.1153459e-03
-4.6375680e-03
-7.0892009e-03
-8.6017416e-03
-9.5079035e-03
-1.0185014e-02
-1.0979306e-02
-1.2168697e-02
-1.3915201e-02
-1.6251012e-02
-1.9052972e-02
-2.1999500e-02
-2.4702127e-02
-2.6926984e-02
-2.8623346e-02
-2.9823138e-02
-3.0557355e-02
-3.0781398e-02
-3.0383404e-02
-2.9291017e-02
-2.7498722e-02
-2.4984470e-02
-2.1673627e-02
-1.7494487e-02
-1.2454869e-02
-6.6588572e-03
-2.7557779e-04
6.4603183e-03
1.3255194e-02
1.9830916e-02
2.6022784e-02
3.1776564e-02
3.7012497e-02
4.1525833e-02
4.4997734e-02
4.7035914e-02
4.7256690e-02
4.5452527e-02
4.1728800e-02
3.6439843e-02
3.0008915e-02
2.2828829e-02
1.5266907e-02
7.6988019e-03
4.6756638e-04
-6.1802394e-03
-1.2069229e-02
-1.7095503e-02
-2.1266338e-02
-2.4677007e-02
-2.7494915e-02
-2.9951129e-02
-3.2231890e-02
-3.4341048e-02
-3.6125935e-02
-3.7418773e-02
-3.8094852e-02
-3.8051645e-02
-3.7167837e-02
-3.5256039e-02
-3.2079835e-02
-2.7478107e-02
-2.1504237e-02
-1.4427757e-02
-6.6061608e-03
1.6333483e-03
1.0015500e-02
1.8287862e-02
2.6222185e-02
3.3608849e-02
4.0234481e-02
4.5864844e-02
5.0192962e-02
5.2809174e-02
5.3287875e-02
5.1371579e-02
4.7114276e-02
4.0868302e-02
3.3175734e-02
2.4663534e-02
1.5961060e-02
7.6288129e-03
9.5950027e-05
-6.3842940e-03
-1.1765300e-02
-1.6170538e-02
-1.9783602e-02
-2.2808022e-02
-2.5504480e-02
-2.8158711e-02
-3.0948825e-02
-3.3824820e-02
-3.6512428e-02
-3.8625473e-02
-3.9790359e-02
-3.9749248e-02
-3.8451861e-02
-3.6032542e-02
-3.2649895e-02
-2.8402919e-02
-2.3396441e-02
-1.7851851e-02
-1.2134489e-02
-6.6181656e-03
-1.5492727e-03
3.0036730e-03
7.1841356e-03
1.1303824e-02
1.5697704e-02
2.0532205e-02
2.5680352e-02
3.0780923e-02
3.5431287e-02
3.9369279e-02
4.2464866e-02
4.4570287e-02
4.5500641e-02
4.5121713e-02
4.3360069e-02
4.0169981e-02
3.5552228e-02
2.9596372e-02
2.2488015e-02
1.4487891e-02
5.8982313e-03
-2.9292288e-03
-1.1538133e-02
-1.9402686e-02
-2.6065877e-02
-3.1272873e-02
-3.5045393e-02
-3.7617463e-02
-3.9239550e-02
-4.0056690e-02
-4.0146017e-02
-3.9544572e-02
-3.8240934e-02
-3.6224413e-02
-3.3513487e-02
-3.0114841e-02
-2.5984355e-02
-2.1053203e-02
-1.5300605e-02
-8.7944894e-03
-1.6954959e-03
5.7414408e-03
1.3167288e-02
2.0187277e-02
2.6455407e-02
3.1737465e-02
3.5952484e-02
3.9164329e-02
4.1480389e-02
4.2954689e-02
4.3513878e-02
4.2904783e-02
4.0750255e-02
3.6731686e-02
3.0840894e-02
2.3525139e-02
1.5529288e-02
7.5479480e-03
2.8901544e-05
-6.8094755e-03
-1.2941322e-02
-1.8492531e-02
-2.3654817e-02
-2.8586642e-02
-3.3279960e-02
-3.7473457e-02
-4.0767752e-02
-4.2847509e-02
-4.3572931e-02
-4.2935530e-02
-4.1007465e-02
-3.7967073e-02
-3.4170995e-02
-3.0019385e-02
-2.5659252e-02
-2.0974906e-02
-1.5822802e-02
-1.0168223e-02
-4.1259333e-03
2.0777677e-03
8.2671613e-03
1.4450470e-02
2.0746492e-02
2.7213711e-02
3.3766506e-02
4.0144923e-02
4.5984772e-02
5.0996064e-02
5.4988511e-02
5.7731907e-02
5.8887397e-02
5.8052899e-02
5.4835173e-02
4.8939753e-02
4.0340665e-02
2.9436701e-02
1.6996853e-02
3.9528401e-03
-8.7280668e-03
-2.0110807e-02
-2.9464508e-02
-3.6430356e-02
-4.1015820e-02
-4.3500885e-02
-4.4380391e-02
-4.4258713e-02
-4.3623032e-02
-4.2698325e-02
-4.1519769e-02
-4.0078823e-02
-3.8398999e-02
-3.6481649e-02
-3.4233808e-02
-3.1506613e-02
-2.8105038e-02
-2.3746261e-02
-1.8148011e-02
-1.1170702e-02
-2.8444011e-03
6.6258042e-03
1.6804614e-02
2.7016318e-02
3.6403763e-02
4.4122129e-02
4.9637590e-02
5.2818053e-02
5.3771848e-02
5.2725448e-02
5.0007382e-02
4.5952994e-02
4.0727809e-02
3.4320273e-02
2.6707362e-02
1.7986505e-02
8.4590654e-03
-1.3766640e-03
-1.1000368e-02
-2.0037346e-02
-2.8240054e-02
-3.5386636e-02
-4.1265096e-02
-4.5729041e-02
-4.8713100e-02
-5.0180325e-02
-5.0107758e-02
-4.8554072e-02
-4.5690999e-02
-4.1766812e-02
-3.7061519e-02
-3.1835953e-02
-2.6278273e-02
-2.0437824e-02
-1.4196714e-02
-7.3718760e-03
1.3261468e-04
8.2482293e-03
1.6721841e-02
2.5123178e-02
3.2973628e-02
3.9972813e-02
4.6087945e-02
5.1446350e-02
5.6151838e-02
6.0168626e-02
6.3339781e-02
6.5363120e-02
6.5711101e-02
6.3744725e-02
5.8977022e-02
5.1194273e-02
4.0449925e-02
2.7203211e-02
1.2471902e-02
-2.3716797e-03
-1.6053621e-02
-2.7709772e-02
-3.6897743e-02
-4.3486300e-02
-4.7638758e-02
-4.9796092e-02
-5.0529633e-02
-5.0380657e-02
-4.9794653e-02
-4.9081435e-02
-4.8361762e-02
-4.7598509e-02
-4.6694168e-02
-4.5520291e-02
-4.3896111e-02
-4.1643037e-02
-3.8680895e-02
-3.4993583e-02
-3.0503025e-02
-2.5031506e-02
-1.8367778e-02
-1.0369000e-02
-1.0996274e-03
9.0359688e-03
1.9363652e-02
2.9237597e-02
3.8263980e-02
4.6256153e-02
5.3058548e-02
5.8480634e-02
6.2349794e-02
6.4516902e-02
6.4833421e-02
6.3168952e-02
5.9417214e-02
5.3506817e-02
4.5495139e-02
3.5690761e-02
2.4676580e-02
1.3229288e-02
2.1458733e-03
-7.9611583e-03
-1.6729347e-02
-2.3996095e-02
-2.9736858e-02
-3.3981999e-02
-3.6758725e-02
-3.8114332e-02
-3.8207564e-02
-3.7370450e-02
-3.5994053e-02
-3.4316141e-02
-3.2371627e-02
-3.0150362e-02
-2.7719632e-02
-2.5168224e-02
-2.2515682e-02
-1.9714327e-02
-1.6727243e-02
-1.3599943e-02
-1.0433547e-02
-7.2831723e-03
-4.1076500e-03
-8.2606991e-04
2.6189281e-03
6.2346785e-03
9.9418603e-03
1.3596222e-02
1.7082564e-02
2.0345256e-02
2.3316002e-02
2.5886590e-02
2.8013225e-02
2.9760709e-02
3.1137754e-02
3.1956940e-02
3.1963301e-02
3.1011461e-02
2.9025103e-02
2.5938193e-02
2.1763509e-02
1.6609712e-02
1.0631032e-02
4.0409740e-03
-2.8212401e-03
-9.4827660e-03
-1.5410323e-02
-2.0116823e-02
-2.3281840e-02
-2.4799918e-02
-2.4756597e-02
-2.3423603e-02
-2.1211832e-02
-1.8563096e-02
-1.5874074e-02
-1.3453423e-02
-1.1474610e-02
-9.9766395e-03
-8.9571014e-03
-8.4363855e-03
-8.4056171e-03
-8.7725027e-03
-9.3789683e-03
-1.0037178e-02
-1.0535408e-02
-1.0655398e-02
-1.0229789e-02
-9.1724423e-03
-7.5043108e-03
-5.4165274e-03
-3.2653740e-03
-1.4155768e-03
-4.3385821e-05
9.3524658e-04
1.7971579e-03
2.8755701e-03
4.4584487e-03
6.7427240e-03
9.8030549e-03
1.3660352e-02
1.8348054e-02
2.3762158e-02
2.9453547e-02
3.4617665e-02
3.8333177e-02
3.9936939e-02
3.9292836e-02
3.6779982e-02
3.3010569e-02
2.8478380e-02
2.3413232e-02
1.7897602e-02
1.2027885e-02
5.8982207e-03
-5.3832398e-04
-7.4775032e-03
-1.5053417e-02
-2.3096776e-02
-3.1096660e-02
-3.8390771e-02
-4.4395239e-02
-4.8719481e-02
-5.1195164e-02
-5.1852254e-02
-5.0790538e-02
-4.8075501e-02
-4.3780705e-02
-3.8051622e-02
-3.1142054e-02
-2.3416434e-02
-1.5297323e-02
-7.2191441e-03
4.4403581e-04
7.4609933e-03
1.3738319e-02
1.9280549e-02
2.4172380e-02
2.8523023e-02
3.2382791e-02
3.5686189e-02
3.8212567e-02
3.9652685e-02
3.9798283e-02
3.8629057e-02
3.6207070e-02
3.2588083e-02
2.7898174e-02
2.2368019e-02
1.6178606e-02
9.3907540e-03
2.0871866e-03
-5.5264978e-03
-1.3172201e-02
-2.0543663e-02
-2.7281672e-02
-3.3003906e-02
-3.7416300e-02
-4.0358406e-02
-4.1735326e-02
-4.1445119e-02
-3.9367475e-02
-3.5396919e-02
-2.9495771e-02
-2.1749144e-02
-1.2383084e-02
-1.7182625e-03
9.8681167e-03
2.1919235e-02
3.3903207e-02
4.5244357e-02
5.5304639e-02
6.3387072e-02
6.8764700e-02
7.0695183e-02
6.8522060e-02
6.1850368e-02
5.0751626e-02
3.6083110e-02
1.9690349e-02
3.9465929e-03
-9.1918866e-03
-1.8703216e-02
-2.4408958e-02
-2.6778149e-02
-2.6716510e-02
-2.5303842e-02
-2.3651799e-02
-2.2845702e-02
-2.3808587e-02
-2.7093164e-02
-3.2752695e-02
-4.0369263e-02
-4.9157802e-02
-5.8117752e-02
-6.6188080e-02
-7.2312134e-02
-7.5468061e-02
-7.4782009e-02
-6.9723986e-02
-6.0219738e-02
-4.6579265e-02
-2.9413448e-02
-9.7920221e-03
1.0505837e-02
2.9278698e-02
4.4715331e-02
5.5897290e-02
6.2725054e-02
6.5616242e-02
6.5219941e-02
6.2241768e-02
5.7339738e-02
5.1047352e-02
4.3786585e-02
3.5988513e-02
2.8134249e-02
2.0618036e-02
1.3711175e-02
7.7094520e-03
2.9397174e-03
-3.9861693e-04
-2.2559400e-03
-2.6362118e-03
-1.6300382e-03
4.9605577e-04
3.3631084e-03
6.6017456e-03
9.8966826e-03
1.2992112e-02
1.5660697e-02
1.7664699e-02
1.8792382e-02
1.8909070e-02
1.7923578e-02
1.5710362e-02
1.2120494e-02
7.1311860e-03
9.8493102e-04
-5.8497850e-03
-1.2870919e-02
-1.9696972e-02
-2.6048096e-02
-3.1705137e-02
-3.6553214e-02
-4.0554392e-02
-4.3720113e-02
-4.6193095e-02
-4.8236146e-02
-5.0077014e-02
-5.1791598e-02
-5.3291694e-02
-5.4332197e-02
-5.4548875e-02
-5.3591751e-02
-5.1230597e-02
-4.7373415e-02
-4.2067070e-02
-3.5465422e-02
-2.7763023e-02
-1.9078767e-02
-9.3511348e-03
1.5727987e-03
1.3758206e-02
2.7140889e-02
4.1523103e-02
5.6529290e-02
7.1673674e-02
8.6457826e-02
1.0032293e-01
1.1258021e-01
1.2240873e-01
1.2890463e-01
1.3121922e-01
1.2870361e-01
1.2096281e-01
1.0787705e-01
8.9735597e-02
6.7536937e-02
4.3156531e-02
1.8937369e-02
-3.1114976e-03
-2.1778011e-02
-3.6596311e-02
-4.7680447e-02
-5.5625130e-02
-6.1430066e-02
-6.6333068e-02
-7.1492086e-02
-7.7711638e-02
-8.5389218e-02
-9.4611889e-02
-1.0521961e-01
-1.1672677e-01
-1.2824089e-01
-1.3856250e-01
-1.4635766e-01
-1.5022297e-01
-1.4874155e-01
-1.4067964e-01
-1.2522873e-01
-1.0216729e-01
-7.2028134e-02
-3.6442833e-02
1.6319282e-03
3.8542042e-02
7.1165179e-02
9.7596579e-02
1.1708387e-01
1.2970833e-01
1.3605024e-01
1.3696543e-01
1.3347779e-01
1.2667134e-01
1.1756221e-01
1.0701868e-01
9.5738961e-02
8.4260048e-02
7.3005808e-02
6.2343785e-02
5.2586899e-02
4.3936439e-02
3.6428737e-02
2.9922279e-02
2.4114849e-02
1.8589429e-02
1.2881859e-02
6.6075836e-03
-3.1898040e-04
-7.5510290e-03
-1.4486092e-02
-2.0639954e-02
-2.5863366e-02
-3.0298544e-02
-3.4246206e-02
-3.8045054e-02
-4.2029762e-02
-4.6539691e-02
-5.1824110e-02
-5.7932381e-02
-6.4773912e-02
-7.2217060e-02
-8.0067407e-02
-8.7985940e-02
-9.5390283e-02
-1.0141186e-01
-1.0502092e-01
-1.0515787e-01
-1.0071385e-01
-9.0580269e-02
-7.3943273e-02
-5.0647320e-02
-2.1434302e-02
1.1832112e-02
4.6092382e-02
7.7783835e-02
1.0402290e-01
1.2317638e-01
1.3466325e-01
1.3861031e-01
1.3562920e-01
1.2665884e-01
1.1290037e-01
9.5760963e-02
7.6649412e-02
5.6796727e-02
3.7234635e-02
1.8769765e-02
1.9174241e-03
-1.3067427e-02
-2.6079025e-02
-3.7116260e-02
-4.6260838e-02
-5.3583889e-02
-5.9064142e-02
-6.2623222e-02
-6.4259210e-02
-6.4116208e-02
-6.2408726e-02
-5.9304855e-02
-5.4886510e-02
-4.9217091e-02
-4.2403096e-02
-3.4593860e-02
-2.6005963e-02
-1.6941716e-02
-7.7409485e-03
1.2701414e-03
9.7730435e-03
1.7449513e-02
2.4053870e-02
2.9463538e-02
3.3591435e-02
3.6284173e-02
3.7374399e-02
3.6825293e-02
3.4767267e-02
3.1439902e-02
2.7190581e-02
2.2499935e-02
1.7963661e-02
1.4219889e-02
1.1796154e-02
1.0894404e-02
1.1220424e-02
1.2062722e-02
1.2630006e-02
1.2345464e-02
1.0938337e-02
8.3964759e-03
4.8248274e-03
3.3538128e-04
-4.8497370e-03
-1.0275803e-02
-1.5403617e-02
-1.9801299e-02
-2.3168876e-02
-2.5331573e-02
-2.6256568e-02
-2.6059020e-02
-2.4956319e-02
-2.3193221e-02
-2.1000095e-02
-1.8560725e-02
-1.6038691e-02
-1.3690690e-02
-1.1919968e-02
-1.1118608e-02
-1.1349551e-02
-1.2156914e-02
-1.2744690e-02
-1.2419140e-02
-1.0852554e-02
-7.9694137e-03
-3.7969338e-03
1.5265049e-03
7.7245761e-03
1.4414639e-02
2.1162155e-02
2.7472481e-02
3.2742162e-02
3.6294183e-02
3.7547613e-02
3.6234438e-02
3.2474604e-02
2.6654519e-02
1.9262740e-02
1.0870940e-02
2.1688262e-03
-6.2379059e-03
-1.4082371e-02
-2.1360754e-02
-2.7948858e-02
-3.3089151e-02
-3.5164327e-02
-3.2311605e-02
-2.3558544e-02
-9.3695760e-03
8.6760922e-03
2.8404353e-02
4.7445446e-02
6.3535213e-02
7.4776156e-02
7.9913835e-02
7.8439356e-02
7.0473296e-02
5.6644272e-02
3.8014275e-02
1.5899489e-02
-8.3596994e-03
-3.3425810e-02
-5.7936699e-02
-8.0601890e-02
-1.0027000e-01
-1.1595549e-01
-1.2687491e-01
-1.3246887e-01
-1.3238754e-01
-1.2650019e-01
-1.1498217e-01
-9.8341127e-02
-7.7398809e-02
-5.3283800e-02
-2.7338470e-02
-9.8860404e-04
2.4436060e-02
4.7922311e-02
6.8841741e-02
8.6845240e-02
1.0175796e-01
1.1355374e-01
1.2228816e-01
1.2796783e-01
1.3048417e-01
1.2967289e-01
1.2548739e-01
1.1807500e-01
1.0758292e-01
9.3960442e-02
7.7099930e-02
5.7144638e-02
3.4561642e-02
1.0085520e-02
-1.5136535e-02
-3.9378036e-02
-6.0665780e-02
-7.7525958e-02
-8.9387453e-02
-9.6440636e-02
-9.9297738e-02
-9.8675625e-02
-9.5329288e-02
-9.0101974e-02
-8.3726704e-02
-7.6581074e-02
-6.8773107e-02
-6.0408837e-02
-5.1660605e-02
-4.2654897e-02
-3.3416673e-02
-2.3883053e-02
-1.3966272e-02
-3.6625761e-03
6.8599452e-03
1.7230407e-02
2.6973484e-02
3.5661816e-02
4.2905809e-02
4.8321490e-02
5.1701643e-02
5.3129301e-02
5.2803005e-02
5.0849631e-02
4.7336545e-02
4.2382928e-02
3.6296119e-02
2.9620531e-02
2.3011974e-02
1.7044976e-02
1.2101954e-02
8.4014567e-03
6.0248428e-03
4.8603467e-03
4.6005072e-03
4.8106310e-03
5.0077566e-03
4.7951180e-03
3.9944276e-03
2.6209152e-03
7.4015726e-04
-1.6779326e-03
-4.8239377e-03
-8.9103119e-03
-1.3911152e-02
-1.9409750e-02
-2.4715644e-02
-2.9222583e-02
-3.2664457e-02
-3.5065088e-02
-3.6540746e-02
-3.7165268e-02
-3.6957828e-02
-3.5885413e-02
-3.3918484e-02
-3.1138266e-02
-2.7657906e-02
-2.3462277e-02
-1.8472014e-02
-1.2745647e-02
-6.5038675e-03
3.6790341e-05
6.7442443e-03
1.3508586e-02
2.0172780e-02
2.6537638e-02
3.2417474e-02
3.7676917e-02
4.2235132e-02
4.5948283e-02
4.8450676e-02
4.9281164e-02
4.8196864e-02
4.5252447e-02
4.0673274e-02
3.4814373e-02
2.8121878e-02
2.0958515e-02
1.3516477e-02
5.9415348e-03
-1.5172303e-03
-8.5281096e-03
-1.4858674e-02
-2.0474749e-02
-2.5423003e-02
-2.9654475e-02
-3.3008230e-02
-3.5387135e-02
-3.6894373e-02
-3.7742884e-02
-3.8034559e-02
-3.7653196e-02
-3.6380249e-02
-3.4077520e-02
-3.0758150e-02
-2.6523539e-02
-2.1483566e-02
-1.5789597e-02
-9.7063382e-03
-3.6092231e-03
2.0907305e-03
7.0616902e-03
1.1126976e-02
1.4292350e-02
1.6705128e-02
1.8522269e-02
1.9845906e-02
2.0766653e-02
2.1391477e-02
2.1796937e-02
2.1956309e-02
2.1755523e-02
2.1084233e-02
1.9923098e-02
1.8399974e-02
1.6776167e-02
1.5308205e-02
1.4062362e-02
1.2915313e-02
1.1701735e-02
1.0271058e-02
8.5054374e-03
6.4258690e-03
4.2618019e-03
2.3229221e-03
7.9329485e-04
-3.6062190e-04
-1.3711453e-03
-2.5346291e-03
-4.0201004e-03
-5.8232314e-03
-7.9136082e-03
-1.0362817e-02
-1.3222387e-02
-1.6371646e-02
-1.9660485e-02
-2.3051829e-02
-2.6484998e-02
-2.9768377e-02
-3.2689076e-02
-3.5088765e-02
-3.6779746e-02
-3.7485431e-02
-3.6934976e-02
-3.4989858e-02
-3.1591662e-02
-2.6647918e-02
-2.0103551e-02
-1.2085620e-02
-2.9514244e-03
6.8138636e-03
1.6760059e-02
2.6460078e-02
3.5435505e-02
4.3216667e-02
4.9403102e-02
5.3696754e-02
5.5962777e-02
5.6233731e-02
5.4648085e-02
5.1412715e-02
4.6804211e-02
4.1150048e-02
3.4819749e-02
2.8215267e-02
2.1687171e-02
1.5425635e-02
9.4098505e-03
3.4808119e-03
-2.5306512e-03
-8.6998271e-03
-1.4902966e-02
-2.0825067e-02
-2.6123153e-02
-3.0574200e-02
-3.4095139e-02
-3.6683650e-02
-3.8371857e-02
-3.9227098e-02
-3.9388390e-02
-3.9060709e-02
-3.8463187e-02
-3.7768624e-02
-3.7006863e-02
-3.6043406e-02
-3.4658500e-02
-3.2593384e-02
-2.9592469e-02
-2.5497107e-02
-2.0368740e-02
-1.4525603e-02
-8.3646099e-03
-2.1156323e-03
4.1797769e-03
1.0440722e-02
1.6411680e-02
2.1788254e-02
2.6365382e-02
3.0078309e-02
3.2977736e-02
3.5197784e-02
3.6929395e-02
3.8330202e-02
3.9448125e-02
4.0229318e-02
4.0557554e-02
4.0314233e-02
3.9411096e-02
3.7740118e-02
3.5109259e-02
3.1309390e-02
2.6292719e-02
2.0258851e-02
1.3574426e-02
6.6073420e-03
-3.8465580e-04
-7.2195850e-03
-1.3708331e-02
-1.9622110e-02
-2.4719712e-02
-2.8793336e-02
-3.1687605e-02
-3.3352156e-02
-3.3907602e-02
-3.3629029e-02
-3.2859947e-02
-3.1920919e-02
-3.1034753e-02
-3.0226387e-02
-2.9308959e-02
-2.8037150e-02
-2.6246774e-02
-2.3906211e-02
-2.1109894e-02
-1.8011266e-02
-1.4730454e-02
-1.1323539e-02
-7.8361082e-03
-4.3339557e-03
-9.3233384e-04
2.1883671e-03
4.8940063e-03
7.2117582e-03
9.2777633e-03
1.1180005e-02
1.2952674e-02
1.4731300e-02
1.6763445e-02
1.9260158e-02
2.2243844e-02
2.5472947e-02
2.8582865e-02
3.1343386e-02
3.3721071e-02
3.5727707e-02
3.7311468e-02
3.8307264e-02
3.8337574e-02
3.6870742e-02
3.3500153e-02
2.8215801e-02
2.1512023e-02
1.4185559e-02
6.9402208e-03
1.5409229e-04
-6.0738172e-03
-1.1734344e-02
-1.6784707e-02
-2.1201962e-02
-2.5106023e-02
-2.8689482e-02
-3.1997588e-02
-3.4899451e-02
-3.7255711e-02
-3.9034482e-02
-4.0221636e-02
-4.0663418e-02
-4.0119747e-02
-3.8428591e-02
-3.5600542e-02
-3.1848837e-02
-2.7477989e-02
-2.2686108e-02
-1.7538049e-02
-1.2151338e-02
-6.7708652e-03
-1.6039950e-03
3.2620031e-03
7.7716347e-03
1.1835156e-02
1.5353869e-02
1.8291419e-02
2.0698419e-02
2.2723045e-02
2.4621228e-02
2.6658554e-02
2.8954919e-02
3.1427545e-02
3.3849573e-02
3.5913000e-02
3.7262255e-02
3.7542130e-02
3.6461677e-02
3.3876714e-02
2.9881585e-02
2.4825257e-02
1.9209884e-02
1.3573965e-02
8.4043175e-03
4.0361805e-03
5.9134276e-04
-2.0347477e-03
-4.1617524e-03
-6.2493967e-03
-8.7791889e-03
-1.2091225e-02
-1.6257951e-02
-2.1189971e-02
-2.6808120e-02
-3.2998538e-02
-3.9456718e-02
-4.5669535e-02
-5.1090291e-02
-5.5327311e-02
-5.8145551e-02
-5.9295464e-02
-5.8433466e-02
-5.5274267e-02
-4.9741391e-02
-4.1970201e-02
-3.2211682e-02
-2.0722782e-02
-7.7844801e-03
6.2193574e-03
2.0778697e-02
3.5299689e-02
4.9223366e-02
6.2065064e-02
7.3310635e-02
8.2332152e-02
8.8413985e-02
9.0850648e-02
8.9066527e-02
8.2810290e-02
7.2345229e-02
5.8439041e-02
4.2185976e-02
2.4804900e-02
7.5095100e-03
-8.5285392e-03
-2.2249312e-02
-3.2940324e-02
-4.0419971e-02
-4.4882320e-02
-4.6692569e-02
-4.6372204e-02
-4.4530068e-02
-4.1731442e-02
-3.8451352e-02
-3.5038637e-02
-3.1683648e-02
-2.8474065e-02
-2.5484878e-02
-2.2809205e-02
-2.0529725e-02
-1.8672741e-02
-1.7238566e-02
-1.6271773e-02
-1.5795469e-02
-1.5700064e-02
-1.5774104e-02
-1.5794097e-02
-1.5517987e-02
-1.4668460e-02
-1.3060152e-02
-1.0670867e-02
-7.4946815e-03
-3.3873620e-03
1.9158866e-03
8.5688349e-03
1.6366413e-02
2.4748693e-02
3.3012849e-02
4.0530715e-02
4.6771268e-02
5.1231482e-02
5.3506189e-02
5.3366409e-02
5.0784094e-02
4.5963337e-02
3.9326592e-02
3.1487907e-02
2.3218598e-02
1.5367757e-02
8.6934792e-03
3.5970730e-03
-3.0039312e-05
-2.6166695e-03
-4.5654262e-03
-6.1646665e-03
-7.7142443e-03
-9.5691408e-03
-1.2046125e-02
-1.5291222e-02
-1.9266383e-02
-2.3857647e-02
-2.8936806e-02
-3.4313293e-02
-3.9657264e-02
-4.4487097e-02
-4.8230443e-02
-5.0376557e-02
-5.0655267e-02
-4.9043184e-02
-4.5637731e-02
-4.0578576e-02
-3.4004022e-02
-2.6047724e-02
-1.6963587e-02
-7.2151129e-03
2.7077003e-03
1.2498812e-02
2.1977903e-02
3.0928899e-02
3.9004849e-02
4.5788786e-02
5.1025324e-02
5.4721991e-02
5.6990500e-02
5.7849191e-02
5.7111333e-02
5.4440407e-02
4.9626080e-02
4.2828267e-02
3.4522024e-02
2.5249550e-02
1.5430169e-02
5.3785608e-03
-4.5502432e-03
-1.3938391e-02
-2.2418226e-02
-2.9774044e-02
-3.5936143e-02
-4.0843764e-02
-4.4381389e-02
-4.6504733e-02
-4.7371184e-02
-4.7312013e-02
-4.6679285e-02
-4.5743539e-02
-4.4683375e-02
-4.3536814e-02
-4.2123691e-02
-4.0089740e-02
-3.7085774e-02
-3.2886945e-02
-2.7385625e-02
-2.0560097e-02
-1.2473306e-02
-3.3319446e-03
6.5243013e-03
1.6761936e-02
2.7091870e-02
3.7162893e-02
4.6516743e-02
5.4695800e-02
6.1380237e-02
6.6465734e-02
7.0043995e-02
7.2221884e-02
7.2964392e-02
7.2120106e-02
6.9522757e-02
6.5106174e-02
5.8960269e-02
5.1273068e-02
4.2267713e-02
3.2223790e-02
2.1510254e-02
1.0546672e-02
-2.4276341e-04
-1.0488365e-02
-1.9968443e-02
-2.8601585e-02
-3.6343572e-02
-4.3098371e-02
-4.8685603e-02
-5.2912036e-02
-5.5726286e-02
-5.7345843e-02
-5.8212722e-02
-5.8736585e-02
-5.9037313e-02
-5.8925618e-02
-5.8085543e-02
-5.6276603e-02
-5.3426558e-02
-4.9548064e-02
-4.4636152e-02
-3.8750311e-02
-3.2129264e-02
-2.5168875e-02
-1.8308036e-02
-1.1901576e-02
-6.1409972e-03
-1.0038058e-03
3.7324793e-03
8.3793759e-03
1.3217949e-02
1.8404116e-02
2.3936063e-02
2.9705002e-02
3.5565638e-02
4.1359871e-02
4.6851395e-02
5.1710734e-02
5.5656522e-02
5.8560525e-02
6.0377220e-02
6.0990208e-02
6.0153662e-02
5.7612393e-02
5.3270942e-02
4.7264300e-02
3.9930743e-02
3.1704390e-02
2.2971950e-02
1.4030265e-02
5.0785636e-03
-3.8436035e-03
-1.2771421e-02
-2.1662176e-02
-3.0397463e-02
-3.8767639e-02
-4.6391275e-02
-5.2783438e-02
-5.7588956e-02
-6.0714676e-02
-6.2219310e-02
-6.2206434e-02
-6.0844948e-02
-5.8360958e-02
-5.4923118e-02
-5.0525166e-02
-4.5030670e-02
-3.8292758e-02
-3.0159988e-02
-2.0444952e-02
-9.0088724e-03
4.0733548e-03
1.8415205e-02
3.3311090e-02
4.7822979e-02
6.0986986e-02
7.2006946e-02
8.0339395e-02
8.5635889e-02
8.7620362e-02
8.6142883e-02
8.1347776e-02
7.3691770e-02
6.3785959e-02
5.2252484e-02
3.9713180e-02
2.6769363e-02
1.3907415e-02
1.4132071e-03
-1.0628617e-02
-2.2225482e-02
-3.3363427e-02
-4.3900896e-02
-5.3539228e-02
-6.1958576e-02
-6.8906437e-02
-7.4197995e-02
-7.7764464e-02
-7.9682767e-02
-8.0084998e-02
-7.8963511e-02
-7.6093189e-02
-7.1233884e-02
-6.4376773e-02
-5.5727874e-02
-4.5523167e-02
-3.3994364e-02
-2.1444632e-02
-8.2109669e-03
5.4016757e-03
1.9090447e-02
3.2535256e-02
4.5441846e-02
5.7506282e-02
6.8319360e-02
7.7352574e-02
8.4040634e-02
8.7930612e-02
8.8776010e-02
8.6560401e-02
8.1518503e-02
7.4040231e-02
6.4531311e-02
5.3426128e-02
4.1294051e-02
2.8826380e-02
1.6618460e-02
5.0252392e-03
-5.7567635e-03
-1.5609660e-02
-2.4522675e-02
-3.2611747e-02
-4.0008182e-02
-4.6751297e-02
-5.2809852e-02
-5.8062045e-02
-6.2259292e-02
-6.5096615e-02
-6.6277033e-02
-6.5519440e-02
-6.2621724e-02
-5.7629376e-02
-5.0959731e-02
-4.3306334e-02
-3.5340928e-02
-2.7436882e-02
-1.9661446e-02
-1.2002223e-02
-4.5107754e-03
2.7869946e-03
9.9580589e-03
1.7074911e-02
2.4152401e-02
3.1109858e-02
3.7750316e-02
4.3870415e-02
4.9377166e-02
5.4208688e-02
5.8100965e-02
6.0546175e-02
6.1087869e-02
5.9522936e-02
5.5797870e-02
4.9928354e-02
4.2064872e-02
3.2508121e-02
2.1664028e-02
1.0053544e-02
-1.6855795e-03
-1.2835119e-02
-2.2654972e-02
-3.0557216e-02
-3.6285025e-02
-3.9875272e-02
-4.1481892e-02
-4.1293716e-02
-3.9568680e-02
-3.6652176e-02
-3.2990074e-02
-2.9074964e-02
-2.5239368e-02
-2.1571933e-02
-1.8101467e-02
-1.4983103e-02
-1.2471789e-02
-1.0731036e-02
-9.7296484e-03
-9.3388782e-03
-9.4608538e-03
-1.0008947e-02
-1.0722750e-02
-1.1015238e-02
-1.0060957e-02
-7.1158421e-03
-1.8084531e-03
5.8165717e-03
1.5360842e-02
2.6073598e-02
3.6890155e-02
4.6656585e-02
5.4398727e-02
5.9378000e-02
6.1075555e-02
5.9273624e-02
5.4107667e-02
4.6007121e-02
3.5549914e-02
2.3389955e-02
1.0354621e-02
-2.5486888e-03
-1.4372349e-02
-2.4451108e-02
-3.2449173e-02
-3.8318259e-02
-4.2148023e-02
-4.4016920e-02
-4.4077008e-02
-4.2710715e-02
-4.0489643e-02
-3.7972304e-02
-3.5493452e-02
-3.3090565e-02
-3.0631325e-02
-2.8028045e-02
-2.5317063e-02
-2.2552764e-02
-1.9705265e-02
-1.6679066e-02
-1.3408172e-02
-9.8678438e-03
-5.9789120e-03
-1.6184775e-03
3.2908737e-03
8.7172853e-03
1.4453013e-02
2.0168787e-02
2.5569143e-02
3.0468666e-02
3.4772918e-02
3.8434434e-02
4.1414206e-02
4.3607729e-02
4.4741781e-02
4.4350392e-02
4.1981096e-02
3.7555070e-02
3.1490629e-02
2.4486057e-02
1.7243245e-02
1.0327528e-02
4.1739313e-03
-9.0650470e-04
-4.8324011e-03
-7.8506473e-03
-1.0428020e-02
-1.2944997e-02
-1.5498825e-02
-1.7967793e-02
-2.0136036e-02
-2.1784975e-02
-2.2793433e-02
-2.3185492e-02
-2.3127355e-02
-2.2935013e-02
-2.2993957e-02
-2.3564238e-02
-2.4608482e-02
-2.5724297e-02
-2.6285153e-02
-2.5714240e-02
-2.3671030e-02
-2.0133895e-02
-1.5342358e-02
-9.6124549e-03
-3.2369540e-03
3.4718005e-03
1.0169962e-02
1.6561582e-02
2.2415215e-02
2.7508358e-02
3.1634124e-02
3.4644208e-02
3.6420505e-02
3.6797048e-02
3.5574864e-02
3.2611536e-02
2.7878598e-02
2.1527011e-02
1.3910621e-02
5.5060460e-03
-3.1755226e-03
-1.1592617e-02
-1.9127813e-02
-2.5151547e-02
-2.9164027e-02
-3.0879906e-02
-3.0287695e-02
-2.7684148e-02
-2.3629994e-02
-1.8806071e-02
-1.3865062e-02
-9.3837970e-03
-5.8120187e-03
-3.3838597e-03
-2.1271072e-03
-1.9729193e-03
-2.8062624e-03
-4.3819772e-03
-6.2611407e-03
-7.8865963e-03
-8.7132899e-03
-8.3169000e-03
-6.4706116e-03
-3.2216017e-03
1.0608151e-03
5.8360267e-03
1.0695600e-02
1.5478008e-02
2.0109090e-02
2.4464022e-02
2.8382459e-02
3.1671082e-02
3.4046784e-02
3.5151577e-02
3.4697871e-02
3.2599553e-02
2.8948551e-02
2.3927204e-02
1.7758228e-02
1.0687939e-02
2.9899923e-03
-4.9965627e-03
-1.2819386e-02
-1.9949858e-02
-2.5870841e-02
-3.0129878e-02
-3.2400927e-02
-3.2592733e-02
-3.0898333e-02
-2.7690321e-02
-2.3420775e-02
-1.8589905e-02
-1.3675104e-02
-9.1258129e-03
-5.4161272e-03
-2.9531697e-03
-1.8940070e-03
-2.0920255e-03
-3.2252225e-03
-4.9265272e-03
-6.7966536e-03
-8.4058230e-03
-9.3711308e-03
-9.4503322e-03
-8.5746826e-03
-6.8389449e-03
-4.4601626e-03
-1.7004134e-03
1.1720639e-03
3.9027860e-03
6.3195938e-03
8.3964364e-03
1.0191335e-02
1.1661792e-02
1.2619710e-02
1.2914208e-02
1.2637763e-02
1.2181578e-02
1.2005033e-02
1.2347002e-02
1.3247070e-02
1.4689213e-02
1.6587795e-02
1.8705473e-02
2.0661798e-02
2.2029567e-02
2.2419399e-02
2.1572087e-02
1.9474580e-02
1.6369987e-02
1.2628794e-02
8.6196058e-03
4.6651577e-03
9.7515682e-04
-2.4464341e-03
-5.7362968e-03
-9.0137623e-03
-1.2296334e-02
-1.5472949e-02
-1.8319699e-02
-2.0562053e-02
-2.1963679e-02
-2.2441496e-02
-2.2156051e-02
-2.1465928e-02
-2.0777802e-02
-2.0425723e-02
-2.0579921e-02
-2.1220031e-02
-2.2221760e-02
-2.3410566e-02
-2.4512179e-02
-2.5135042e-02
-2.4875108e-02
-2.3437932e-02
-2.0686813e-02
-1.6662001e-02
-1.1554188e-02
-5.6612801e-03
6.5525867e-04
7.1133251e-03
1.3593760e-02
1.9979450e-02
2.5981207e-02
3.1208424e-02
3.5371001e-02
3.8409567e-02
4.0474407e-02
4.1714477e-02
4.2085999e-02
4.1402076e-02
3.9459210e-02
3.6073319e-02
3.1110329e-02
2.4649362e-02
1.7134922e-02
9.2464818e-03
1.6510988e-03
-5.1031840e-03
-1.0667945e-02
-1.4964235e-02
-1.8076139e-02
-2.0104116e-02
-2.1172778e-02
-2.1481536e-02
-2.1298951e-02
-2.0899851e-02
-2.0464623e-02
-2.0085462e-02
-1.9830984e-02
-1.9721484e-02
-1.9717989e-02
-1.9739923e-02
-1.9672366e-02
-1.9422756e-02
-1.8996069e-02
-1.8499512e-02
-1.8019948e-02
-1.7501255e-02
-1.6778006e-02
-1.5667282e-02
-1.3987748e-02
-1.1578046e-02
-8.3988236e-03
-4.6027122e-03
-4.4937605e-04
3.8806636e-03
8.3802446e-03
1.3092343e-02
1.7964457e-02
2.2866257e-02
2.7655080e-02
3.2185646e-02
3.6289027e-02
3.9761512e-02
4.2368234e-02
4.3870680e-02
4.4063753e-02
4.2744020e-02
3.9735850e-02
3.5087333e-02
2.9174266e-02
2.2566771e-02
1.5818439e-02
9.3221289e-03
3.3067041e-03
-2.0713707e-03
-6.7013458e-03
-1.0600937e-02
-1.3963263e-02
-1.7090915e-02
-2.0263773e-02
-2.3603693e-02
-2.7072551e-02
-3.0582081e-02
-3.4041149e-02
-3.7324259e-02
-4.0223998e-02
-4.2454872e-02
-4.3712962e-02
-4.3744362e-02
-4.2431918e-02
-3.9804361e-02
-3.5949835e-02
-3.1018309e-02
-2.5266533e-02
-1.8994953e-02
-1.2481707e-02
-6.0049755e-03
1.7447013e-04
5.8674735e-03
1.0930642e-02
1.5283497e-02
1.8941088e-02
2.1934324e-02
2.4274187e-02
2.5956677e-02
2.6892052e-02
2.6835399e-02
2.5467339e-02
2.2645848e-02
1.8573391e-02
1.3710585e-02
8.5822708e-03
3.6939596e-03
-4.5620313e-04
-3.5072420e-03
-5.4419769e-03
-6.5211331e-03
-6.9406620e-03
-6.6392716e-03
-5.4567903e-03
-3.3560459e-03
-4.8408264e-04
2.9160498e-03
6.6103704e-03
1.0347056e-02
1.3828014e-02
1.6813202e-02
1.9237922e-02
2.1258348e-02
2.3196771e-02
2.5376314e-02
2.7945606e-02
3.0813720e-02
3.3662995e-02
3.5947672e-02
3.6966844e-02
3.6057776e-02
3.2750789e-02
2.6855976e-02
1.8607628e-02
8.8126721e-03
-1.2848450e-03
-1.0427534e-02
-1.7713824e-02
-2.2825625e-02
-2.6062543e-02
-2.8049192e-02
-2.9359369e-02
-3.0389589e-02
-3.1475304e-02
-3.2986773e-02
-3.5209817e-02
-3.8098479e-02
-4.1174815e-02
-4.3690610e-02
-4.4861950e-02
-4.4074110e-02
-4.1044592e-02
-3.5874249e-02
-2.9058295e-02
-2.1404068e-02
-1.3767155e-02
-6.8434906e-03
-1.1343589e-03
3.0574004e-03
5.6707742e-03
6.8915199e-03
7.0373479e-03
6.4303546e-03
5.3843195e-03
4.2491893e-03
3.3650641e-03
2.9135356e-03
2.8364110e-03
2.9469691e-03
3.1822887e-03
3.7344306e-03
4.9108814e-03
6.9209254e-03
9.7393027e-03
1.3102110e-02
1.6644791e-02
2.0074651e-02
2.3298534e-02
2.6412440e-02
2.9540950e-02
3.2665445e-02
3.5569132e-02
3.7939891e-02
3.9500398e-02
4.0019411e-02
3.9250627e-02
3.6950775e-02
3.3041769e-02
2.7740825e-02
2.1461543e-02
1.4634324e-02
7.6780707e-03
1.0148372e-03
-5.0400918e-03
-1.0382673e-02
-1.5035009e-02
-1.8950684e-02
-2.2002108e-02
-2.4176989e-02
-2.5638002e-02
-2.6586093e-02
-2.7131777e-02
-2.7266141e-02
-2.7016677e-02
-2.6636175e-02
-2.6538830e-02
-2.7040848e-02
-2.8175146e-02
-2.9693419e-02
-3.1163018e-02
-3.2110985e-02
-3.2186610e-02
-3.1221185e-02
-2.9163104e-02
-2.6004222e-02
-2.1811179e-02
-1.6797861e-02
-1.1261485e-02
-5.4447248e-03
4.6749856e-04
6.2784654e-03
1.1824966e-02
1.7035737e-02
2.1880092e-02
2.6345988e-02
3.0474722e-02
3.4342131e-02
3.7956805e-02
4.1130409e-02
4.3469972e-02
4.4516803e-02
4.3915192e-02
4.1540080e-02
3.7545018e-02
3.2325477e-02
2.6377641e-02
2.0125753e-02
1.3889922e-02
7.9344845e-03
2.4488220e-03
-2.4723569e-03
-6.7918258e-03
-1.0548231e-02
-1.3924400e-02
-1.7156734e-02
-2.0332838e-02
-2.3378191e-02
-2.6213030e-02
-2.8819844e-02
-3.1181170e-02
-3.3224080e-02
-3.4805823e-02
-3.5729211e-02
-3.5804459e-02
-3.4858979e-02
-3.2695970e-02
-2.9141526e-02
-2.4156095e-02
-1.7930472e-02
-1.0900453e-02
-3.6318683e-03
3.3434590e-03
9.6765338e-03
1.5290164e-02
2.0279216e-02
2.4685239e-02
2.8432067e-02
3.1426856e-02
3.3610311e-02
3.4953414e-02
3.5435001e-02
3.4986930e-02
3.3448409e-02
3.0546679e-02
2.5982376e-02
1.9647157e-02
1.1813807e-02
3.1379137e-03
-5.5210431e-03
-1.3280414e-02
-1.9344901e-02
-2.3123275e-02
-2.4355013e-02
-2.3225240e-02
-2.0395695e-02
-1.6848073e-02
-1.3592158e-02
-1.1363577e-02
-1.0431519e-02
-1.0648430e-02
-1.1677971e-02
-1.3175721e-02
-1.4851149e-02
-1.6456678e-02
-1.7741406e-02
-1.8450434e-02
-1.8378289e-02
-1.7371374e-02
-1.5296629e-02
-1.2105083e-02
-7.9259211e-03
-3.0102026e-03
2.3946706e-03
8.0850410e-03
1.3888305e-02
1.9589783e-02
2.4868375e-02
2.9377068e-02
3.2880691e-02
3.5357078e-02
3.6966077e-02
3.7867865e-02
3.8112844e-02
3.7624258e-02
3.6196379e-02
3.3557791e-02
2.9477835e-02
2.3898700e-02
1.6994913e-02
9.0919545e-03
5.9407080e-04
-8.0325817e-03
-1.6349464e-02
-2.4081545e-02
-3.1090866e-02
-3.7198330e-02
-4.2087401e-02
-4.5369242e-02
-4.6699966e-02
-4.5887867e-02
-4.3012786e-02
-3.8408807e-02
-3.2481944e-02
-2.5675205e-02
-1.8561800e-02
-1.1767867e-02
-5.7651871e-03
-7.3659701e-04
3.3871226e-03
6.7584127e-03
9.4756424e-03
1.1568351e-02
1.3053267e-02
1.3972238e-02
1.4414487e-02
1.4530425e-02
1.4455105e-02
1.4220374e-02
1.3810467e-02
1.3280136e-02
1.2772897e-02
1.2423090e-02
1.2232852e-02
1.2044928e-02
1.1654543e-02
1.0925831e-02
9.8403144e-03
8.5124654e-03
7.0993476e-03
5.6517101e-03
4.1058605e-03
2.4141684e-03
6.1877287e-04
-1.1972110e-03
-2.9564541e-03
-4.5857647e-03
-6.0153698e-03
-7.1666637e-03
-7.9278753e-03
-8.1602176e-03
-7.7172684e-03
-6.4890622e-03
-4.5028760e-03
-1.9493444e-03
9.1947324e-04
3.8343956e-03
6.4779418e-03
8.5107873e-03
9.6032959e-03
9.4499320e-03
7.8602391e-03
4.8724204e-03
7.6981339e-04
-3.9549548e-03
-8.5980102e-03
-1.2356741e-02
-1.4643511e-02
-1.5282446e-02
-1.4427447e-02
-1.2392411e-02
-9.5066943e-03
-6.0339345e-03
-2.2094933e-03
1.6612585e-03
5.2313841e-03
8.2666907e-03
1.0662138e-02
1.2287273e-02
1.2903866e-02
1.2260766e-02
1.0269428e-02
7.1176131e-03
3.2742789e-03
-6.0016784e-04
-3.8574577e-03
-6.1037365e-03
-7.2816124e-03
-7.5452871e-03
-7.1288239e-03
-6.3218174e-03
-5.4614286e-03
-4.8411029e-03
-4.5628927e-03
-4.5084934e-03
-4.4975058e-03
-4.4435628e-03
-4.3563400e-03
-4.2859868e-03
-4.3430464e-03
-4.7032108e-03
-5.4892249e-03
-6.6763361e-03
-8.1080090e-03
-9.5029430e-03
-1.0491645e-02
-1.0761806e-02
-1.0148108e-02
-8.5942092e-03
-6.1049052e-03
-2.7379598e-03
1.3253270e-03
5.7383074e-03
1.0138644e-02
1.4318054e-02
1.8216433e-02
2.1804693e-02
2.5028446e-02
2.7824372e-02
3.0053612e-02
3.1412719e-02
3.1483810e-02
2.9934690e-02
2.6720219e-02
2.2074829e-02
1.6417849e-02
1.0334059e-02
4.4447799e-03
-8.0868708e-04
-5.2336316e-03
-8.8300677e-03
-1.1743573e-02
-1.4213499e-02
-1.6456148e-02
-1.8585906e-02
-2.0645921e-02
-2.2662205e-02
-2.4653792e-02
-2.6568170e-02
-2.8239510e-02
-2.9462660e-02
-3.0061597e-02
-2.9862459e-02
-2.8659211e-02
-2.6284671e-02
-2.2757791e-02
-1.8317368e-02
-1.3258699e-02
-7.7973400e-03
-2.1521953e-03
3.3364361e-03
8.2817772e-03
1.2423997e-02
1.5687779e-02
1.8117694e-02
1.9848352e-02
2.1094539e-02
2.2057983e-02
2.2840145e-02
2.3435842e-02
2.3746945e-02
2.3590537e-02
2.2752603e-02
2.1082736e-02
1.8555371e-02
1.5298705e-02
1.1566556e-02
7.6558262e-03
3.8974824e-03
6.7258896e-04
-1.6634546e-03
-2.9150584e-03
-3.1668765e-03
-2.8083899e-03
-2.4515272e-03
-2.7346351e-03
-4.0506449e-03
-6.3937946e-03
-9.4024362e-03
-1.2550813e-02
-1.5406694e-02
-1.7761723e-02
-1.9556235e-02
-2.0746744e-02
-2.1251047e-02
-2.0976968e-02
-1.9925526e-02
-1.8276940e-02
-1.6270435e-02
-1.3984608e-02
-1.1300030e-02
-8.0208309e-03
-4.0105732e-03
7.2556888e-04
6.0553045e-03
1.1769841e-02
1.7603097e-02
2.3256349e-02
2.8407613e-02
3.2649196e-02
3.5489678e-02
3.6515148e-02
3.5543389e-02
3.2664600e-02
2.8180491e-02
2.2484445e-02
1.6014254e-02
9.2673926e-03
2.7035961e-03
-3.4165555e-03
-8.9944716e-03
-1.3896802e-02
-1.7900328e-02
-2.0838016e-02
-2.2800231e-02
-2.4195007e-02
-2.5547002e-02
-2.7196470e-02
-2.9184315e-02
-3.1383042e-02
-3.3614308e-02
-3.5599742e-02
-3.6895978e-02
-3.6970377e-02
-3.5435076e-02
-3.2232090e-02
-2.7587653e-02
-2.1847278e-02
-1.5321281e-02
-8.2185287e-03
-6.8585533e-04
7.1537168e-03
1.5213509e-02
2.3474604e-02
3.1944502e-02
4.0495329e-02
4.8686849e-02
5.5773880e-02
6.1007457e-02
6.3935715e-02
6.4433899e-02
6.2620639e-02
5.8730789e-02
5.2979205e-02
4.5568646e-02
3.6755017e-02
2.6878834e-02
1.6391641e-02
5.8117029e-03
-4.3848197e-03
-1.3836086e-02
-2.2312410e-02
-2.9704187e-02
-3.5981027e-02
-4.1153570e-02
-4.5248863e-02
-4.8300478e-02
-5.0368303e-02
-5.1529886e-02
-5.1838064e-02
-5.1296233e-02
-4.9874809e-02
-4.7572701e-02
-4.4435280e-02
-4.0504562e-02
-3.5813746e-02
-3.0449825e-02
-2.4573350e-02
-1.8366834e-02
-1.2003196e-02
-5.6236137e-03
6.7579932e-04
6.8004081e-03
1.2665212e-02
1.8246088e-02
2.3528858e-02
2.8438651e-02
3.2871998e-02
3.6741839e-02
3.9940896e-02
4.2322327e-02
4.3736118e-02
4.4020524e-02
4.2997281e-02
4.0572949e-02
3.6918589e-02
3.2485529e-02
2.7725510e-02
2.2882598e-02
1.8085795e-02
1.3517307e-02
9.4293167e-03
6.0084151e-03
3.3131981e-03
1.3142151e-03
-1.2758482e-04
-1.2690731e-03
-2.4174036e-03
-3.8835246e-03
-5.9286613e-03
-8.6646462e-03
-1.2031603e-02
-1.5855772e-02
-1.9898323e-02
-2.3951502e-02
-2.7885235e-02
-3.1518443e-02
-3.4562013e-02
-3.6787094e-02
-3.8154517e-02
-3.8715461e-02
-3.8466367e-02
-3.7332830e-02
-3.5187340e-02
-3.1878551e-02
-2.7334980e-02
-2.1638591e-02
-1.5028777e-02
-7.8755360e-03
-5.7463247e-04
6.6057433e-03
1.3587934e-02
2.0355470e-02
2.6754197e-02
3.2485378e-02
3.7285908e-02
4.1017809e-02
4.3557047e-02
4.4709811e-02
4.4297565e-02
4.2258530e-02
3.8675136e-02
3.3783632e-02
2.7964684e-02
2.1677074e-02
1.5368484e-02
9.3603390e-03
3.7314739e-03
-1.6101162e-03
-6.7250175e-03
-1.1601375e-02
-1.6241105e-02
-2.0638980e-02
-2.4645948e-02
-2.7935712e-02
-3.0150320e-02
-3.1058363e-02
-3.0653207e-02
-2.9168494e-02
-2.6946563e-02
-2.4252604e-02
-2.1217892e-02
-1.7945655e-02
-1.4620222e-02
-1.1482232e-02
-8.6970776e-03
-6.2587645e-03
-4.0212659e-03
-1.7804908e-03
6.2442542e-04
3.1835470e-03
5.7250717e-03
8.0763817e-03
1.0151337e-02
1.1926600e-02
1.3435189e-02
1.4738978e-02
1.5822102e-02
1.6575285e-02
1.6920117e-02
1.6853870e-02
1.6384460e-02
1.5540863e-02
1.4482486e-02
1.3511659e-02
1.2918820e-02
1.2840757e-02
1.3210045e-02
1.3735139e-02
1.3923387e-02
1.3215974e-02
1.1213154e-02
7.8098091e-03
3.1660906e-03
-2.3575977e-03
-8.2362402e-03
-1.3884618e-02
-1.8845447e-02
-2.2881381e-02
-2.5912611e-02
-2.7906612e-02
-2.8792438e-02
-2.8476762e-02
-2.6941236e-02
-2.4280383e-02
-2.0682608e-02
-1.6442595e-02
-1.1927074e-02
-7.4468612e-03
-3.2054404e-03
6.5148764e-04
4.0442208e-03
6.9989950e-03
9.6158123e-03
1.1985734e-02
1.4139362e-02
1.6068519e-02
1.7776731e-02
1.9286358e-02
2.0573035e-02
2.1550521e-02
2.2191034e-02
2.2590724e-02
2.2895765e-02
2.3156746e-02
2.3181939e-02
2.2604355e-02
2.1105626e-02
1.8495491e-02
1.4668433e-02
9.6101571e-03
3.4724475e-03
-3.3851312e-03
-1.0459405e-02
-1.7233041e-02
-2.3277012e-02
-2.8304964e-02
-3.2188922e-02
-3.4879029e-02
-3.6343556e-02
-3.6648920e-02
-3.6023784e-02
-3.4844766e-02
-3.3542128e-02
-3.2414745e-02
-3.1524198e-02
-3.0724884e-02
-2.9749848e-02
-2.8317399e-02
-2.6151007e-02
-2.2883506e-02
-1.8083038e-02
-1.1487855e-02
-3.1689012e-03
6.5060290e-03
1.7020564e-02
2.7870073e-02
3.8565025e-02
4.8562507e-02
5.7305710e-02
6.4295486e-02
6.9158852e-02
7.1710654e-02
7.1928508e-02
6.9831970e-02
6.5378878e-02
5.8532906e-02
4.9439457e-02
3.8493819e-02
2.6234092e-02
1.3209778e-02
2.1204051e-05
-1.2573773e-02
-2.3720600e-02
-3.2697885e-02
-3.9179458e-02
-4.3338696e-02
-4.5698862e-02
-4.6823372e-02
-4.7074527e-02
-4.6646697e-02
-4.5703457e-02
-4.4369015e-02
-4.2683397e-02
-4.0672051e-02
-3.8424018e-02
-3.6037356e-02
-3.3554515e-02
-3.1008878e-02
-2.8459943e-02
-2.5894869e-02
-2.3102355e-02
-1.9772173e-02
-1.5723693e-02
-1.0935780e-02
-5.4277527e-03
7.9517492e-04
7.7080761e-03
1.5238135e-02
2.3241326e-02
3.1416552e-02
3.9260096e-02
4.6150407e-02
5.1476159e-02
5.4734050e-02
5.5653474e-02
5.4323580e-02
5.1141702e-02
4.6613918e-02
4.1187269e-02
3.5181790e-02
2.8826117e-02
2.2286067e-02
1.5659750e-02
9.0526632e-03
2.6436700e-03
-3.3720000e-03
-8.8631842e-03
-1.3790247e-02
-1.8213812e-02
-2.2255007e-02
-2.6037163e-02
-2.9733928e-02
-3.3526086e-02
-3.7335723e-02
-4.0741644e-02
-4.3254083e-02
-4.4597942e-02
-4.4748742e-02
-4.3794145e-02
-4.1794037e-02
-3.8730723e-02
-3.4552053e-02
-2.9246633e-02
-2.2904453e-02
-1.5732015e-02
-7.9545324e-03
3.0174157e-04
9.0023419e-03
1.8110131e-02
2.7437461e-02
3.6515529e-02
4.4639889e-02
5.1103062e-02
5.5393868e-02
5.7217560e-02
5.6483104e-02
5.3308528e-02
4.8002119e-02
4.1055929e-02
3.3052091e-02
2.4520563e-02
1.5917143e-02
7.6511936e-03
6.3838029e-05
-6.5795143e-03
-1.2036071e-02
-1.6102139e-02
-1.8762050e-02
-2.0324179e-02
-2.1411954e-02
-2.2741923e-02
-2.4827719e-02
-2.7871568e-02
-3.1818927e-02
-3.6369163e-02
-4.0946886e-02
-4.4823359e-02
-4.7334342e-02
-4.7989143e-02
-4.6494047e-02
-4.2734315e-02
-3.6719569e-02
-2.8624690e-02
-1.8896217e-02
-8.1724974e-03
2.9351274e-03
1.3916449e-02
2.4331927e-02
3.3798201e-02
4.1948942e-02
4.8471883e-02
5.3190306e-02
5.6015046e-02
5.6888045e-02
5.5799162e-02
5.2775174e-02
4.7866774e-02
4.1196480e-02
3.3008544e-02
2.3658105e-02
1.3611997e-02
3.4816704e-03
-5.9994135e-03
-1.4100902e-02
-2.0304624e-02
-2.4452647e-02
-2.6736726e-02
-2.7541086e-02
-2.7236723e-02
-2.6129709e-02
-2.4516426e-02
-2.2699853e-02
-2.0984947e-02
-1.9603573e-02
-1.8612058e-02
-1.7928117e-02
-1.7441804e-02
-1.7035144e-02
-1.6590759e-02
-1.6123950e-02
-1.5866597e-02
-1.6106442e-02
-1.6919095e-02
-1.8038910e-02
-1.8971350e-02
-1.9217115e-02
-1.8413851e-02
-1.6364982e-02
-1.2977901e-02
-8.2060442e-03
-2.0933260e-03
5.1315228e-03
1.3011569e-02
2.0946490e-02
2.8326636e-02
3.4634286e-02
3.9550149e-02
4.2994338e-02
4.5028075e-02
4.5700665e-02
4.4994566e-02
4.2895388e-02
3.9472428e-02
3.4907283e-02
2.9456524e-02
2.3395314e-02
1.7026941e-02
1.0707529e-02
4.8229427e-03
-2.7760842e-04
-4.4194177e-03
-7.7118868e-03
-1.0464182e-02
-1.3000898e-02
-1.5548099e-02
-1.8179027e-02
-2.0829971e-02
-2.3394537e-02
-2.5764759e-02
-2.7803994e-02
-2.9366937e-02
-3.0350817e-02
-3.0692716e-02
-3.0362218e-02
-2.9428332e-02
-2.8115968e-02
-2.6732634e-02
-2.5465112e-02
-2.4255421e-02
-2.2930262e-02
-2.1321836e-02
-1.9222744e-02
-1.6424722e-02
-1.2883360e-02
-8.8193476e-03
-4.6069047e-03
-4.8480643e-04
3.6275053e-03
8.0224946e-03
1.2922602e-02
1.8327284e-02
2.4088584e-02
3.0007022e-02
3.5816438e-02
4.1095775e-02
4.5277756e-02
4.7790553e-02
4.8194221e-02
4.6354738e-02
4.2563951e-02
3.7401846e-02
3.1485655e-02
2.5293792e-02
1.9085882e-02
1.2897881e-02
6.6116587e-03
1.1482644e-04
-6.5743260e-03
-1.3324660e-02
-1.9958950e-02
-2.6266195e-02
-3.2006513e-02
-3.6970453e-02
-4.1004843e-02
-4.3990542e-02
-4.5877988e-02
-4.6723409e-02
-4.6604380e-02
-4.5523531e-02
-4.3440984e-02
-4.0329009e-02
-3.6198703e-02
-3.1117854e-02
-2.5151507e-02
-1.8327578e-02
-1.0701534e-02
-2.4064430e-03
6.3386568e-03
1.5218856e-02
2.3818883e-02
3.1697441e-02
3.8550683e-02
4.4330567e-02
4.9242399e-02
5.3599156e-02
5.7534627e-02
6.0810709e-02
6.2928552e-02
6.3371215e-02
6.1718248e-02
5.7682872e-02
5.1224894e-02
4.2637056e-02
3.2487534e-02
2.1477664e-02
1.0271615e-02
-6.3250492e-04
-1.0907981e-02
-2.0337358e-02
-2.8817849e-02
-3.6376231e-02
-4.3098713e-02
-4.9097078e-02
-5.4489855e-02
-5.9261853e-02
-6.3166005e-02
-6.5885291e-02
-6.7262434e-02
-6.7300325e-02
-6.6070728e-02
-6.3702893e-02
-6.0321678e-02
-5.5912851e-02
-5.0269326e-02
-4.3095497e-02
-3.4177344e-02
-2.3476392e-02
-1.1155382e-02
2.3868714e-03
1.6487720e-02
3.0303265e-02
4.3021943e-02
5.4046039e-02
6.3028870e-02
6.9817356e-02
7.4404615e-02
7.6895983e-02
7.7393880e-02
7.5899692e-02
7.2353764e-02
6.6736479e-02
5.9149348e-02
4.9835495e-02
3.9168019e-02
2.7634607e-02
1.5812301e-02
4.3532304e-03
-6.0684887e-03
-1.4895680e-02
-2.1858504e-02
-2.7017071e-02
-3.0638003e-02
-3.3082667e-02
-3.4706424e-02
-3.5724141e-02
-3.6184785e-02
-3.6084275e-02
-3.5513280e-02
-3.4725055e-02
-3.4009678e-02
-3.3453084e-02
-3.2881404e-02
-3.2040277e-02
-3.0749287e-02
-2.8965206e-02
-2.6780892e-02
-2.4303324e-02
-2.1529126e-02
-1.8371007e-02
-1.4746364e-02
-1.0616230e-02
-6.0038562e-03
-9.6335810e-04
4.5031509e-03
1.0432549e-02
1.6813378e-02
2.3570602e-02
3.0533447e-02
3.7271685e-02
4.3050515e-02
4.7141295e-02
4.9157168e-02
4.9060712e-02
4.7030807e-02
4.3392685e-02
3.8527106e-02
3.2741399e-02
2.6266909e-02
1.9363399e-02
1.2313399e-02
5.3665581e-03
-1.2222905e-03
-7.1508579e-03
-1.2104554e-02
-1.5909397e-02
-1.8692550e-02
-2.0805499e-02
-2.2577514e-02
-2.4177936e-02
-2.5659907e-02
-2.7074218e-02
-2.8543522e-02
-3.0219599e-02
-3.2171701e-02
-3.4368771e-02
-3.6719970e-02
-3.9015830e-02
-4.0858446e-02
-4.1777495e-02
-4.1424245e-02
-3.9606363e-02
-3.6217178e-02
-3.1154593e-02
-2.4277488e-02
-1.5565552e-02
-5.3347827e-03
5.8281729e-03
1.7307454e-02
2.8568288e-02
3.9105739e-02
4.8426714e-02
5.6149492e-02
6.2064566e-02
6.5974458e-02
6.7456522e-02
6.5950527e-02
6.1108936e-02
5.2995788e-02
4.2154383e-02
2.9668420e-02
1.6998463e-02
5.5624799e-03
-3.6135506e-03
-1.0024509e-02
-1.3664572e-02
-1.4850692e-02
-1.3989587e-02
-1.1495525e-02
-7.8607439e-03
-3.7712250e-03
-8.7925655e-05
2.3790983e-03
3.0323977e-03
1.5004786e-03
-2.3380083e-03
-8.3271252e-03
-1.6047640e-02
-2.4856214e-02
-3.3882172e-02
-4.2016991e-02
-4.8080086e-02
-5.1120232e-02
-5.0664229e-02
-4.6921864e-02
-4.0826447e-02
-3.3605656e-02
-2.6232650e-02
-1.9334740e-02
-1.3300074e-02
-8.2245523e-03
-3.8705989e-03
1.6620041e-04
4.1909797e-03
8.3262816e-03
1.2625395e-02
1.7122142e-02
2.1733095e-02
2.6228026e-02
3.0342244e-02
3.3779348e-02
3.6156921e-02
3.7147300e-02
3.6639445e-02
3.4729131e-02
3.1607933e-02
2.7443733e-02
2.2326869e-02
1.6302163e-02
9.4944196e-03
2.2398465e-03
-4.9731238e-03
-1.1701861e-02
-1.7648138e-02
-2.2644831e-02
-2.6626619e-02
-2.9537850e-02
-3.1224823e-02
-3.1472451e-02
-3.0152182e-02
-2.7318488e-02
-2.3169626e-02
-1.7970311e-02
-1.2039362e-02
-5.7251124e-03
6.8581664e-04
7.0723461e-03
1.3462917e-02
1.9877260e-02
2.6207165e-02
3.2158999e-02
3.7221044e-02
4.0734961e-02
4.2076769e-02
4.0947500e-02
3.7576030e-02
3.2512779e-02
2.6260211e-02
1.9187270e-02
1.1619081e-02
3.8883200e-03
-3.6166920e-03
-1.0498749e-02
-1.6507980e-02
-2.1530574e-02
-2.5449672e-02
-2.8144961e-02
-2.9567601e-02
-2.9793797e-02
-2.9061103e-02
-2.7729361e-02
-2.6177286e-02
-2.4731294e-02
-2.3652168e-02
-2.3085711e-02
-2.2998288e-02
-2.3182877e-02
-2.3293873e-02
-2.2953085e-02
-2.1920093e-02
-2.0134225e-02
-1.7611931e-02
-1.4380201e-02
-1.0482705e-02
-5.9736970e-03
-9.4002967e-04
4.4737754e-03
1.0154646e-02
1.6107309e-02
2.2371253e-02
2.8817796e-02
3.5078875e-02
4.0740036e-02
4.5486904e-02
4.9014706e-02
5.0949173e-02
5.0923618e-02
4.8713687e-02
4.4298137e-02
3.7842490e-02
2.9678571e-02
2.0293787e-02
1.0313054e-02
4.2715023e-04
-8.7067711e-03
-1.6579738e-02
-2.2926337e-02
-2.7689346e-02
-3.0984352e-02
-3.3092450e-02
-3.4323882e-02
-3.4908797e-02
-3.5018126e-02
-3.4770135e-02
-3.4200837e-02
-3.3270056e-02
-3.1886855e-02
-2.9930127e-02
-2.7332458e-02
-2.4172664e-02
-2.0621125e-02
-1.6779699e-02
-1.2612146e-02
-8.0427350e-03
-3.0763258e-03
2.1389661e-03
7.3118940e-03
1.2141225e-02
1.6449030e-02
2.0206882e-02
2.3522986e-02
2.6552672e-02
2.9379694e-02
3.1983755e-02
3.4272877e-02
3.6138335e-02
3.7448230e-02
3.7946661e-02
3.7266356e-02
3.5166188e-02
3.1668984e-02
2.6910849e-02
2.1041654e-02
1.4282200e-02
6.8950297e-03
-8.6188565e-04
-8.6671373e-03
-1.6100937e-02
-2.2740054e-02
-2.8235776e-02
-3.2320319e-02
-3.4874850e-02
-3.5983528e-02
-3.5870472e-02
-3.4829125e-02
-3.3176639e-02
-3.1181896e-02
-2.8984622e-02
-2.6586107e-02
-2.3936784e-02
-2.1021902e-02
-1.7863660e-02
-1.4489909e-02
-1.0949284e-02
-7.3070384e-03
-3.5707398e-03
3.5117974e-04
4.6147287e-03
9.3381946e-03
1.4486263e-02
1.9850443e-02
2.5101201e-02
2.9863445e-02
3.3798021e-02
3.6627013e-02
3.8131991e-02
3.8158371e-02
3.6589388e-02
3.3348284e-02
2.8483853e-02
2.2228096e-02
1.4978564e-02
7.3146988e-03
-6.6542546e-05
-6.5932333e-03
-1.1933517e-02
-1.5899162e-02
-1.8400725e-02
-1.9479140e-02
-1.9257346e-02
-1.7840479e-02
-1.5343915e-02
-1.2053853e-02
-8.5236385e-03
-5.4258019e-03
-3.2390840e-03
-2.1374602e-03
-2.1736008e-03
-3.4124002e-03
-5.8300546e-03
-9.1556404e-03
-1.2873721e-02
-1.6391283e-02
-1.9210027e-02
-2.0993774e-02
-2.1559438e-02
-2.0885631e-02
-1.9103882e-02
-1.6379306e-02
-1.2782255e-02
-8.3260608e-03
-3.0958941e-03
2.7306638e-03
8.8625797e-03
1.4802818e-02
1.9933454e-02
2.3754049e-02
2.6009933e-02
2.6667983e-02
2.5850862e-02
2.3784913e-02
2.0745320e-02
1.7025678e-02
1.2955866e-02
8.9539288e-03
5.5469926e-03
3.2453890e-03
2.3338900e-03
2.7895884e-03
4.3799674e-03
6.7655538e-03
9.4662520e-03
1.1845415e-02
1.3276840e-02
1.3349333e-02
1.1913358e-02
8.9991929e-03
4.7100496e-03
-8.5582170e-04
-7.5510110e-03
-1.5001075e-02
-2.2550747e-02
-2.9438575e-02
-3.5037429e-02
-3.8967874e-02
-4.1046373e-02
-4.1261284e-02
-3.9800671e-02
-3.6960116e-02
-3.2997113e-02
-2.8049250e-02
-2.2137490e-02
-1.5308796e-02
-7.8059457e-03
-1.1939838e-05
7.7564433e-03
1.5293697e-02
2.2378488e-02
2.8677086e-02
3.3793072e-02
3.7424513e-02
3.9435369e-02
3.9795204e-02
3.8547787e-02
3.5845005e-02
3.1967887e-02
2.7301520e-02
2.2292163e-02
1.7400407e-02
1.3009812e-02
9.3004382e-03
6.1872416e-03
3.4149606e-03
7.4763750e-04
-1.8785482e-03
-4.3479715e-03
-6.5469977e-03
-8.5353599e-03
-1.0529318e-02
-1.2725677e-02
-1.5128341e-02
-1.7596248e-02
-1.9947954e-02
-2.1920516e-02
-2.3210739e-02
-2.3636618e-02
-2.3212413e-02
-2.2121399e-02
-2.0641979e-02
-1.9023196e-02
-1.7386388e-02
-1.5765915e-02
-1.4194395e-02
-1.2675476e-02
-1.1081521e-02
-9.1824718e-03
-6.8601638e-03
-4.2169867e-03
-1.4353494e-03
1.3970263e-03
4.3195153e-03
7.4398985e-03
1.0873399e-02
1.4619278e-02
1.8486335e-02
2.2210305e-02
2.5500838e-02
2.7996136e-02
2.9390960e-02
2.9588645e-02
2.8676731e-02
2.6801570e-02
2.4076049e-02
2.0603598e-02
1.6556255e-02
1.2172790e-02
7.6764875e-03
3.2517821e-03
-9.5447104e-04
-4.9107118e-03
-8.7003447e-03
-1.2378013e-02
-1.5877327e-02
-1.9060567e-02
-2.1783813e-02
-2.3918260e-02
-2.5418655e-02
-2.6342782e-02
-2.6737960e-02
-2.6579332e-02
-2.5798491e-02
-2.4317934e-02
-2.2106755e-02
-1.9236559e-02
-1.5892705e-02
-1.2307060e-02
-8.6626863e-03
-5.1049693e-03
-1.8264853e-03
9.7537460e-04
3.2848891e-03
5.3618218e-03
7.6404072e-03
1.0559021e-02
1.4453831e-02
1.9490190e-02
2.5543835e-02
3.2185184e-02
3.8842573e-02
4.4903059e-02
4.9662918e-02
5.2309535e-02
5.2088762e-02
4.8580607e-02
4.1877180e-02
3.2596136e-02
2.1741229e-02
1.0446725e-02
-2.7794902e-04
-9.7355080e-03
-1.7599400e-02
-2.3841805e-02
-2.8654580e-02
-3.2358071e-02
-3.5236466e-02
-3.7428330e-02
-3.9011191e-02
-4.0120175e-02
-4.0911780e-02
-4.1494017e-02
-4.1920539e-02
-4.2175907e-02
-4.2143534e-02
-4.1629570e-02
-4.0427100e-02
-3.8315863e-02
-3.5050267e-02
-3.0457267e-02
-2.4541588e-02
-1.7449126e-02
-9.3945786e-03
-6.7877664e-04
8.3211198e-03
1.7236741e-02
2.5773814e-02
3.3712325e-02
4.0803422e-02
4.6716123e-02
5.1179332e-02
5.4100483e-02
5.5503928e-02
5.5389343e-02
5.3687246e-02
5.0380981e-02
4.5625036e-02
3.9734228e-02
3.3067431e-02
2.5908226e-02
1.8475120e-02
1.1022315e-02
3.9219147e-03
-2.3632039e-03
-7.4593655e-03
-1.1226355e-02
-1.3730445e-02
-1.5196242e-02
-1.6001362e-02
-1.6605111e-02
-1.7420064e-02
-1.8690197e-02
-2.0444605e-02
-2.2652167e-02
-2.5419795e-02
-2.8902429e-02
-3.3016228e-02
-3.7318485e-02
-4.1159974e-02
-4.3937101e-02
-4.5237004e-02
-4.4817399e-02
-4.2528702e-02
-3.8288919e-02
-3.2117626e-02
-2.4161348e-02
-1.4632680e-02
-3.7679207e-03
8.0366468e-03
2.0153545e-02
3.1909296e-02
4.2695209e-02
5.1879337e-02
5.8817380e-02
6.3042440e-02
6.4414412e-02
6.3093511e-02
5.9390633e-02
5.3596682e-02
4.5952457e-02
3.6810816e-02
2.6713496e-02
1.6244136e-02
5.8998609e-03
-3.8863771e-03
-1.2730931e-02
-2.0411813e-02
-2.6964566e-02
-3.2613755e-02
-3.7584871e-02
-4.1931250e-02
-4.5524941e-02
-4.8186342e-02
-4.9798028e-02
-5.0339899e-02
-4.9863117e-02
-4.8447122e-02
-4.6147922e-02
-4.2962880e-02
-3.8872221e-02
-3.3936308e-02
-2.8342490e-02
-2.2303319e-02
-1.5896061e-02
-9.0312524e-03
-1.5554084e-03
6.6138549e-03
1.5380829e-02
2.4471389e-02
3.3554493e-02
4.2306409e-02
5.0351576e-02
5.7273719e-02
6.2738093e-02
6.6553840e-02
6.8625790e-02
6.8905158e-02
6.7372977e-02
6.3980944e-02
5.8617121e-02
5.1192389e-02
4.1772842e-02
3.0700684e-02
1.8618536e-02
6.3335222e-03
-5.3516478e-03
-1.5760732e-02
-2.4432755e-02
-3.1189745e-02
-3.6153887e-02
-3.9659983e-02
-4.2107326e-02
-4.3814563e-02
-4.4963287e-02
-4.5669236e-02
-4.6078059e-02
-4.6393479e-02
-4.6766309e-02
-4.7132504e-02
-4.7239592e-02
-4.6823332e-02
-4.5675644e-02
-4.3602211e-02
-4.0475820e-02
-3.6319247e-02
-3.1227032e-02
-2.5261584e-02
-1.8495726e-02
-1.1111966e-02
-3.4171571e-03
4.2497523e-03
1.1621556e-02
1.8556199e-02
2.5045384e-02
3.1167806e-02
3.7006737e-02
4.2566435e-02
4.7765047e-02
5.2553680e-02
5.6977046e-02
6.1029030e-02
6.4482404e-02
6.6884466e-02
6.7677142e-02
6.6345647e-02
6.2528364e-02
5.6072393e-02
4.7096116e-02
3.5984538e-02
2.3255091e-02
9.4823578e-03
-4.6416735e-03
-1.8292731e-02
-3.0660645e-02
-4.1122960e-02
-4.9281557e-02
-5.4930230e-02
-5.8051958e-02
-5.8854306e-02
-5.7775526e-02
-5.5375194e-02
-5.2226143e-02
-4.8837323e-02
-4.5533184e-02
-4.2438604e-02
-3.9561121e-02
-3.6803642e-02
-3.3966892e-02
-3.0821017e-02
-2.7156078e-02
-2.2766508e-02
-1.7475516e-02
-1.1184879e-02
-3.8452014e-03
4.6061691e-03
1.4214006e-02
2.4783332e-02
3.5661285e-02
4.5870582e-02
5.4494665e-02
6.0926991e-02
6.4834149e-02
6.6004843e-02
6.4313183e-02
5.9809664e-02
5.2804919e-02
4.3883288e-02
3.3859483e-02
2.3626393e-02
1.3930675e-02
5.2353728e-03
-2.3046864e-03
-8.7905497e-03
-1.4473504e-02
-1.9623442e-02
-2.4411500e-02
-2.8895719e-02
-3.3057106e-02
-3.6787218e-02
-3.9892208e-02
-4.2151175e-02
-4.3401056e-02
-4.3606949e-02
-4.2823290e-02
-4.1059414e-02
-3.8251258e-02
-3.4389342e-02
-2.9549806e-02
-2.3809064e-02
-1.7262242e-02
-1.0100907e-02
-2.6300794e-03
4.8162567e-03
1.2010076e-02
1.8832711e-02
2.5169261e-02
3.0877994e-02
3.5842686e-02
3.9992020e-02
4.3275330e-02
4.5639999e-02
4.6946648e-02
4.6918179e-02
4.5319501e-02
4.2181831e-02
3.7754318e-02
3.2284101e-02
2.5970233e-02
1.9073834e-02
1.1929880e-02
4.8540129e-03
-1.9187818e-03
-8.2147061e-03
-1.3923834e-02
-1.9019597e-02
-2.3515380e-02
-2.7497972e-02
-3.1171153e-02
-3.4713767e-02
-3.8130756e-02
-4.1263950e-02
-4.3886256e-02
-4.5782093e-02
-4.6753391e-02
-4.6582135e-02
-4.5071355e-02
-4.2203760e-02
-3.8198972e-02
-3.3330115e-02
-2.7748672e-02
-2.1490003e-02
-1.4573320e-02
-7.0799662e-03
8.4414164e-04
9.0262365e-03
1.7324422e-02
2.5622393e-02
3.3726665e-02
4.1317959e-02
4.8023188e-02
5.3532749e-02
5.7625235e-02
6.0110084e-02
6.0859222e-02
5.9874448e-02
5.7229357e-02
5.2963992e-02
4.7093534e-02
3.9725476e-02
3.1181048e-02
2.1989874e-02
1.2710535e-02
3.7276430e-03
-4.8294587e-03
-1.3001492e-02
-2.0813716e-02
-2.8169616e-02
-3.4860927e-02
-4.0650880e-02
-4.5411200e-02
-4.9164572e-02
-5.1982934e-02
-5.3884057e-02
-5.4807456e-02
-5.4611789e-02
-5.3055153e-02
-4.9876443e-02
-4.4979882e-02
-3.8542179e-02
-3.0987968e-02
-2.2865499e-02
-1.4657297e-02
-6.6247249e-03
1.1776015e-03
8.7001263e-03
1.5787744e-02
2.2324922e-02
2.8350887e-02
3.3980068e-02
3.9283968e-02
4.4186315e-02
4.8382600e-02
5.1447107e-02
5.3075694e-02
5.3162545e-02
5.1689310e-02
4.8639069e-02
4.4026842e-02
3.7966341e-02
3.0694432e-02
2.2580694e-02
1.4075794e-02
5.5865150e-03
-2.6028119e-03
-1.0324639e-02
-1.7461655e-02
-2.3907119e-02
-2.9625527e-02
-3.4677429e-02
-3.9116744e-02
-4.2896961e-02
-4.5873544e-02
-4.7855747e-02
-4.8692641e-02
-4.8346713e-02
-4.6880797e-02
-4.4411194e-02
-4.1050761e-02
-3.6804132e-02
-3.1512987e-02
-2.4964599e-02
-1.7115315e-02
-8.2333015e-03
1.1667624e-03
1.0527204e-02
1.9467729e-02
2.7867533e-02
3.5752067e-02
4.3134392e-02
4.9938069e-02
5.5967785e-02
6.0832508e-02
6.3938060e-02
6.4706665e-02
6.2812459e-02
5.8178734e-02
5.0841431e-02
4.0925696e-02
2.8725587e-02
1.4744261e-02
-3.0401810e-04
-1.5569585e-02
-3.0221826e-02
-4.3544179e-02
-5.4914191e-02
-6.3750749e-02
-6.9572981e-02
-7.2137438e-02
-7.1508392e-02
-6.8033611e-02
-6.2238970e-02
-5.4700211e-02
-4.5941301e-02
-3.6373968e-02
-2.6280797e-02
-1.5820969e-02
-5.1020232e-03
5.7202235e-03
1.6407792e-02
2.6654814e-02
3.6105605e-02
4.4321441e-02
5.0782071e-02
5.5024675e-02
5.6746027e-02
5.5837105e-02
5.2596641e-02
4.7938961e-02
4.3059054e-02
3.8817978e-02
3.5580559e-02
3.3384292e-02
3.2011487e-02
3.1010944e-02
2.9816296e-02
2.7923488e-02
2.4935935e-02
2.0498011e-02
1.4333484e-02
6.3904563e-03
-3.0344505e-03
-1.3323310e-02
-2.3769700e-02
-3.3809260e-02
-4.2981316e-02
-5.0767162e-02
-5.6635356e-02
-6.0200273e-02
-6.1311562e-02
-6.0100445e-02
-5.6935950e-02
-5.2380811e-02
-4.7216566e-02
-4.2291887e-02
-3.8239374e-02
-3.5344461e-02
-3.3549118e-02
-3.2538542e-02
-3.1877556e-02
-3.1060868e-02
-2.9536067e-02
-2.6815676e-02
-2.2550344e-02
-1.6515210e-02
-8.6305856e-03
9.9559809e-04
1.2063254e-02
2.4126771e-02
3.6651185e-02
4.9023232e-02
6.0569946e-02
7.0560991e-02
7.8235293e-02
8.3006743e-02
8.4612318e-02
8.3001146e-02
7.8300478e-02
7.0996249e-02
6.1934124e-02
5.1955130e-02
4.1552487e-02
3.0901580e-02
2.0130523e-02
9.4841421e-03
-7.4768065e-04
-1.0320679e-02
-1.8980507e-02
-2.6425638e-02
-3.2417322e-02
-3.6883862e-02
-3.9922636e-02
-4.1788165e-02
-4.2808519e-02
-4.3211445e-02
-4.3079063e-02
-4.2405146e-02
-4.1113836e-02
-3.9097463e-02
-3.6277090e-02
-3.2622873e-02
-2.8120861e-02
-2.2830211e-02
-1.7019226e-02
-1.1111139e-02
-5.5094800e-03
-5.0530298e-04
3.7147895e-03
7.0490152e-03
9.5513660e-03
1.1415540e-02
1.2794104e-02
1.3691054e-02
1.4039784e-02
1.3832313e-02
1.3145883e-02
1.2094381e-02
1.0720043e-02
8.9021489e-03
6.4681534e-03
3.3986081e-03
-9.0888549e-05
-3.6592341e-03
-7.0543968e-03
-1.0212829e-02
-1.3164354e-02
-1.5874356e-02
-1.8211088e-02
-2.0000504e-02
-2.1001570e-02
-2.0904788e-02
-1.9442086e-02
-1.6520953e-02
-1.2270592e-02
-6.9122244e-03
-6.3503557e-04
6.3542652e-03
1.3752833e-02
2.1206056e-02
2.8431690e-02
3.5263921e-02
4.1590411e-02
4.7259767e-02
5.2010650e-02
5.5477620e-02
5.7247079e-02
5.6916245e-02
5.4121827e-02
4.8545464e-02
3.9994406e-02
2.8540835e-02
1.4674777e-02
-5.0589530e-04
-1.5310189e-02
-2.7982102e-02
-3.7352059e-02
-4.3026412e-02
-4.5287373e-02
-4.4887273e-02
-4.2659072e-02
-3.9240958e-02
-3.5115555e-02
-3.0747851e-02
-2.6630787e-02
-2.3279546e-02
-2.1188632e-02
-2.0643484e-02
-2.1520041e-02
-2.3270745e-02
-2.5088947e-02
-2.6165008e-02
-2.5883697e-02
-2.3909757e-02
-2.0166662e-02
-1.4742412e-02
-7.8818406e-03
-3.8354831e-05
8.1461328e-03
1.5909311e-02
2.2521474e-02
2.7518263e-02
3.0769913e-02
3.2291858e-02
3.2098717e-02
3.0294953e-02
2.7140989e-02
2.2954698e-02
1.8055371e-02
1.2777769e-02
7.4470161e-03
2.3562357e-03
-2.2465570e-03
-6.1946460e-03
-9.3925912e-03
-1.1772999e-02
-1.3270562e-02
-1.3746844e-02
-1.2965516e-02
-1.0776225e-02
-7.3291770e-03
-3.0763469e-03
1.4123663e-03
5.6470859e-03
9.3472620e-03
1.2413428e-02
1.4734963e-02
1.6138508e-02
1.6519137e-02
1.5892786e-02
1.4392858e-02
1.2262407e-02
9.7999227e-03
7.3154277e-03
5.1123502e-03
3.4391267e-03
2.4197514e-03
2.0406420e-03
2.1834719e-03
2.6546096e-03
3.2479371e-03
3.8332859e-03
4.3206767e-03
4.4669648e-03
3.8292767e-03
1.9903911e-03
-1.2197874e-03
-5.6466191e-03
-1.0862976e-02
-1.6272242e-02
-2.1221996e-02
-2.5237709e-02
-2.8177676e-02
-3.0088345e-02
-3.1006437e-02
-3.0926164e-02
-2.9836098e-02
-2.7713620e-02
-2.4571014e-02
-2.0552030e-02
-1.5909015e-02
-1.0905910e-02
-5.7334249e-03
-4.6721151e-04
4.9130023e-03
1.0523259e-02
1.6507204e-02
2.2840698e-02
2.9212527e-02
3.5119546e-02
4.0060086e-02
4.3596795e-02
4.5312640e-02
4.4850240e-02
4.2054004e-02
3.7090257e-02
3.0410772e-02
2.2625776e-02
1.4419744e-02
6.4542494e-03
-7.8285474e-04
-7.0782321e-03
-1.2435537e-02
-1.6932190e-02
-2.0653031e-02
-2.3704844e-02
-2.6240842e-02
-2.8453977e-02
-3.0541444e-02
-3.2667455e-02
-3.4900869e-02
-3.7124931e-02
-3.9016998e-02
-4.0167271e-02
-4.0192082e-02
-3.8747753e-02
-3.5591999e-02
-3.0725454e-02
-2.4490598e-02
-1.7530233e-02
-1.0600471e-02
-4.3384381e-03
9.4727303e-04
5.3589132e-03
9.2635252e-03
1.3050244e-02
1.6984925e-02
2.1162230e-02
2.5498851e-02
2.9840412e-02
3.4123619e-02
3.8376788e-02
4.2583927e-02
4.6574977e-02
5.0019336e-02
5.2520025e-02
5.3722192e-02
5.3386665e-02
5.1397380e-02
4.7743313e-02
4.2566698e-02
3.6161301e-02
2.8864768e-02
2.0994046e-02
1.2863829e-02
4.8107431e-03
-2.8455106e-03
-9.8631017e-03
-1.6098108e-02
-2.1529526e-02
-2.6277749e-02
-3.0540127e-02
-3.4492602e-02
-3.8274774e-02
-4.2012042e-02
-4.5787467e-02
-4.9606313e-02
-5.3345535e-02
-5.6697213e-02
-5.9205187e-02
-6.0392866e-02
-5.9875512e-02
-5.7396078e-02
-5.2846876e-02
-4.6327972e-02
-3.8169517e-02
-2.8810556e-02
-1.8608056e-02
-7.8466697e-03
3.0909316e-03
1.3736236e-02
2.3717515e-02
3.2839193e-02
4.0994597e-02
4.8053869e-02
5.3815625e-02
5.8003520e-02
6.0340291e-02
6.0675263e-02
5.9027727e-02
5.5540841e-02
5.0476590e-02
4.4218913e-02
3.7160261e-02
2.9583651e-02
2.1686413e-02
1.3671234e-02
5.7500182e-03
-1.9328951e-03
-9.3078287e-03
-1.6342965e-02
-2.3016225e-02
-2.9260974e-02
-3.4978057e-02
-4.0070220e-02
-4.4381887e-02
-4.7659424e-02
-4.9640182e-02
-5.0198361e-02
-4.9388929e-02
-4.7342374e-02
-4.4113379e-02
-3.9626097e-02
-3.3793075e-02
-2.6644171e-02
-1.8276421e-02
-8.7532023e-03
1.8208980e-03
1.3142010e-02
2.4746348e-02
3.6186628e-02
4.7079582e-02
5.7042577e-02
6.5652186e-02
7.2434683e-02
7.6891147e-02
7.8567903e-02
7.7149564e-02
7.2575924e-02
6.5150087e-02
5.5484845e-02
4.4291903e-02
3.2223309e-02
1.9795085e-02
7.3837607e-03
-4.6729149e-03
-1.6045547e-02
-2.6524779e-02
-3.6073967e-02
-4.4720449e-02
-5.2459970e-02
-5.9297464e-02
-6.5267360e-02
-7.0361271e-02
-7.4494722e-02
-7.7554010e-02
-7.9415569e-02
-7.9907888e-02
-7.8815730e-02
-7.5910935e-02
-7.0954445e-02
-6.3698855e-02
-5.3981364e-02
-4.1959774e-02
-2.8255144e-02
-1.3799428e-02
4.5664425e-04
1.3773767e-02
2.5716132e-02
3.6122502e-02
4.5014000e-02
5.2506655e-02
5.8768846e-02
6.3985784e-02
6.8325687e-02
7.1911160e-02
7.4784414e-02
7.6890596e-02
7.8063635e-02
7.8032112e-02
7.6480232e-02
7.3162501e-02
6.7978666e-02
6.0867442e-02
5.1732350e-02
4.0621808e-02
2.7907113e-02
1.4261760e-02
5.5955027e-04
-1.2254430e-02
-2.3412453e-02
-3.2539503e-02
-3.9604271e-02
-4.4808421e-02
-4.8530961e-02
-5.1209931e-02
-5.3246512e-02
-5.4962192e-02
-5.6534597e-02
-5.7921130e-02
-5.8868578e-02
-5.9082133e-02
-5.8434667e-02
-5.7054015e-02
-5.5208009e-02
-5.3053266e-02
-5.0457355e-02
-4.7026054e-02
-4.2296214e-02
-3.5888082e-02
-2.7519592e-02
-1.7047009e-02
-4.6059152e-03
9.2563429e-03
2.3601367e-02
3.7316450e-02
4.9384260e-02
5.9057953e-02
6.5903622e-02
6.9725997e-02
7.0484800e-02
6.8344400e-02
6.3776672e-02
5.7493751e-02
5.0223836e-02
4.2551101e-02
3.4925088e-02
2.7694182e-02
2.1063724e-02
1.5104965e-02
9.7871252e-03
4.9644353e-03
4.3758548e-04
-3.9360954e-03
-8.2050727e-03
-1.2389029e-02
-1.6547539e-02
-2.0743380e-02
-2.4974861e-02
-2.9123612e-02
-3.2956045e-02
-3.6228264e-02
-3.8780668e-02
-4.0532524e-02
-4.1421006e-02
-4.1398355e-02
-4.0445104e-02
-3.8498290e-02
-3.5447754e-02
-3.1245573e-02
-2.5959010e-02
-1.9751487e-02
-1.2893854e-02
-5.7446163e-03
1.3884944e-03
8.3232635e-03
1.4960008e-02
2.1233702e-02
2.7004414e-02
3.2010344e-02
3.6013161e-02
3.8929071e-02
4.0779000e-02
4.1513808e-02
4.0953239e-02
3.8948188e-02
3.5548996e-02
3.1030169e-02
2.5814744e-02
2.0354209e-02
1.4988123e-02
9.8733568e-03
5.0632524e-03
5.8005251e-04
-3.6425166e-03
-7.8099966e-03
-1.2140983e-02
-1.6649041e-02
-2.1132243e-02
-2.5337621e-02
-2.9046353e-02
-3.2098412e-02
-3.4403803e-02
-3.5913395e-02
-3.6605671e-02
-3.6479005e-02
-3.5481089e-02
-3.3482198e-02
-3.0400954e-02
-2.6320820e-02
-2.1445603e-02
-1.5985697e-02
-1.0102524e-02
-3.9191607e-03
2.4419174e-03
8.8404625e-03
1.5138838e-02
2.1224717e-02
2.7038606e-02
3.2543567e-02
3.7579043e-02
4.1811295e-02
4.4873345e-02
4.6445793e-02
4.6220230e-02
4.3939534e-02
3.9544508e-02
3.3250072e-02
2.5464746e-02
1.6701754e-02
7.5487497e-03
-1.3955210e-03
-9.6196510e-03
-1.6785530e-02
-2.2731471e-02
-2.7410958e-02
-3.0861126e-02
-3.3157795e-02
-3.4381445e-02
-3.4666118e-02
-3.4240691e-02
-3.3364890e-02
-3.2195658e-02
-3.0743872e-02
-2.8975649e-02
-2.6890555e-02
-2.4456607e-02
-2.1515704e-02
-1.7790719e-02
-1.3017355e-02
-7.1806109e-03
-5.6613104e-04
6.5257111e-03
1.3961179e-02
2.1657795e-02
2.9464301e-02
3.7126324e-02
4.4278986e-02
5.0487407e-02
5.5319138e-02
5.8401800e-02
5.9494777e-02
5.8560318e-02
5.5718894e-02
5.1112398e-02
4.4795491e-02
3.6744340e-02
2.7018437e-02
1.5881355e-02
3.7088977e-03
-9.1525256e-03
-2.2353098e-02
-3.5394243e-02
-4.7667588e-02
-5.8665899e-02
-6.8072075e-02
-7.5715999e-02
-8.1524201e-02
-8.5483607e-02
-8.7577197e-02
-8.7672012e-02
-8.5500876e-02
-8.0825003e-02
-7.3632171e-02
-6.4241728e-02
-5.3255476e-02
-4.1304586e-02
-2.8847021e-02
-1.6239433e-02
-3.8006255e-03
8.2657962e-03
1.9923475e-02
3.1321158e-02
4.2731544e-02
5.4424045e-02
6.6613180e-02
7.9431731e-02
9.2804380e-02
1.0624504e-01
1.1879425e-01
1.2924820e-01
1.3645717e-01
1.3945091e-01
1.3746151e-01
1.2998073e-01
1.1683270e-01
9.8238060e-02
7.4932152e-02
4.8281121e-02
2.0202005e-02
-7.2446951e-03
-3.2364717e-02
-5.4016620e-02
-7.1527617e-02
-8.4689449e-02
-9.3827702e-02
-9.9707541e-02
-1.0327050e-01
-1.0538832e-01
-1.0668871e-01
-1.0747280e-01
-1.0777193e-01
-1.0746740e-01
-1.0637260e-01
-1.0422359e-01
-1.0062125e-01
-9.5065119e-02
-8.7103002e-02
-7.6476463e-02
-6.3180762e-02
-4.7467913e-02
-2.9803281e-02
-1.0771892e-02
8.9656843e-03
2.8616508e-02
4.7247823e-02
6.3952863e-02
7.8038843e-02
8.9095920e-02
9.6974566e-02
1.0167841e-01
1.0330464e-01
1.0208848e-01
9.8354347e-02
9.2427328e-02
8.4649103e-02
7.5357171e-02
6.4784790e-02
5.3075798e-02
4.0450072e-02
2.7267824e-02
1.3952571e-02
9.9656608e-04
-1.1002329e-02
-2.1423319e-02
-2.9762083e-02
-3.5733283e-02
-3.9321222e-02
-4.0806738e-02
-4.0753451e-02
-3.9856888e-02
-3.8672747e-02
-3.7451854e-02
-3.6190904e-02
-3.4775093e-02
-3.3114273e-02
-3.1189565e-02
-2.9012057e-02
-2.6598001e-02
-2.3949416e-02
-2.1071404e-02
-1.8021715e-02
-1.4855459e-02
-1.1541219e-02
-7.9921410e-03
-4.1637470e-03
-1.0416201e-04
4.0722850e-03
8.2149555e-03
1.2156947e-02
1.5770405e-02
1.9000217e-02
2.1815760e-02
2.4198777e-02
2.6188811e-02
2.7820836e-02
2.9038413e-02
2.9683843e-02
2.9468037e-02
2.7987132e-02
2.4856965e-02
1.9905715e-02
1.3353650e-02
5.8437602e-03
-1.7414785e-03
-8.5510872e-03
-1.3945977e-02
-1.7538875e-02
-1.9160732e-02
-1.8855098e-02
-1.6950269e-02
-1.4044016e-02
-1.0783423e-02
-7.6404275e-03
-4.8647780e-03
-2.5673714e-03
-8.1262636e-04
3.0193956e-04
6.0380635e-04
-3.9952498e-05
-1.5623120e-03
-3.6877710e-03
-6.0331154e-03
-8.2481345e-03
-1.0107951e-02
-1.1482275e-02
-1.2287401e-02
-1.2507156e-02
-1.2201933e-02
-1.1444875e-02
-1.0269559e-02
-8.6704263e-03
-6.6621793e-03
-4.3739022e-03
-2.0522235e-03
-9.4849544e-06
1.4569249e-03
2.2316237e-03
2.4763651e-03
2.5441282e-03
2.8196083e-03
3.6090857e-03
5.0568866e-03
7.0772663e-03
9.4148930e-03
1.1757149e-02
1.3785142e-02
1.5230294e-02
1.5949629e-02
1.5942651e-02
1.5301104e-02
1.4182901e-02
1.2788870e-02
1.1285920e-02
9.7796810e-03
8.3740963e-03
7.2040930e-03
6.3518705e-03
5.7546700e-03
5.2342610e-03
4.5734344e-03
3.5544191e-03
1.9017723e-03
-7.6967478e-04
-4.8013583e-03
-1.0298105e-02
-1.7134139e-02
-2.5043250e-02
-3.3530747e-02
-4.1651607e-02
-4.8093953e-02
-5.1649362e-02
-5.1605597e-02
-4.7782024e-02
-4.0373858e-02
-2.9888425e-02
-1.7127463e-02
-3.0369503e-03
1.1456048e-02
2.5464653e-02
3.8100415e-02
4.8543991e-02
5.6198404e-02
6.0802451e-02
6.2507692e-02
6.1824447e-02
5.9396622e-02
5.5782973e-02
5.1352838e-02
4.6303577e-02
4.0775429e-02
3.4897448e-02
2.8659292e-02
2.1826189e-02
1.4025101e-02
4.8923148e-03
-5.7275550e-03
-1.7617846e-02
-3.0187215e-02
-4.2609558e-02
-5.4074616e-02
-6.3956305e-02
-7.1789699e-02
-7.7278167e-02
-8.0384527e-02
-8.1280384e-02
-8.0150125e-02
-7.7113993e-02
-7.2251815e-02
-6.5559826e-02
-5.6941739e-02
-4.6335696e-02
-3.3913670e-02
-2.0126578e-02
-5.5001533e-03
9.5608157e-03
2.4813960e-02
4.0107825e-02
5.5243564e-02
6.9847539e-02
8.3288267e-02
9.4687825e-02
1.0305712e-01
1.0749397e-01
1.0738814e-01
1.0260495e-01
9.3564035e-02
8.1062720e-02
6.6022296e-02
4.9408422e-02
3.2125511e-02
1.4867837e-02
-1.8520924e-03
-1.7573009e-02
-3.1858091e-02
-4.4431772e-02
-5.5217653e-02
-6.4147942e-02
-7.1076433e-02
-7.5921378e-02
-7.8731047e-02
-7.9561253e-02
-7.8469411e-02
-7.5689093e-02
-7.1657842e-02
-6.6784707e-02
-6.1184450e-02
-5.4699030e-02
-4.7158095e-02
-3.8505275e-02
-2.8781436e-02
-1.8093038e-02
-6.5128520e-03
5.9812352e-03
1.9361133e-02
3.3335196e-02
4.7386957e-02
6.0986725e-02
7.3691125e-02
8.5145005e-02
9.4985394e-02
1.0269126e-01
1.0756309e-01
1.0882607e-01
1.0578458e-01
9.7960196e-02
8.5143252e-02
6.7437998e-02
4.5374721e-02
2.0002996e-02
-7.1276100e-03
-3.4186175e-02
-5.9463072e-02
-8.1589624e-02
-9.9433949e-02
-1.1208347e-01
-1.1903734e-01
-1.2032634e-01
-1.1639433e-01
-1.0782719e-01
-9.5218001e-02
-7.9283792e-02
-6.1014376e-02
-4.1607554e-02
-2.2249520e-02
-3.9876777e-03
1.2272014e-02
2.5779080e-02
3.6062302e-02
4.2992635e-02
4.6632878e-02
4.7157273e-02
4.4921144e-02
4.0579935e-02
3.5266693e-02
3.0447165e-02
2.7303343e-02
2.6271553e-02
2.7197651e-02
2.9776261e-02
3.3762722e-02
3.8864279e-02
4.4443688e-02
4.9436862e-02
5.2732364e-02
5.3573926e-02
5.1638170e-02
4.6832102e-02
3.9038886e-02
2.8168340e-02
1.4478511e-02
-1.2221224e-03
-1.7685747e-02
-3.3492290e-02
-4.7313389e-02
-5.8102197e-02
-6.5125936e-02
-6.8042333e-02
-6.7131007e-02
-6.3365820e-02
-5.8091252e-02
-5.2481117e-02
-4.7205599e-02
-4.2449687e-02
-3.8119866e-02
-3.4023584e-02
-2.9901280e-02
-2.5465070e-02
-2.0481132e-02
-1.4753883e-02
-8.0952971e-03
-4.2102494e-04
8.0989566e-03
1.7061023e-02
2.6039520e-02
3.4741708e-02
4.2967591e-02
5.0489182e-02
5.7050219e-02
6.2411171e-02
6.6295619e-02
6.8379562e-02
6.8398380e-02
6.6290862e-02
6.2231007e-02
5.6476216e-02
4.9250946e-02
4.0758469e-02
3.1187663e-02
2.0734217e-02
9.6927279e-03
-1.5220594e-03
-1.2483245e-02
-2.2796653e-02
-3.2078757e-02
-3.9983841e-02
-4.6261097e-02
-5.0839678e-02
-5.3874916e-02
-5.5704586e-02
-5.6723899e-02
-5.7206231e-02
-5.7215889e-02
-5.6683260e-02
-5.5549342e-02
-5.3820670e-02
-5.1544997e-02
-4.8872544e-02
-4.6069981e-02
-4.3334423e-02
-4.0584191e-02
-3.7413723e-02
-3.3255416e-02
-2.7631956e-02
-2.0290322e-02
-1.1123906e-02
-9.0939868e-05
1.2631099e-02
2.6424490e-02
4.0268443e-02
5.3117027e-02
6.4266908e-02
7.3316533e-02
7.9945291e-02
8.3862581e-02
8.4906573e-02
8.3119205e-02
7.8645143e-02
7.1634308e-02
6.2316982e-02
5.1145130e-02
3.8877113e-02
2.6434492e-02
1.4618591e-02
3.9489589e-03
-5.2987102e-03
-1.2963019e-02
-1.9030593e-02
-2.3735330e-02
-2.7466835e-02
-3.0535334e-02
-3.2963368e-02
-3.4558943e-02
-3.5203335e-02
-3.4972370e-02
-3.3986411e-02
-3.2294861e-02
-3.0024301e-02
-2.7406139e-02
-2.4549592e-02
-2.1397829e-02
-1.7852490e-02
-1.3825103e-02
-9.2565666e-03
-4.2296596e-03
8.9099189e-04
5.5429183e-03
9.2449870e-03
1.1855227e-02
1.3615143e-02
1.4890062e-02
1.5845124e-02
1.6272211e-02
1.5592609e-02
1.3033665e-02
7.9689538e-03
3.2318005e-04
-9.2587416e-03
-1.9589236e-02
-2.9298913e-02
-3.7216620e-02
-4.2555084e-02
-4.4896969e-02
-4.4173097e-02
-4.0649848e-02
-3.4838635e-02
-2.7349803e-02
-1.8831621e-02
-9.9622168e-03
-1.3398819e-03
6.6782630e-03
1.4038384e-02
2.0837151e-02
2.6981446e-02
3.1964289e-02
3.5065967e-02
3.5791138e-02
3.4105938e-02
3.0401319e-02
2.5308143e-02
1.9506104e-02
1.3661649e-02
8.4479854e-03
4.5181186e-03
2.3931416e-03
2.3843907e-03
4.6211768e-03
9.0445157e-03
1.5305798e-02
2.2712833e-02
3.0351619e-02
3.7289048e-02
4.2681053e-02
4.5808765e-02
4.6105132e-02
4.3167404e-02
3.6775284e-02
2.6965514e-02
1.4244554e-02
-2.0721709e-04
-1.4766506e-02
-2.7994770e-02
-3.8980647e-02
-4.7213706e-02
-5.2497557e-02
-5.5012544e-02
-5.5256248e-02
-5.3803236e-02
-5.1046079e-02
-4.7173734e-02
-4.2333845e-02
-3.6710430e-02
-3.0546338e-02
-2.4169573e-02
-1.7957462e-02
-1.2258198e-02
-7.3247968e-03
-3.2898208e-03
-1.9593319e-04
1.9376270e-03
3.0958315e-03
3.3331392e-03
2.8889813e-03
2.2553081e-03
2.0884126e-03
2.9911629e-03
5.2585977e-03
8.8075876e-03
1.3347603e-02
1.8434613e-02
2.3394577e-02
2.7477751e-02
3.0177644e-02
3.1395065e-02
3.1391399e-02
3.0627186e-02
2.9538028e-02
2.8362456e-02
2.7140448e-02
2.5807663e-02
2.4277110e-02
2.2482387e-02
2.0366722e-02
1.7822370e-02
1.4659586e-02
1.0725504e-02
6.0566507e-03
8.7751940e-04
-4.4879626e-03
-9.7330337e-03
-1.4668176e-02
-1.9231227e-02
-2.3444681e-02
-2.7314496e-02
-3.0718954e-02
-3.3428832e-02
-3.5234257e-02
-3.6046680e-02
-3.5907166e-02
-3.4914957e-02
-3.3148850e-02
-3.0662844e-02
-2.7518444e-02
-2.3786559e-02
-1.9577613e-02
-1.5064706e-02
-1.0432983e-02
-5.8309718e-03
-1.3344772e-03
3.0807721e-03
7.4901942e-03
1.1927461e-02
1.6340767e-02
2.0578511e-02
2.4360543e-02
2.7333992e-02
2.9241735e-02
3.0016617e-02
2.9721860e-02
2.8476680e-02
2.6447497e-02
2.3841625e-02
2.0871252e-02
1.7728122e-02
1.4575864e-02
1.1540714e-02
8.7117775e-03
6.1596467e-03
3.9462153e-03
2.1142292e-03
6.8223718e-04
-3.5339449e-04
-1.0176779e-03
-1.3479627e-03
-1.3876008e-03
-1.1933636e-03
-8.4274060e-04
