-4.2452862e-03
1.7445881e-03
6.0203409e-03
8.8570320e-03
1.0210837e-02
9.7910387e-03
8.5796460e-03
6.9956173e-03
5.1412023e-03
4.0071436e-03
4.6966230e-03
7.0393602e-03
9.4996394e-03
1.1700419e-02
1.4253848e-02
1.8167244e-02
2.3032855e-02
2.6660011e-02
2.9158855e-02
3.1432976e-02
3.3445179e-02
3.4683621e-02
3.3960796e-02
3.1118739e-02
2.5685788e-02
1.7911755e-02
1.0239796e-02
3.4982187e-03
-2.3605242e-03
-6.6625400e-03
-9.3971240e-03
-1.1670115e-02
-1.4191518e-02
-1.6209857e-02
-1.7288043e-02
-1.7788923e-02
-1.8541463e-02
-1.9381757e-02
-1.9245710e-02
-1.8311049e-02
-1.6716726e-02
-1.5247581e-02
-1.4875908e-02
-1.4884451e-02
-1.4735642e-02
-1.3857019e-02
-1.2430811e-02
-1.1011921e-02
-9.0717667e-03
-6.6431879e-03
-3.8989662e-03
-7.5948082e-04
3.1442968e-03
7.9608067e-03
1.2711999e-02
1.7687788e-02
2.3116280e-02
2.7401031e-02
3.0790983e-02
3.4166636e-02
3.6795925e-02
3.7669300e-02
3.6893549e-02
3.5312807e-02
3.2306935e-02
2.8313807e-02
2.4494637e-02
2.0097349e-02
1.4711567e-02
8.4083297e-03
2.0031695e-03
-3.6045360e-03
-7.9727539e-03
-1.0890329e-02
-1.3487766e-02
-1.5848845e-02
-1.7132483e-02
-1.7829341e-02
-1.9115868e-02
-2.1982510e-02
-2.5224935e-02
-2.6912027e-02
-2.7450291e-02
-2.7312644e-02
-2.6302113e-02
-2.4054845e-02
-2.0519409e-02
-1.6615230e-02
-1.2896331e-02
-9.3741864e-03
-5.5075306e-03
-1.0551207e-03
3.4603846e-03
7.0421789e-03
8.9626994e-03
1.0328850e-02
1.1705554e-02
1.3368147e-02
1.6451076e-02
2.0220238e-02
2.4051173e-02
2.8001936e-02
3.1112973e-02
3.2411568e-02
3.1115987e-02
2.8013509e-02
2.4302735e-02
1.9732996e-02
1.3987035e-02
7.0593939e-03
-1.1553586e-04
-6.9842608e-03
-1.3140340e-02
-1.7354907e-02
-1.9783189e-02
-2.0598956e-02
-1.9906389e-02
-1.8645644e-02
-1.7939874e-02
-1.8650220e-02
-1.9737029e-02
-2.0126384e-02
-1.9894915e-02
-1.9066569e-02
-1.7714410e-02
-1.6102537e-02
-1.4625521e-02
-1.3022884e-02
-1.1071007e-02
-9.8097120e-03
-9.4504813e-03
-9.3439173e-03
-9.0280805e-03
-7.9629141e-03
-6.5635894e-03
-4.4434009e-03
-1.0992848e-03
2.9121207e-03
6.8943645e-03
1.0577029e-02
1.4805257e-02
1.9422303e-02
2.3706231e-02
2.7623400e-02
3.0713826e-02
3.2418699e-02
3.2366117e-02
3.0065995e-02
2.4950797e-02
1.7620243e-02
9.8649509e-03
2.3066219e-03
-5.3174536e-03
-1.2713528e-02
-1.9021945e-02
-2.3046617e-02
-2.5266655e-02
-2.7204766e-02
-2.8359821e-02
-2.7802591e-02
-2.6889083e-02
-2.7765148e-02
-2.9565774e-02
-3.0520319e-02
-3.0833855e-02
-3.0830274e-02
-3.0475659e-02
-2.9080850e-02
-2.6664598e-02
-2.3940387e-02
-2.0267551e-02
-1.5380847e-02
-1.0333642e-02
-6.1996245e-03
-2.2912254e-03
3.0542948e-03
9.4163441e-03
1.5253978e-02
1.9859021e-02
2.3635565e-02
2.7567696e-02
3.1934910e-02
3.5513003e-02
3.6925240e-02
3.6927229e-02
3.6273292e-02
3.4392072e-02
3.1555875e-02
2.7729320e-02
2.2117057e-02
1.5261374e-02
8.5857846e-03
2.9414953e-03
-1.7678905e-03
-5.5687188e-03
-8.0409548e-03
-9.6652715e-03
-1.1360791e-02
-1.4356694e-02
-1.9433344e-02
-2.5142326e-02
-3.0173323e-02
-3.4218323e-02
-3.7124252e-02
-3.9028759e-02
-4.0407833e-02
-4.1821059e-02
-4.2481101e-02
-4.1306497e-02
-3.8607926e-02
-3.5595055e-02
-3.2666683e-02
-2.9728320e-02
-2.7185693e-02
-2.4782653e-02
-2.2088608e-02
-1.9214090e-02
-1.6246669e-02
-1.3435616e-02
-1.0855617e-02
-8.6651454e-03
-6.5704542e-03
-2.8754113e-03
3.6652288e-03
1.4293343e-02
2.7419135e-02
3.7403160e-02
4.2211314e-02
4.3721749e-02
4.3910867e-02
4.2867305e-02
3.9268500e-02
3.4071191e-02
2.9007997e-02
2.4808933e-02
2.1729001e-02
1.9208480e-02
1.6429425e-02
1.3030791e-02
9.1840710e-03
4.7827702e-03
-4.2723120e-04
-5.3584888e-03
-8.9461604e-03
-1.0884123e-02
-1.0440821e-02
-7.7804789e-03
-4.3284413e-03
-1.0071217e-03
3.2466202e-03
9.0228521e-03
1.4610696e-02
1.9507030e-02
2.4040782e-02
2.8321227e-02
3.3438936e-02
3.9341472e-02
4.3632160e-02
4.4763657e-02
4.4323240e-02
4.3338165e-02
4.1425000e-02
3.8206782e-02
3.2951061e-02
2.7169704e-02
2.1894437e-02
1.6012372e-02
9.7701620e-03
3.7578956e-03
-1.4387500e-03
-6.1769557e-03
-1.1415341e-02
-1.6812969e-02
-2.2520433e-02
-2.8259136e-02
-3.2563605e-02
-3.4618233e-02
-3.5027086e-02
-3.4203202e-02
-3.1322075e-02
-2.7254052e-02
-2.3359726e-02
-1.9557429e-02
-1.5987658e-02
-1.2159797e-02
-7.5104575e-03
-2.2577552e-03
3.9237149e-03
1.1490341e-02
1.9918588e-02
2.7720324e-02
3.4482124e-02
4.1050843e-02
4.6951079e-02
5.1344017e-02
5.3980547e-02
5.4679866e-02
5.3256636e-02
4.9467144e-02
4.2603376e-02
3.1706111e-02
1.8913953e-02
6.8656056e-03
-5.0192101e-03
-1.6588443e-02
-2.6319743e-02
-3.3053293e-02
-3.6900690e-02
-3.9246827e-02
-4.0186284e-02
-3.9175358e-02
-3.6541530e-02
-3.3625383e-02
-3.1184700e-02
-2.8824620e-02
-2.6872621e-02
-2.5323329e-02
-2.3908097e-02
-2.2968341e-02
-2.2235681e-02
-2.0948097e-02
-1.8949395e-02
-1.7453482e-02
-1.7174190e-02
-1.7209333e-02
-1.6882015e-02
-1.5256407e-02
-1.2649039e-02
-1.0627924e-02
-8.6399990e-03
-5.8924190e-03
-2.9675952e-03
1.4478514e-04
4.3853636e-03
9.7413465e-03
1.5300934e-02
2.0973415e-02
2.6171873e-02
3.0521298e-02
3.4230810e-02
3.5465463e-02
3.3183411e-02
2.8313983e-02
2.1592830e-02
1.3876598e-02
5.7597542e-03
-1.9948028e-03
-8.9063451e-03
-1.5246664e-02
-2.0838463e-02
-2.4836358e-02
-2.6891479e-02
-2.9061688e-02
-3.1854490e-02
-3.3608698e-02
-3.4587719e-02
-3.5095551e-02
-3.4856854e-02
-3.4018396e-02
-3.3187170e-02
-3.2790405e-02
-3.1916499e-02
-3.0444405e-02
-2.8507859e-02
-2.5078982e-02
-2.1052681e-02
-1.7573507e-02
-1.4469144e-02
-1.2317793e-02
-1.0603727e-02
-7.6655670e-03
-2.8944220e-03
3.6205103e-03
1.1775954e-02
2.0909804e-02
2.9446095e-02
3.6641588e-02
4.1692436e-02
4.3769110e-02
4.3954933e-02
4.3391763e-02
4.2218915e-02
3.9398663e-02
3.4926022e-02
3.0085371e-02
2.4988109e-02
1.9679029e-02
1.4655117e-02
1.0344294e-02
6.1955444e-03
1.6214907e-03
-2.5275748e-03
-5.8317395e-03
-7.9376625e-03
-8.2069371e-03
-7.5687606e-03
-6.6470523e-03
-5.4086497e-03
-4.4922166e-03
-3.6835227e-03
-2.2418430e-03
-2.5511630e-04
7.7179893e-04
-1.6303783e-04
-2.0752185e-03
-3.7133888e-03
-4.0505780e-03
-3.6196284e-03
-3.6814251e-03
-3.7758293e-03
-3.2663994e-03
-2.1925143e-03
-1.0212980e-03
-6.1462084e-04
-8.6939630e-04
-1.3027732e-03
-2.9973558e-03
-6.5437108e-03
-1.0412754e-02
-1.4157766e-02
-1.8531199e-02
-2.4248318e-02
-3.1868850e-02
-3.9761755e-02
-4.6870257e-02
-5.3164130e-02
-5.7558589e-02
-6.0457665e-02
-6.2313073e-02
-6.3824209e-02
-6.5894741e-02
-6.7787986e-02
-7.0154202e-02
-7.3093974e-02
-7.5800821e-02
-7.8686198e-02
-8.1405935e-02
-8.4606426e-02
-8.9122780e-02
-9.3795866e-02
-9.8077595e-02
-1.0214619e-01
-1.0575392e-01
-1.0838745e-01
-1.0958261e-01
-1.0852337e-01
-1.0387439e-01
-9.5691114e-02
-8.4476297e-02
-7.0223534e-02
-5.2763746e-02
-3.1705276e-02
-8.1930838e-03
1.6198606e-02
3.9563708e-02
5.9983597e-02
7.7687123e-02
9.2690414e-02
1.0511971e-01
1.1566611e-01
1.2386762e-01
1.2909422e-01
1.3088681e-01
1.3000512e-01
1.2741847e-01
1.2308784e-01
1.1714761e-01
1.0928188e-01
9.9744388e-02
8.9574633e-02
7.9662223e-02
7.0143757e-02
6.0393738e-02
5.1543733e-02
4.4277180e-02
3.8088112e-02
3.3214369e-02
2.8854610e-02
2.4866858e-02
2.1797316e-02
1.9167766e-02
1.6967899e-02
1.5826712e-02
1.6317864e-02
1.7828051e-02
1.9249606e-02
2.0229907e-02
2.0750207e-02
2.1171240e-02
2.1443852e-02
2.0956578e-02
1.9323557e-02
1.6535022e-02
1.3190687e-02
9.5964205e-03
6.2879821e-03
3.8921274e-03
1.5677170e-03
-9.3849073e-04
-3.7876497e-03
-7.3198369e-03
-1.0596466e-02
-1.3411043e-02
-1.5570675e-02
-1.6866848e-02
-1.7762568e-02
-1.8172226e-02
-1.8556989e-02
-1.9231803e-02
-2.0120125e-02
-2.1102443e-02
-2.1851086e-02
-2.3114656e-02
-2.4713911e-02
-2.5478812e-02
-2.4538755e-02
-2.2497270e-02
-2.1113777e-02
-1.9647573e-02
-1.7746465e-02
-1.5415986e-02
-1.1943739e-02
-7.7608117e-03
-2.5605857e-03
3.7611857e-03
1.1297680e-02
1.9663798e-02
2.7137203e-02
3.3078399e-02
3.6988708e-02
3.8661481e-02
3.9045228e-02
3.8771902e-02
3.7977312e-02
3.5828454e-02
3.2522757e-02
2.8058616e-02
2.1211696e-02
1.3225031e-02
5.4219199e-03
-1.4725170e-03
-6.1541601e-03
-8.9187008e-03
-1.0667044e-02
-1.1763539e-02
-1.2394120e-02
-1.2701845e-02
-1.2348616e-02
-1.1511417e-02
-1.2073721e-02
-1.3849338e-02
-1.5118574e-02
-1.5535740e-02
-1.5447946e-02
-1.6049915e-02
-1.6780696e-02
-1.6516067e-02
-1.6065223e-02
-1.5795862e-02
-1.5781988e-02
-1.5706351e-02
-1.5408223e-02
-1.4536261e-02
-1.2369381e-02
-9.8584588e-03
-7.1085332e-03
-3.6325943e-03
5.8166061e-05
3.2761639e-03
5.5018534e-03
7.9979025e-03
1.1587299e-02
1.5734957e-02
1.9890718e-02
2.3227351e-02
2.6083905e-02
2.8190625e-02
2.8955748e-02
2.9225969e-02
2.8320304e-02
2.4963747e-02
1.9380115e-02
1.3178909e-02
8.0437710e-03
3.5378843e-03
-3.5959541e-04
-2.9547150e-03
-4.4450667e-03
-4.6564751e-03
-4.3098921e-03
-4.7641938e-03
-6.5349091e-03
-8.8248103e-03
-1.1013914e-02
-1.3526428e-02
-1.5527818e-02
-1.6752435e-02
-1.7276993e-02
-1.7216147e-02
-1.8286024e-02
-2.0753408e-02
-2.3670002e-02
-2.5495975e-02
-2.5097265e-02
-2.3401868e-02
-2.0642936e-02
-1.6917485e-02
-1.2426009e-02
-7.7418775e-03
-4.3434976e-03
-1.4365353e-03
1.6040293e-03
4.1197867e-03
6.0131357e-03
7.3773090e-03
9.5401249e-03
1.2514343e-02
1.4772031e-02
1.6211182e-02
1.7144714e-02
1.8306945e-02
1.9677756e-02
2.0783391e-02
2.1121988e-02
1.9505200e-02
1.6702158e-02
1.3724082e-02
1.0883930e-02
8.2791605e-03
4.8969142e-03
1.0635834e-03
-2.2746078e-03
-4.4473019e-03
-5.2926340e-03
-6.1500895e-03
-7.1418078e-03
-8.1635389e-03
-9.5813586e-03
-1.1147149e-02
-1.2642074e-02
-1.3738225e-02
-1.4704117e-02
-1.5313564e-02
-1.5145912e-02
-1.4871807e-02
-1.4824948e-02
-1.4340176e-02
-1.2260776e-02
-8.8140979e-03
-5.6275191e-03
-3.1973961e-03
-8.3177226e-04
2.5744973e-03
6.1388492e-03
8.4697801e-03
1.0783882e-02
1.3738467e-02
1.7107750e-02
2.0573434e-02
2.3476094e-02
2.5126387e-02
2.4734755e-02
2.3050783e-02
2.0973746e-02
1.8343171e-02
1.4933166e-02
1.0197042e-02
5.4300879e-03
1.9591295e-03
-7.6782692e-04
-2.7258832e-03
-4.7912884e-03
-7.2750079e-03
-9.1537672e-03
-1.0392371e-02
-1.0932621e-02
-1.1143462e-02
-1.1356560e-02
-1.1451227e-02
-1.1461189e-02
-1.1717161e-02
-1.2497905e-02
-1.2720684e-02
-1.2200287e-02
-1.1396647e-02
-1.0620225e-02
-1.0446516e-02
-9.7894238e-03
-8.4246011e-03
-6.5032224e-03
-3.7620497e-03
-1.2473407e-03
9.5909964e-04
2.7508173e-03
4.7513509e-03
8.3306425e-03
1.2443036e-02
1.6285256e-02
1.9817043e-02
2.3031988e-02
2.5884887e-02
2.7017969e-02
2.5839317e-02
2.2875983e-02
1.9379172e-02
1.6360852e-02
1.3431959e-02
1.0599812e-02
7.6843721e-03
4.4574557e-03
1.3693350e-03
-1.2503093e-03
-2.8745392e-03
-4.3882093e-03
-6.5193283e-03
-8.7823336e-03
-1.1128320e-02
-1.2528896e-02
-1.2567770e-02
-1.2035458e-02
-1.2141588e-02
-1.3319899e-02
-1.4852976e-02
-1.7051525e-02
-1.8831094e-02
-1.8813850e-02
-1.7577724e-02
-1.5708773e-02
-1.4192089e-02
-1.3241880e-02
-1.2969090e-02
-1.3640317e-02
-1.3375315e-02
-1.1661805e-02
-9.4464529e-03
-6.3386219e-03
-2.3278019e-03
1.7411282e-03
4.6887005e-03
6.2894976e-03
7.3967286e-03
8.5911080e-03
9.8738173e-03
1.1364386e-02
1.4067928e-02
1.7101148e-02
1.8948652e-02
2.0834911e-02
2.2846983e-02
2.4007228e-02
2.3937122e-02
2.1822590e-02
1.8565490e-02
1.5520236e-02
1.3474724e-02
1.2898811e-02
1.2835260e-02
1.1957848e-02
9.5158956e-03
6.7381188e-03
5.0852952e-03
4.1300532e-03
3.4872303e-03
2.6458338e-03
1.1961063e-03
-4.1657105e-04
-2.3580061e-03
-5.3764287e-03
-9.6908385e-03
-1.4668738e-02
-1.9787156e-02
-2.5113967e-02
-3.1157608e-02
-3.7462951e-02
-4.1876001e-02
-4.3986320e-02
-4.4267437e-02
-4.2121069e-02
-3.7735710e-02
-3.1261781e-02
-2.3605876e-02
-1.5802812e-02
-6.6591077e-03
3.6012120e-03
1.2831930e-02
2.0473564e-02
2.7757679e-02
3.5521307e-02
4.2913364e-02
4.9848962e-02
5.6638543e-02
6.2671797e-02
6.7557768e-02
7.0626974e-02
7.2286151e-02
7.3118718e-02
7.2950901e-02
7.2836349e-02
7.2924596e-02
7.2492479e-02
7.1749124e-02
7.1222235e-02
7.0667231e-02
6.8980020e-02
6.5748893e-02
6.0967391e-02
5.4915792e-02
4.7540619e-02
3.7857198e-02
2.6070661e-02
1.3279558e-02
1.3043721e-03
-8.2482385e-03
-1.6062980e-02
-2.2573117e-02
-2.8217958e-02
-3.3956451e-02
-3.9103388e-02
-4.2365568e-02
-4.4172481e-02
-4.6211220e-02
-4.7867558e-02
-4.8143042e-02
-4.7627314e-02
-4.6539212e-02
-4.5320304e-02
-4.3461935e-02
-4.0454984e-02
-3.6851441e-02
-3.2728560e-02
-2.8781789e-02
-2.5306886e-02
-2.1614738e-02
-1.7513760e-02
-1.3505610e-02
-1.1394143e-02
-1.1700394e-02
-1.2990026e-02
-1.5045409e-02
-1.7959566e-02
-2.1362206e-02
-2.3939795e-02
-2.4916167e-02
-2.5187631e-02
-2.4924041e-02
-2.3967215e-02
-2.1580787e-02
-1.7642888e-02
-1.2812194e-02
-6.0923427e-03
1.2956696e-03
7.1592733e-03
1.2485515e-02
1.7791852e-02
2.3084430e-02
2.8384944e-02
3.3648741e-02
3.9139490e-02
4.3873312e-02
4.7510552e-02
5.0356971e-02
5.2600957e-02
5.4523516e-02
5.6568438e-02
5.9792480e-02
6.3225111e-02
6.5432765e-02
6.6734405e-02
6.6765160e-02
6.5276095e-02
6.2635176e-02
5.8483517e-02
5.1631883e-02
4.2390929e-02
3.1957434e-02
1.9469861e-02
5.2113365e-03
-9.6633740e-03
-2.5110647e-02
-3.9890941e-02
-5.2342488e-02
-6.1459611e-02
-6.8443410e-02
-7.5086367e-02
-8.0178914e-02
-8.2554415e-02
-8.2536728e-02
-8.1012687e-02
-7.8214456e-02
-7.3023641e-02
-6.6116279e-02
-5.8983011e-02
-5.1917320e-02
-4.5479388e-02
-3.9709288e-02
-3.4148345e-02
-2.9043650e-02
-2.4588280e-02
-2.0484924e-02
-1.7021595e-02
-1.4515034e-02
-1.1613412e-02
-7.0675254e-03
-1.2248455e-03
5.3739570e-03
1.1841638e-02
1.7214857e-02
2.1777447e-02
2.5950239e-02
2.9508028e-02
3.1411420e-02
3.1068612e-02
2.9274254e-02
2.7061749e-02
2.4434549e-02
2.0478596e-02
1.6027122e-02
1.2074855e-02
8.4294138e-03
4.4808178e-03
-1.0078108e-03
-6.6854456e-03
-1.0052346e-02
-1.2054288e-02
-1.5343332e-02
-2.0445646e-02
-2.5525050e-02
-2.9696522e-02
-3.2972974e-02
-3.5012897e-02
-3.6614279e-02
-3.8451461e-02
-3.9535496e-02
-3.9017775e-02
-3.8037858e-02
-3.7030480e-02
-3.4689326e-02
-3.1113846e-02
-2.6434814e-02
-2.0446800e-02
-1.4373404e-02
-9.0748304e-03
-4.6464920e-03
-1.6295837e-04
4.5579937e-03
9.2229092e-03
1.4990104e-02
2.0874006e-02
2.5308543e-02
2.7834330e-02
2.8191455e-02
2.6780917e-02
2.3394106e-02
1.8140176e-02
1.1662798e-02
4.4943320e-03
-2.8775434e-03
-1.0476471e-02
-1.6959632e-02
-2.0676812e-02
-2.2609866e-02
-2.3310351e-02
-2.2926038e-02
-2.2410702e-02
-2.1646742e-02
-2.1185363e-02
-2.1584479e-02
-2.2497270e-02
-2.3330981e-02
-2.4092664e-02
-2.5702000e-02
-2.7206979e-02
-2.7432904e-02
-2.5831534e-02
-2.1328485e-02
-1.4703449e-02
-8.2229735e-03
-3.3077758e-03
8.3516916e-04
5.5265410e-03
1.0620650e-02
1.5720288e-02
2.0186580e-02
2.3497323e-02
2.5799005e-02
2.7093038e-02
2.7195030e-02
2.6855939e-02
2.7290584e-02
2.8196905e-02
2.8513375e-02
2.8098081e-02
2.6782527e-02
2.4056032e-02
2.0101304e-02
1.5461636e-02
1.0539395e-02
5.2758968e-03
1.0259347e-03
-8.4221439e-04
-1.3474836e-03
-1.3910298e-03
-1.4699640e-03
-1.9410969e-03
-3.0530428e-03
-4.7320079e-03
-6.4412310e-03
-8.3666055e-03
-1.0530447e-02
-1.2547774e-02
-1.3968190e-02
-1.4588423e-02
-1.5279817e-02
-1.6218886e-02
-1.6708561e-02
-1.6304053e-02
-1.4974641e-02
-1.3113197e-02
-1.0344476e-02
-6.4019121e-03
-1.5069375e-03
3.9341395e-03
9.2255651e-03
1.4225665e-02
1.8756836e-02
2.2002753e-02
2.3756451e-02
2.4446321e-02
2.4219569e-02
2.3459289e-02
2.2820222e-02
2.1954838e-02
1.9115798e-02
1.3806191e-02
7.0381848e-03
1.1280115e-04
-5.9196692e-03
-1.2157248e-02
-1.9111917e-02
-2.5099882e-02
-2.9404755e-02
-3.2381980e-02
-3.4410814e-02
-3.5524511e-02
-3.5847356e-02
-3.6415296e-02
-3.7318333e-02
-3.6925388e-02
-3.3580003e-02
-2.6797074e-02
-1.8189860e-02
-1.0734240e-02
-6.0954788e-03
-3.9248360e-03
-2.8338680e-03
-1.1574586e-03
1.6346366e-03
5.5815205e-03
1.0957923e-02
1.6463957e-02
2.0767494e-02
2.4839788e-02
2.8870950e-02
3.1585767e-02
3.3352892e-02
3.5137006e-02
3.7532145e-02
4.0203689e-02
4.2057604e-02
4.3097449e-02
4.3979373e-02
4.5182016e-02
4.5353069e-02
4.2093819e-02
3.4427756e-02
2.3759535e-02
1.3262867e-02
4.2800166e-03
-3.8169962e-03
-1.0862946e-02
-1.5413839e-02
-1.7274594e-02
-1.8641840e-02
-2.0709846e-02
-2.3143643e-02
-2.4963640e-02
-2.5447644e-02
-2.5080307e-02
-2.4294298e-02
-2.3621184e-02
-2.3090542e-02
-2.2437123e-02
-2.2298842e-02
-2.2623941e-02
-2.3020097e-02
-2.2926374e-02
-2.1575713e-02
-1.9976196e-02
-1.8891528e-02
-1.7745580e-02
-1.6228304e-02
-1.4162759e-02
-1.1035865e-02
-6.6040940e-03
-2.0363661e-03
2.3035191e-03
7.2404982e-03
1.2876844e-02
1.8588002e-02
2.3664609e-02
2.8491825e-02
3.2753916e-02
3.5777018e-02
3.8560221e-02
4.1049956e-02
4.1640269e-02
4.0076316e-02
3.7501080e-02
3.4257237e-02
2.9275744e-02
2.2661908e-02
1.6101341e-02
9.8911335e-03
3.1230164e-03
-4.1188689e-03
-9.8751714e-03
-1.2812148e-02
-1.3956345e-02
-1.4336459e-02
-1.4200608e-02
-1.3887755e-02
-1.4159401e-02
-1.5355231e-02
-1.7455306e-02
-2.0996015e-02
-2.4900348e-02
-2.7127371e-02
-2.8148424e-02
-2.8693688e-02
-2.8565330e-02
-2.8346690e-02
-2.8187440e-02
-2.7437681e-02
-2.6024213e-02
-2.4544596e-02
-2.2908418e-02
-2.0597511e-02
-1.7254055e-02
-1.2915297e-02
-7.9357558e-03
-2.3096020e-03
3.5137852e-03
8.8660349e-03
1.3185957e-02
1.6400452e-02
1.9773281e-02
2.3883741e-02
2.7923893e-02
3.1583835e-02
3.4821295e-02
3.6905586e-02
3.6554642e-02
3.3729932e-02
2.9728370e-02
2.5276402e-02
2.0637115e-02
1.5370642e-02
9.6655306e-03
4.6930892e-03
1.2362496e-04
-3.7643765e-03
-6.2481291e-03
-8.2797226e-03
-1.0264314e-02
-1.2071050e-02
-1.3637523e-02
-1.5417965e-02
-1.7527611e-02
-1.8836499e-02
-1.9075615e-02
-1.8507173e-02
-1.7469606e-02
-1.6630025e-02
-1.6122587e-02
-1.5399183e-02
-1.3322393e-02
-9.6226181e-03
-5.2829592e-03
-1.1388134e-03
2.6805558e-03
6.6128025e-03
1.0463876e-02
1.4251098e-02
1.8173408e-02
2.1643493e-02
2.5014563e-02
2.8727844e-02
3.1971162e-02
3.3765546e-02
3.3313266e-02
3.0637111e-02
2.6408377e-02
2.0901962e-02
1.4508540e-02
7.8524130e-03
1.7498778e-03
-3.4940927e-03
-8.0180227e-03
-1.1811138e-02
-1.5483383e-02
-1.8875019e-02
-2.1256600e-02
-2.2850081e-02
-2.4186569e-02
-2.6101655e-02
-2.8757604e-02
-3.1663850e-02
-3.4504708e-02
-3.6569787e-02
-3.6912106e-02
-3.5224981e-02
-3.2572050e-02
-2.9305253e-02
-2.4825799e-02
-1.8830777e-02
-1.1118122e-02
-3.3920454e-03
2.7757285e-03
7.5122988e-03
1.0827895e-02
1.3462065e-02
1.6007477e-02
1.8828522e-02
2.2709013e-02
2.7238142e-02
3.2219651e-02
3.7076938e-02
4.0719683e-02
4.3867111e-02
4.6461839e-02
4.7658691e-02
4.7554095e-02
4.6085600e-02
4.2989431e-02
3.8149666e-02
3.2440416e-02
2.6603063e-02
2.0541831e-02
1.3978568e-02
5.6308134e-03
-3.7928501e-03
-1.2040468e-02
-1.8426064e-02
-2.2441289e-02
-2.4586422e-02
-2.6325952e-02
-2.7939558e-02
-2.8755596e-02
-2.9055213e-02
-2.9729712e-02
-3.0093887e-02
-2.9517641e-02
-2.8200612e-02
-2.6282551e-02
-2.4051117e-02
-2.1011976e-02
-1.6770601e-02
-1.1808971e-02
-6.7006725e-03
-1.5224335e-03
3.9181545e-03
9.2911223e-03
1.4288873e-02
1.8085265e-02
1.9933209e-02
2.1063838e-02
2.2126328e-02
2.2971558e-02
2.4262728e-02
2.5509901e-02
2.5331619e-02
2.2296700e-02
1.5990742e-02
7.9984375e-03
4.4349983e-04
-5.8676127e-03
-1.1239226e-02
-1.5167785e-02
-1.7597619e-02
-1.9425945e-02
-2.1010697e-02
-2.2858995e-02
-2.5533326e-02
-2.8538059e-02
-3.0925589e-02
-3.2348965e-02
-3.2727813e-02
-3.1900405e-02
-2.9722693e-02
-2.5609527e-02
-2.0290290e-02
-1.6535672e-02
-1.4228003e-02
-1.1428744e-02
-8.3671246e-03
-4.8395653e-03
-2.9913290e-04
4.5143055e-03
8.3914726e-03
1.1432353e-02
1.5051100e-02
1.9253704e-02
2.3965876e-02
2.9310901e-02
3.3579328e-02
3.6746551e-02
4.0232872e-02
4.3823873e-02
4.6589415e-02
4.7586292e-02
4.6585899e-02
4.2930942e-02
3.5353476e-02
2.4652849e-02
1.2908869e-02
1.0708456e-03
-1.0708757e-02
-2.0969966e-02
-2.8013380e-02
-3.2128680e-02
-3.4213360e-02
-3.4846913e-02
-3.4612135e-02
-3.4807518e-02
-3.6258274e-02
-3.8054637e-02
-3.9388661e-02
-3.9540135e-02
-3.8795765e-02
-3.8700465e-02
-3.8567908e-02
-3.7698508e-02
-3.6859342e-02
-3.5710706e-02
-3.3345807e-02
-2.9417360e-02
-2.3682002e-02
-1.5392838e-02
-4.6808160e-03
8.0138231e-03
2.1100378e-02
3.0922088e-02
3.6675922e-02
4.0223398e-02
4.2101581e-02
4.1891183e-02
3.9867327e-02
3.7833364e-02
3.6278400e-02
3.3591406e-02
2.9403281e-02
2.3497428e-02
1.5703513e-02
7.6614403e-03
8.5473596e-04
-4.3935372e-03
-8.3467703e-03
-1.1112696e-02
-1.2489093e-02
-1.2948103e-02
-1.3140031e-02
-1.3236595e-02
-1.2617425e-02
-1.0939267e-02
-9.3327391e-03
-8.0106140e-03
-6.4146504e-03
-4.3559046e-03
-1.8855947e-03
2.0673384e-04
2.0067345e-03
4.3329137e-03
7.7011009e-03
1.2269046e-02
1.7995977e-02
2.4364727e-02
2.9519706e-02
3.2957643e-02
3.5371030e-02
3.7197648e-02
3.9435454e-02
4.1549868e-02
4.3448345e-02
4.6128875e-02
4.8626893e-02
4.9179741e-02
4.7021977e-02
4.2668699e-02
3.5297751e-02
2.3203276e-02
8.2618859e-03
-5.7896999e-03
-1.6863569e-02
-2.5109057e-02
-3.1696959e-02
-3.6086999e-02
-3.7946811e-02
-3.8333986e-02
-3.8008073e-02
-3.7575160e-02
-3.7229745e-02
-3.7627390e-02
-3.8768931e-02
-3.9648515e-02
-4.0209357e-02
-4.0668242e-02
-4.0518786e-02
-3.8739653e-02
-3.5844175e-02
-3.3190673e-02
-3.0662172e-02
-2.7711137e-02
-2.3831199e-02
-1.8294328e-02
-1.0476498e-02
-9.7362143e-04
7.9389760e-03
1.4878178e-02
2.0127363e-02
2.4706371e-02
2.9253280e-02
3.3090724e-02
3.6444752e-02
3.9374678e-02
4.0905957e-02
4.1219309e-02
4.0698907e-02
3.9076540e-02
3.5626681e-02
2.9927827e-02
2.1927612e-02
1.2653607e-02
4.5222104e-03
-1.7369562e-03
-6.6545186e-03
-1.0209544e-02
-1.3176653e-02
-1.6076311e-02
-1.8307208e-02
-1.9524684e-02
-1.9478707e-02
-1.8646792e-02
-1.8155286e-02
-1.8510749e-02
-1.9281215e-02
-1.9482718e-02
-1.9199076e-02
-1.8649727e-02
-1.7649970e-02
-1.6244051e-02
-1.3934689e-02
-1.1038007e-02
-8.3330080e-03
-6.2218199e-03
-4.4502984e-03
-2.2046846e-03
5.4919230e-04
4.2275016e-03
8.9492095e-03
1.3480270e-02
1.7249719e-02
2.0600050e-02
2.3864205e-02
2.6573585e-02
2.7851951e-02
2.8713490e-02
3.0375392e-02
3.1937176e-02
3.2289816e-02
3.1996742e-02
3.1447734e-02
2.9256604e-02
2.5277009e-02
2.0248473e-02
1.4174733e-02
6.6877175e-03
-2.5429158e-03
-1.1972243e-02
-2.0085273e-02
-2.6005540e-02
-2.9237050e-02
-3.0834854e-02
-3.1139470e-02
-3.0336533e-02
-2.9320550e-02
-2.8064534e-02
-2.7541974e-02
-2.8824711e-02
-3.1130944e-02
-3.3386841e-02
-3.4655086e-02
-3.5256013e-02
-3.5148157e-02
-3.3929592e-02
-3.2458178e-02
-3.1096855e-02
-2.9937171e-02
-2.8912526e-02
-2.7983352e-02
-2.7101772e-02
-2.5887875e-02
-2.4164437e-02
-2.1899567e-02
-1.9528842e-02
-1.7381450e-02
-1.5639178e-02
-1.4593081e-02
-1.3805373e-02
-1.2645200e-02
-1.0390664e-02
-6.6107560e-03
-1.9292540e-03
4.5519163e-03
1.4405730e-02
2.7763278e-02
4.2320074e-02
5.2999676e-02
5.7179809e-02
5.5316047e-02
4.9082351e-02
4.1512061e-02
3.4049052e-02
2.6673035e-02
1.9098798e-02
1.0872230e-02
3.1894135e-03
-3.2069427e-03
-8.9684629e-03
-1.4684261e-02
-2.1074296e-02
-2.7822631e-02
-3.3862772e-02
-3.8341104e-02
-4.0614831e-02
-4.0444696e-02
-3.8826188e-02
-3.6642235e-02
-3.2670006e-02
-2.6617825e-02
-1.8859427e-02
-9.5400817e-03
-7.1368280e-04
7.0633277e-03
1.4215868e-02
2.0105843e-02
2.5063474e-02
2.9351175e-02
3.2846760e-02
3.5993972e-02
3.8858464e-02
4.1276250e-02
4.4015832e-02
4.7223019e-02
4.9648246e-02
5.0617246e-02
5.0851335e-02
5.0639665e-02
4.8709155e-02
4.4839944e-02
4.0894550e-02
3.7433187e-02
3.2789014e-02
2.6531696e-02
1.9828791e-02
1.3339468e-02
7.3014608e-03
1.9418683e-03
-2.1744120e-03
-4.8062487e-03
-6.4406867e-03
-7.4814324e-03
-8.3062390e-03
-8.8219696e-03
-8.5268088e-03
-7.2694861e-03
-5.0824675e-03
-2.5640847e-03
-2.0745481e-04
2.6719195e-03
6.3989976e-03
1.0520151e-02
1.5044996e-02
1.9346435e-02
2.2711160e-02
2.5640632e-02
2.7639315e-02
2.7380760e-02
2.4011423e-02
1.6037767e-02
1.1281466e-03
-1.8258346e-02
-3.4481735e-02
-4.4460157e-02
-4.9856643e-02
-5.1336345e-02
-4.9647443e-02
-4.6902327e-02
-4.3916329e-02
-4.0733858e-02
-3.7971876e-02
-3.6788879e-02
-3.8442147e-02
-4.2503858e-02
-4.8454432e-02
-5.5422596e-02
-6.1958839e-02
-6.7924135e-02
-7.3335092e-02
-7.7554719e-02
-7.9121856e-02
-7.6942398e-02
-7.1572989e-02
-6.3528553e-02
-5.2057056e-02
-3.4626600e-02
-1.2812325e-02
5.9992103e-03
1.8632866e-02
2.6205215e-02
3.0145125e-02
3.2321416e-02
3.3562373e-02
3.4285832e-02
3.4989431e-02
3.5703437e-02
3.5535467e-02
3.3640912e-02
3.1565720e-02
3.0379581e-02
2.8870662e-02
2.6946021e-02
2.5801417e-02
2.5586718e-02
2.5323885e-02
2.5231885e-02
2.6476707e-02
2.8436523e-02
2.9958011e-02
3.1109616e-02
3.1883539e-02
3.2743199e-02
3.3490698e-02
3.3366893e-02
3.2846227e-02
3.2194320e-02
3.1336424e-02
2.9672136e-02
2.6386588e-02
2.1369876e-02
1.5228373e-02
9.1089686e-03
3.7355877e-03
-1.3304672e-03
-6.2168605e-03
-9.1907434e-03
-1.0098256e-02
-1.0361015e-02
-1.0051911e-02
-9.1291987e-03
-7.6169611e-03
-6.1571097e-03
-5.7994358e-03
-6.5046758e-03
-7.6346363e-03
-7.8345855e-03
-6.4525920e-03
-4.0376997e-03
-7.3831576e-04
2.9579059e-03
7.1698072e-03
1.2044236e-02
1.6001978e-02
1.9462958e-02
2.4258021e-02
2.9993083e-02
3.6354332e-02
4.3884381e-02
5.1946350e-02
5.9382483e-02
6.6447739e-02
7.3253960e-02
7.9741299e-02
8.6101584e-02
9.0723410e-02
9.2241279e-02
9.0570038e-02
8.5333726e-02
7.5915458e-02
6.0363521e-02
3.6005076e-02
5.9247703e-03
-2.1846054e-02
-4.3941008e-02
-6.1469752e-02
-7.4746043e-02
-8.3964933e-02
-8.9668469e-02
-9.2255109e-02
-9.3666893e-02
-9.5798833e-02
-9.8474328e-02
-1.0146433e-01
-1.0471570e-01
-1.0878362e-01
-1.1452697e-01
-1.2084038e-01
-1.2616185e-01
-1.3002482e-01
-1.3192711e-01
-1.3049238e-01
-1.2433191e-01
-1.1295397e-01
-9.5621870e-02
-7.0442691e-02
-3.4812983e-02
6.6336156e-03
4.2114089e-02
6.7392414e-02
8.4125941e-02
9.3997687e-02
9.9605283e-02
1.0208713e-01
1.0195625e-01
9.9868543e-02
9.6795152e-02
9.3448987e-02
8.9732719e-02
8.5784071e-02
8.1722470e-02
7.7391483e-02
7.2597629e-02
6.7302678e-02
6.1927858e-02
5.6698847e-02
5.1499584e-02
4.6021403e-02
3.9759728e-02
3.2412312e-02
2.3030449e-02
1.0698977e-02
-3.3251797e-03
-1.6040719e-02
-2.5930661e-02
-3.3729144e-02
-3.9899615e-02
-4.5028301e-02
-4.9410427e-02
-5.2362702e-02
-5.4640050e-02
-5.7417400e-02
-5.9999683e-02
-6.1787241e-02
-6.3415528e-02
-6.5095335e-02
-6.7025675e-02
-6.9707520e-02
-7.2411978e-02
-7.4251166e-02
-7.5796909e-02
-7.6645715e-02
-7.4720855e-02
-6.8017557e-02
-5.5552728e-02
-3.6498199e-02
-8.4856363e-03
2.3958433e-02
5.0083127e-02
6.6377004e-02
7.5203807e-02
7.8753439e-02
7.8030484e-02
7.3869279e-02
6.6531644e-02
5.5733987e-02
4.3527929e-02
3.1633463e-02
1.9850109e-02
8.7316559e-03
-8.1321510e-04
-8.5851692e-03
-1.5017017e-02
-2.0110525e-02
-2.3931234e-02
-2.7411739e-02
-3.1010836e-02
-3.4352647e-02
-3.6322240e-02
-3.6239667e-02
-3.4641257e-02
-3.2179512e-02
-2.9286479e-02
-2.5824174e-02
-2.1485023e-02
-1.6898348e-02
-1.1969186e-02
-6.3019790e-03
-3.3000770e-04
5.6408189e-03
1.1512054e-02
1.7383198e-02
2.2455796e-02
2.5983118e-02
2.8945053e-02
3.2230347e-02
3.5250450e-02
3.6726254e-02
3.6466719e-02
3.5299807e-02
3.3027135e-02
2.9487856e-02
2.5091400e-02
2.0028019e-02
1.5341900e-02
1.2307810e-02
1.2243599e-02
1.4890159e-02
1.7512518e-02
1.8583851e-02
1.7976629e-02
1.5862525e-02
1.2974530e-02
1.0244773e-02
7.0586219e-03
2.0641545e-03
-3.1698795e-03
-7.2808720e-03
-1.0741341e-02
-1.3337410e-02
-1.5062827e-02
-1.5802320e-02
-1.5737275e-02
-1.5556101e-02
-1.5127037e-02
-1.4829144e-02
-1.4794675e-02
-1.4261846e-02
-1.2839502e-02
-1.1146572e-02
-1.1087315e-02
-1.3750716e-02
-1.8404369e-02
-2.2393758e-02
-2.3956504e-02
-2.4446118e-02
-2.4645221e-02
-2.4205635e-02
-2.2886991e-02
-2.0655206e-02
-1.8071554e-02
-1.5205318e-02
-1.1796234e-02
-7.7791703e-03
-3.7914732e-03
-1.0880455e-03
2.8997463e-04
9.2187711e-04
1.4760056e-03
2.2331795e-03
2.4498503e-03
2.9700265e-03
4.9824176e-03
7.6366692e-03
9.4079267e-03
8.2586796e-03
2.5608750e-03
-5.4662897e-03
-9.6408654e-03
-7.3576706e-03
-1.1365590e-03
7.3038714e-03
1.6308366e-02
2.4463642e-02
3.1067729e-02
3.4159752e-02
3.3484076e-02
2.9983034e-02
2.4077697e-02
1.5780038e-02
5.7090217e-03
-4.0676144e-03
-1.3787866e-02
-2.3726881e-02
-3.2590822e-02
-4.0154643e-02
-4.5773299e-02
-4.9231528e-02
-5.0569737e-02
-4.9677939e-02
-4.6931359e-02
-4.1678188e-02
-3.4246438e-02
-2.5053459e-02
-1.3670950e-02
-1.0848561e-03
1.2149736e-02
2.5136755e-02
3.6343353e-02
4.5568775e-02
5.3237934e-02
5.9894153e-02
6.5180188e-02
6.9198689e-02
7.2721312e-02
7.5704291e-02
7.8073361e-02
7.8720953e-02
7.6850932e-02
7.3750473e-02
7.0766733e-02
6.7186380e-02
6.0925829e-02
5.2051025e-02
4.1510519e-02
2.8435426e-02
1.1484224e-02
-7.6637261e-03
-2.3357508e-02
-3.3308262e-02
-3.9027453e-02
-4.1566265e-02
-4.2850108e-02
-4.3140901e-02
-4.1471941e-02
-3.9507952e-02
-3.8776911e-02
-3.8501093e-02
-3.7153091e-02
-3.4681545e-02
-3.2196548e-02
-2.9315216e-02
-2.5834596e-02
-2.1984157e-02
-1.7511055e-02
-1.2601769e-02
-6.8009386e-03
-1.1094121e-04
6.3358328e-03
1.2491288e-02
1.8257846e-02
2.2256715e-02
2.3970163e-02
2.5020443e-02
2.6669165e-02
2.7554682e-02
2.6573569e-02
2.3565740e-02
1.8830221e-02
1.3320432e-02
7.6861662e-03
3.1019303e-03
-5.2819765e-04
-3.6003200e-03
-5.1689903e-03
-5.5793073e-03
-5.5972510e-03
-5.4948193e-03
-5.7523759e-03
-6.7824954e-03
-8.4778627e-03
-1.0231146e-02
-1.1668079e-02
-1.2262756e-02
-1.2664186e-02
-1.4726945e-02
-1.9178600e-02
-2.5166453e-02
-2.9821414e-02
-3.1554252e-02
-3.1849206e-02
-3.2052605e-02
-3.2502928e-02
-3.2235573e-02
-3.0905978e-02
-2.9048431e-02
-2.6042028e-02
-2.2980863e-02
-2.1039325e-02
-1.9058381e-02
-1.5821339e-02
-1.1262679e-02
-7.0962439e-03
-3.5422140e-03
4.6457284e-04
4.7324413e-03
8.8614738e-03
1.2073461e-02
1.4896890e-02
1.8024439e-02
2.1529877e-02
2.6862352e-02
3.2987301e-02
3.6758495e-02
3.7756634e-02
3.6982006e-02
3.4486832e-02
3.0104646e-02
2.4893776e-02
1.9994087e-02
1.5107300e-02
9.4533609e-03
2.9373547e-03
-3.0468722e-03
-7.4334229e-03
-1.1043663e-02
-1.4704161e-02
-1.8295509e-02
-2.0774993e-02
-2.1594089e-02
-2.1640192e-02
-2.2023082e-02
-2.3295073e-02
-2.4599003e-02
-2.4950577e-02
-2.4091074e-02
-2.1852237e-02
-1.9444562e-02
-1.7197796e-02
-1.4155920e-02
-1.0680115e-02
-6.9509465e-03
-3.4702437e-03
-4.9041092e-04
1.9686568e-03
3.4831462e-03
4.9636701e-03
6.3092278e-03
7.3055524e-03
8.3856091e-03
9.1896898e-03
1.0235111e-02
1.1495292e-02
1.2583892e-02
1.3313909e-02
1.3152145e-02
1.2077162e-02
1.0388904e-02
9.3578920e-03
9.1185685e-03
8.5005839e-03
7.7295187e-03
6.9481870e-03
5.5409907e-03
3.1732924e-03
3.9096385e-04
-1.6887680e-03
-2.8423756e-03
-2.8867857e-03
-2.2132258e-03
-2.2867031e-03
-3.5690114e-03
-5.3123203e-03
-6.0971101e-03
-6.3864102e-03
-7.8566994e-03
-9.2420770e-03
-9.4486817e-03
-9.8570417e-03
-1.1021887e-02
-1.1864398e-02
-1.1865575e-02
-1.1946101e-02
-1.2341427e-02
-1.2466748e-02
-1.1461582e-02
-9.7104439e-03
-8.4968439e-03
-6.9391032e-03
-4.0563146e-03
2.5811931e-04
5.5141498e-03
1.0107337e-02
1.4328345e-02
1.9152874e-02
2.3723687e-02
2.7758386e-02
3.0953786e-02
3.2653081e-02
3.3120264e-02
3.2676371e-02
3.1705263e-02
2.9842300e-02
2.7088285e-02
2.3686556e-02
1.9370640e-02
1.4957556e-02
1.0832197e-02
7.5125278e-03
5.0072912e-03
2.5629057e-03
3.8172170e-05
-3.5225725e-03
-8.0602704e-03
-1.2491311e-02
-1.6140975e-02
-1.8814591e-02
-2.1114643e-02
-2.3301286e-02
-2.5349709e-02
-2.6773048e-02
-2.7335359e-02
-2.7464304e-02
-2.7004426e-02
-2.6564324e-02
-2.6573507e-02
-2.6493912e-02
-2.6471018e-02
-2.6208989e-02
-2.5392420e-02
-2.3630137e-02
-2.0249257e-02
-1.6152245e-02
-1.2659409e-02
-1.0003475e-02
-6.8841795e-03
-2.3744460e-03
2.0985892e-03
6.0303879e-03
9.6375686e-03
1.2883910e-02
1.6253422e-02
1.9538130e-02
2.3238483e-02
2.7513726e-02
3.1622324e-02
3.5363170e-02
3.8115810e-02
3.9625589e-02
4.0284512e-02
4.0289107e-02
3.9297183e-02
3.6246339e-02
3.1233243e-02
2.5167316e-02
1.8820534e-02
1.3033475e-02
7.4563646e-03
1.9121489e-03
-3.2215249e-03
-7.9225541e-03
-1.1840792e-02
-1.5174695e-02
-1.7574585e-02
-1.8483925e-02
-1.8499977e-02
-1.8066038e-02
-1.7855156e-02
-1.7737330e-02
-1.7912930e-02
-1.8939271e-02
-1.9749941e-02
-2.0109417e-02
-1.9749041e-02
-1.8388650e-02
-1.6609639e-02
-1.5103303e-02
-1.4469510e-02
-1.3648461e-02
-1.2245055e-02
-1.0254599e-02
-7.2876216e-03
-4.4816287e-03
-2.4300640e-03
-7.9934563e-04
1.3313152e-03
4.1077301e-03
5.8756360e-03
6.8336957e-03
8.0206036e-03
9.7048651e-03
1.2625833e-02
1.5945468e-02
1.8028094e-02
1.8691483e-02
1.9091832e-02
1.9746178e-02
2.0098787e-02
2.1044050e-02
2.2591873e-02
2.3048106e-02
2.1555649e-02
1.7123189e-02
1.0756456e-02
4.9413723e-03
5.7966302e-04
-2.4351028e-03
-5.1685643e-03
-8.1022026e-03
-1.0942395e-02
-1.2739740e-02
-1.3667926e-02
-1.5513424e-02
-1.7989996e-02
-2.0093972e-02
-2.1240063e-02
-2.1745038e-02
-2.3011785e-02
-2.4395157e-02
-2.4850583e-02
-2.4335497e-02
-2.2301220e-02
-1.9365759e-02
-1.6774549e-02
-1.4791908e-02
-1.2283213e-02
-8.5047468e-03
-5.0762524e-03
-2.3191250e-03
5.4484755e-04
3.5181068e-03
6.6624074e-03
9.2767824e-03
1.1401284e-02
1.3196702e-02
1.4209477e-02
1.4921696e-02
1.6026315e-02
1.7948704e-02
2.0311200e-02
2.2685449e-02
2.4905350e-02
2.6646013e-02
2.7725556e-02
2.7935951e-02
2.6707810e-02
2.3648717e-02
1.9409216e-02
1.4678468e-02
9.9329031e-03
5.9781303e-03
3.0618655e-03
9.4949775e-04
-2.2998018e-05
-1.8897011e-04
-9.4041967e-05
-3.5121618e-04
-2.1209290e-03
-4.5515662e-03
-6.3830547e-03
-8.1143981e-03
-1.0452084e-02
-1.3658813e-02
-1.6781956e-02
-1.8666867e-02
-1.9277693e-02
-1.9594838e-02
-2.0377448e-02
-2.0338468e-02
-1.8677096e-02
-1.5649052e-02
-1.1544116e-02
-7.4877809e-03
-3.2242984e-03
1.8143456e-03
7.3517851e-03
1.3516557e-02
1.9164532e-02
2.3863690e-02
2.8413902e-02
3.3021116e-02
3.7574687e-02
4.1300739e-02
4.3915973e-02
4.4579393e-02
4.1975372e-02
3.6473639e-02
2.8934100e-02
2.0389595e-02
1.1593717e-02
2.7277206e-03
-5.9774877e-03
-1.3318219e-02
-1.7536022e-02
-1.9880509e-02
-2.1664842e-02
-2.1978947e-02
-2.1406575e-02
-2.0877498e-02
-2.0278226e-02
-1.9826445e-02
-1.9848087e-02
-2.0013977e-02
-1.9836080e-02
-1.9379513e-02
-1.8730643e-02
-1.8176814e-02
-1.7736579e-02
-1.6635442e-02
-1.5438579e-02
-1.4988095e-02
-1.4859565e-02
-1.4480433e-02
-1.3882807e-02
-1.3646312e-02
-1.2835934e-02
-1.0739294e-02
-8.6740157e-03
-7.1473954e-03
-6.2547748e-03
-4.9355569e-03
-1.5904528e-03
3.2832377e-03
8.8226506e-03
1.3605435e-02
1.7458668e-02
2.1452710e-02
2.4481402e-02
2.6196494e-02
2.6738152e-02
2.5443818e-02
2.2809765e-02
1.8768000e-02
1.3612598e-02
7.8362133e-03
1.9708732e-03
-2.3781911e-03
-4.3021831e-03
-4.5119246e-03
-5.2437280e-03
-6.6633992e-03
-7.6865954e-03
-8.3605044e-03
-8.9443255e-03
-1.0396034e-02
-1.2785779e-02
-1.5199664e-02
-1.7476620e-02
-1.9868497e-02
-2.2678092e-02
-2.5622065e-02
-2.8280291e-02
-3.0432828e-02
-3.0951497e-02
-2.9714299e-02
-2.7465864e-02
-2.4442926e-02
-2.1217173e-02
-1.7964801e-02
-1.3839328e-02
-7.8544642e-03
-1.3418586e-03
3.7773929e-03
8.3937654e-03
1.3256593e-02
1.8699331e-02
2.5062612e-02
3.0244881e-02
3.3229857e-02
3.5317287e-02
3.7222621e-02
3.9514441e-02
4.2169145e-02
4.3527095e-02
4.2124811e-02
3.8619215e-02
3.4411018e-02
3.0310530e-02
2.6229894e-02
2.1172381e-02
1.5765294e-02
1.1186818e-02
7.5385060e-03
5.2115774e-03
3.4042786e-03
1.5467106e-03
7.2089971e-04
1.2818779e-03
2.8693554e-03
4.5118877e-03
5.8035079e-03
7.2458209e-03
8.2953471e-03
8.3594974e-03
7.7363673e-03
7.7051560e-03
9.2255945e-03
1.1822085e-02
1.5343502e-02
1.9368933e-02
2.4073070e-02
2.9651408e-02
3.4582468e-02
3.8800084e-02
4.3042902e-02
4.7781994e-02
5.2588647e-02
5.6379656e-02
5.8836672e-02
5.9423941e-02
5.9135214e-02
5.8919090e-02
5.7819664e-02
5.5756563e-02
5.2488559e-02
4.7535870e-02
4.1326993e-02
3.3954268e-02
2.5466337e-02
1.5725712e-02
5.3470010e-03
-5.0959984e-03
-1.5428689e-02
-2.4581884e-02
-3.2701694e-02
-4.0505341e-02
-4.8139991e-02
-5.5801548e-02
-6.2879369e-02
-6.8426495e-02
-7.1855153e-02
-7.3318859e-02
-7.4511081e-02
-7.6807070e-02
-7.9848008e-02
-8.2403933e-02
-8.3564133e-02
-8.2926574e-02
-8.1036479e-02
-7.9011358e-02
-7.5901255e-02
-7.1010565e-02
-6.4947519e-02
-5.8158082e-02
-5.1568462e-02
-4.5416832e-02
-4.0071415e-02
-3.5741317e-02
-3.1617930e-02
-2.7373726e-02
-2.2528548e-02
-1.6851936e-02
-1.0915122e-02
-4.9654656e-03
5.5821638e-04
6.1280374e-03
1.2155245e-02
1.7422979e-02
2.1349716e-02
2.4329727e-02
2.7217542e-02
3.0480697e-02
3.3364697e-02
3.4924078e-02
3.4857811e-02
3.3235316e-02
3.0387420e-02
2.7439183e-02
2.4603890e-02
2.1358681e-02
1.8879019e-02
1.6739103e-02
1.3699812e-02
1.0731925e-02
7.7044232e-03
3.8383993e-03
-5.5808875e-04
-3.9735672e-03
-5.1688854e-03
-5.4040971e-03
-5.3185026e-03
-4.5656974e-03
-3.2379089e-03
-1.7721382e-03
-1.1022320e-03
-6.6765104e-04
3.0139538e-04
1.4206962e-03
2.4348399e-03
3.5803093e-03
5.8283696e-03
9.4366645e-03
1.4286280e-02
2.0313016e-02
2.6015038e-02
3.0530250e-02
3.3496874e-02
3.4921163e-02
3.5785314e-02
3.5548872e-02
3.3349111e-02
2.9267591e-02
2.4093012e-02
1.8930032e-02
1.3232966e-02
7.0204630e-03
9.5195378e-04
-4.6317095e-03
-9.2761070e-03
-1.3930423e-02
-1.8590090e-02
-2.3501243e-02
-2.9333485e-02
-3.4697928e-02
-3.9223981e-02
-4.3035187e-02
-4.5279387e-02
-4.5927809e-02
-4.5537933e-02
-4.5341667e-02
-4.6056332e-02
-4.6312363e-02
-4.4477268e-02
-4.0690360e-02
-3.6615574e-02
-3.2303216e-02
-2.6953723e-02
-2.1131815e-02
-1.5269568e-02
-9.2595376e-03
-3.0273653e-03
2.6923646e-03
8.1393271e-03
1.4093694e-02
2.0110023e-02
2.5957093e-02
3.0552861e-02
3.3306913e-02
3.4654456e-02
3.3852811e-02
3.1570933e-02
2.8934676e-02
2.5639609e-02
2.1266046e-02
1.5443477e-02
9.8660277e-03
5.6173911e-03
1.6683180e-03
-2.0533906e-03
-5.3532844e-03
-7.7202533e-03
-9.7756752e-03
-1.2498825e-02
-1.4915983e-02
-1.7318656e-02
-2.0170631e-02
-2.2700685e-02
-2.4630580e-02
-2.5914407e-02
-2.6431176e-02
-2.5193658e-02
-2.1534598e-02
-1.6004942e-02
-1.0169405e-02
-5.7573000e-03
-2.8572503e-03
-1.5544664e-04
3.3645734e-03
6.8225238e-03
9.5592765e-03
1.2465590e-02
1.5356378e-02
1.8264154e-02
2.1874204e-02
2.5263043e-02
2.7673244e-02
2.9307257e-02
3.1639329e-02
3.5397146e-02
3.8159304e-02
3.8710672e-02
3.8344948e-02
3.7492484e-02
3.5392305e-02
3.2132006e-02
2.8443559e-02
2.3915208e-02
1.8445422e-02
1.2600913e-02
6.2791917e-03
5.5870008e-04
-3.2484671e-03
-5.3943977e-03
-6.8692356e-03
-8.1697028e-03
-8.7181401e-03
-8.6668764e-03
-7.9331188e-03
-6.1574737e-03
-5.0859391e-03
-5.3770388e-03
-5.5746932e-03
-4.8928502e-03
-3.4819445e-03
-2.6316250e-03
-3.0071434e-03
-3.8626954e-03
-4.4905365e-03
-4.6594223e-03
-5.5793908e-03
-8.1850296e-03
-1.1925430e-02
-1.5127494e-02
-1.6065661e-02
-1.5081603e-02
-1.2615206e-02
-8.5478040e-03
-2.9101241e-03
3.2166373e-03
7.7813766e-03
1.0935603e-02
1.3036995e-02
1.3341254e-02
1.1793401e-02
8.5635895e-03
4.4830072e-03
2.1978032e-04
-5.0872038e-03
-1.1755969e-02
-1.8130655e-02
-2.2942093e-02
-2.6392974e-02
-2.8212056e-02
-2.8874082e-02
-2.9864275e-02
-3.0381593e-02
-2.9227935e-02
-2.6691500e-02
-2.3688872e-02
-2.1491285e-02
-2.0553967e-02
-2.0282345e-02
-1.9398005e-02
-1.7277158e-02
-1.4935600e-02
-1.2941161e-02
-1.1204806e-02
-9.1386118e-03
-6.3059562e-03
-3.9716809e-03
-1.8887073e-03
6.5901192e-04
3.4262411e-03
7.3141945e-03
1.1869879e-02
1.5925000e-02
1.9241559e-02
2.1809835e-02
2.3995065e-02
2.5723159e-02
2.7352315e-02
2.9415873e-02
3.2167482e-02
3.4901596e-02
3.5097579e-02
3.2115456e-02
2.7579461e-02
2.2804563e-02
1.8617993e-02
1.4775413e-02
1.1058832e-02
8.3017728e-03
7.2231065e-03
7.5278002e-03
7.2264639e-03
5.0463521e-03
2.0160128e-03
-1.2407816e-03
-4.5050368e-03
-7.1057733e-03
-8.7913968e-03
-9.8625549e-03
-1.0064016e-02
-9.4568072e-03
-9.4555794e-03
-1.0678246e-02
-1.3831563e-02
-1.8252771e-02
-2.1647247e-02
-2.3428528e-02
-2.2928934e-02
-2.0432663e-02
-1.7546054e-02
-1.4718246e-02
-1.1413035e-02
-7.4684064e-03
-3.9258105e-03
-8.8579969e-04
2.3908367e-03
5.4773680e-03
7.9779770e-03
9.9642642e-03
1.1742394e-02
1.3125080e-02
1.3227945e-02
1.2435784e-02
1.0333899e-02
6.1729028e-03
9.1328256e-04
-4.7276124e-03
-1.0414947e-02
-1.6524118e-02
-2.2493901e-02
-2.7040448e-02
-3.0109427e-02
-3.1104762e-02
-2.9886809e-02
-2.7233518e-02
-2.4022314e-02
-2.1159894e-02
-1.8374050e-02
-1.5710047e-02
-1.3930602e-02
-1.3011377e-02
-1.2655097e-02
-1.2420030e-02
-1.2394118e-02
-1.2919000e-02
-1.3565267e-02
-1.4025970e-02
-1.3642042e-02
-1.2097843e-02
-9.8804636e-03
-6.6379340e-03
-2.9991992e-03
-1.4978641e-04
2.1012969e-03
4.4712260e-03
7.2314707e-03
9.7401014e-03
1.2234114e-02
1.5502439e-02
1.9668619e-02
2.3705478e-02
2.5651125e-02
2.5799926e-02
2.5529130e-02
2.4958491e-02
2.3547499e-02
2.0434934e-02
1.5789137e-02
9.9630077e-03
3.3177557e-03
-3.3995156e-03
-1.0220461e-02
-1.6654560e-02
-2.1399032e-02
-2.3555797e-02
-2.3735699e-02
-2.2912371e-02
-2.0695353e-02
-1.7186863e-02
-1.3088628e-02
-8.7965971e-03
-5.7712664e-03
-5.2415779e-03
-6.4616574e-03
-7.9572480e-03
-8.8102111e-03
-9.4787369e-03
-1.0170173e-02
-1.0074952e-02
-8.8005112e-03
-6.4262156e-03
-2.8853499e-03
1.8158027e-03
6.4128313e-03
1.0331986e-02
1.4247505e-02
1.7735516e-02
1.9983869e-02
2.1040713e-02
2.2274659e-02
2.4334596e-02
2.5998928e-02
2.6403288e-02
2.4607357e-02
2.1845784e-02
2.0964462e-02
2.1236376e-02
2.1669099e-02
2.2736649e-02
2.4395515e-02
2.6544296e-02
2.8376359e-02
2.9484619e-02
2.9558506e-02
2.7360383e-02
2.2944174e-02
1.7341805e-02
1.1863204e-02
6.8107795e-03
2.1355017e-03
-8.9812983e-04
-2.9123382e-03
-4.8742066e-03
-6.7276945e-03
-9.1110601e-03
-1.2112856e-02
-1.5342397e-02
-1.8191860e-02
-1.9902121e-02
-1.9960411e-02
-1.8514986e-02
-1.6646584e-02
-1.4639673e-02
-1.2993304e-02
-1.2651790e-02
-1.2907426e-02
-1.3329946e-02
-1.4136447e-02
-1.5294631e-02
-1.6290872e-02
-1.6261352e-02
-1.5257419e-02
-1.2864356e-02
-9.0523925e-03
-4.6793720e-03
3.9134891e-04
5.1595257e-03
8.6456907e-03
1.2282422e-02
1.7264548e-02
2.2733399e-02
2.7002551e-02
2.9471852e-02
2.9991817e-02
2.9982946e-02
3.1100167e-02
3.2240394e-02
3.2670633e-02
3.2680977e-02
3.2535175e-02
3.1085291e-02
2.6310263e-02
1.9212019e-02
1.2038620e-02
5.1160931e-03
-8.7043844e-04
-4.8910175e-03
-7.8483387e-03
-1.0590102e-02
-1.2543942e-02
-1.3565177e-02
-1.4132291e-02
-1.4417834e-02
-1.5543596e-02
-1.7344877e-02
-1.8243707e-02
-1.8992325e-02
-1.9906316e-02
-2.0912561e-02
-2.2490930e-02
-2.3687086e-02
-2.3816071e-02
-2.2680089e-02
-2.1156264e-02
-2.0427461e-02
-1.9961390e-02
-1.9147210e-02
-1.8298762e-02
-1.7730684e-02
-1.6562653e-02
-1.3885522e-02
-1.0459668e-02
-7.4779391e-03
-5.5205811e-03
-4.0433773e-03
-2.0696223e-03
1.4573123e-04
2.3703615e-03
4.7881141e-03
7.4332723e-03
1.0153220e-02
1.2588883e-02
1.4745185e-02
1.6083785e-02
1.6606700e-02
1.6483075e-02
1.4133873e-02
9.3085462e-03
3.3238806e-03
-3.2905795e-03
-9.6959303e-03
-1.5310305e-02
-2.0308709e-02
-2.4571314e-02
-2.7498103e-02
-2.8880970e-02
-2.9448432e-02
-2.9625751e-02
-3.0247919e-02
-3.1600456e-02
-3.2960071e-02
-3.4171355e-02
-3.5010493e-02
-3.5669801e-02
-3.6448853e-02
-3.6931118e-02
-3.6998698e-02
-3.5891214e-02
-3.2995855e-02
-2.9488509e-02
-2.5389925e-02
-2.0297569e-02
-1.4813234e-02
-9.3322449e-03
-3.6162231e-03
2.2770549e-03
7.3563481e-03
1.2268032e-02
1.6972679e-02
2.0581435e-02
2.4220827e-02
2.7771777e-02
3.0924483e-02
3.4280306e-02
3.8091457e-02
4.2357929e-02
4.5349054e-02
4.6080858e-02
4.5238426e-02
4.4062017e-02
4.3207868e-02
4.1919414e-02
4.0866945e-02
4.1448032e-02
4.3414759e-02
4.4753278e-02
4.4421137e-02
4.3864389e-02
4.3918763e-02
4.4633581e-02
4.5780536e-02
4.6621329e-02
4.7610656e-02
4.8834001e-02
4.9346027e-02
4.8830003e-02
4.6998522e-02
4.4001736e-02
4.0706918e-02
3.8070885e-02
3.6342147e-02
3.5126653e-02
3.4575231e-02
3.4548184e-02
3.3848765e-02
3.1729786e-02
2.8076855e-02
2.2523996e-02
1.4153306e-02
3.3839175e-03
-7.1466245e-03
-1.6149243e-02
-2.2525497e-02
-2.5430663e-02
-2.6631150e-02
-2.8170994e-02
-3.0700573e-02
-3.3250076e-02
-3.5132448e-02
-3.6883572e-02
-3.9865200e-02
-4.5006595e-02
-5.1040509e-02
-5.6696417e-02
-6.1174782e-02
-6.3346541e-02
-6.3628108e-02
-6.1977391e-02
-5.8170605e-02
-5.4059286e-02
-5.0568907e-02
-4.7609488e-02
-4.5243129e-02
-4.3693482e-02
-4.3267244e-02
-4.3124935e-02
-4.2503130e-02
-4.1433929e-02
-4.0269523e-02
-3.8950491e-02
-3.6396451e-02
-3.2216822e-02
-2.6824526e-02
-2.1752777e-02
-1.8397042e-02
-1.5511960e-02
-1.2094313e-02
-7.4547606e-03
-1.2839690e-03
5.1922974e-03
1.1311473e-02
1.6271453e-02
2.0101915e-02
2.3932508e-02
2.8395481e-02
3.3737852e-02
3.8894771e-02
4.2874715e-02
4.6047621e-02
4.8888828e-02
5.1401832e-02
5.2350172e-02
5.0565957e-02
4.6996691e-02
4.2834643e-02
3.7972834e-02
3.2225256e-02
2.6541209e-02
2.1825903e-02
1.7538160e-02
1.2672485e-02
7.2091286e-03
3.1966904e-03
1.2562777e-03
-2.4423451e-04
-1.9870242e-03
-4.6018420e-03
-7.0894679e-03
-7.9538776e-03
-8.0261441e-03
-8.5421047e-03
-1.0100360e-02
-1.2389397e-02
-1.5317581e-02
-1.8628843e-02
-2.1004716e-02
-2.1973758e-02
-2.1813988e-02
-2.0975271e-02
-1.9255847e-02
-1.5801588e-02
-1.1346074e-02
-7.1542555e-03
-3.3128467e-03
6.0326651e-04
4.6546592e-03
8.7501293e-03
1.3362003e-02
1.7975827e-02
2.1544475e-02
2.4746995e-02
2.8415079e-02
3.2801729e-02
3.7403130e-02
4.0929435e-02
4.2768868e-02
4.2422484e-02
3.9849408e-02
3.5336040e-02
2.9211359e-02
2.3013389e-02
1.7333957e-02
1.1678540e-02
6.4954944e-03
1.8484672e-03
-2.4993096e-03
-6.3229520e-03
-8.9390212e-03
-1.0709585e-02
-1.3678476e-02
-1.7581430e-02
-2.0643693e-02
-2.2616436e-02
-2.4144464e-02
-2.5718410e-02
-2.7319534e-02
-2.9129676e-02
-3.0348263e-02
-3.0757990e-02
-3.1496734e-02
-3.1895577e-02
-3.1013850e-02
-2.8330314e-02
-2.3630514e-02
-1.8200635e-02
-1.2853754e-02
-8.0893975e-03
-4.5749529e-03
-1.8813443e-03
1.0247572e-03
4.2140757e-03
6.7096642e-03
8.6495246e-03
1.0334031e-02
1.1594786e-02
1.3028393e-02
1.4510419e-02
1.5909412e-02
1.7057885e-02
1.6372601e-02
1.2785762e-02
6.5690608e-03
-8.5067161e-04
-8.2853701e-03
-1.5169637e-02
-2.0419162e-02
-2.3333633e-02
-2.3043415e-02
-1.8893148e-02
-1.2366351e-02
-5.7680335e-03
-7.7528582e-04
1.3695970e-03
9.2897069e-04
-6.5266648e-04
-2.2488889e-03
-3.3574972e-03
-4.0917903e-03
-4.9422903e-03
-6.0774082e-03
-6.7698928e-03
-6.6320786e-03
-6.1154772e-03
-4.9895320e-03
-2.4928715e-03
8.5705766e-04
4.1983188e-03
7.7559472e-03
1.1198250e-02
1.4458153e-02
1.8256157e-02
2.1681972e-02
2.3983969e-02
2.4524584e-02
2.2855008e-02
2.1199798e-02
2.0451566e-02
2.0168055e-02
2.0570676e-02
2.0848773e-02
2.0771012e-02
1.9261347e-02
1.5237330e-02
9.7009021e-03
3.0013217e-03
-4.7428743e-03
-1.2504516e-02
-1.8472219e-02
-2.2653589e-02
-2.7111617e-02
-3.2333117e-02
-3.7232778e-02
-4.0666683e-02
-4.2391351e-02
-4.1988290e-02
-3.9426543e-02
-3.6342650e-02
-3.2526547e-02
-2.6634972e-02
-1.9804979e-02
-1.3709250e-02
-9.2429188e-03
-6.4238610e-03
-3.8716321e-03
-1.1204062e-03
1.3774553e-03
3.4017666e-03
4.7976570e-03
5.9240788e-03
6.6307986e-03
7.3244730e-03
9.0406334e-03
1.1403161e-02
1.3406015e-02
1.4514297e-02
1.5291310e-02
1.6801326e-02
1.9493392e-02
2.2517226e-02
2.4755391e-02
2.6071192e-02
2.6143126e-02
2.5407080e-02
2.4960609e-02
2.4412342e-02
2.2655523e-02
1.9598079e-02
1.6227558e-02
1.3235265e-02
1.0530059e-02
8.3164293e-03
6.7179211e-03
5.0882115e-03
3.6502725e-03
2.6496893e-03
1.8454177e-03
1.9070302e-03
2.9261306e-03
3.6625887e-03
3.7747601e-03
4.1133499e-03
4.7176021e-03
5.5091716e-03
6.5998923e-03
7.0511459e-03
6.0598298e-03
3.8319327e-03
6.9702383e-04
-4.1163162e-03
-1.0595306e-02
-1.5413835e-02
-1.7003868e-02
-1.6560974e-02
-1.4593615e-02
-1.2076879e-02
-9.6444167e-03
-6.9972824e-03
-3.5644039e-03
3.8904095e-04
3.1633620e-03
4.8164364e-03
6.8617265e-03
8.9679392e-03
1.0009476e-02
8.8784641e-03
5.4291556e-03
4.4779111e-04
-5.6797915e-03
-1.1770532e-02
-1.6324893e-02
-1.8510827e-02
-1.8967993e-02
-1.8709328e-02
-1.7698404e-02
-1.6099066e-02
-1.4515241e-02
-1.3765280e-02
-1.4288786e-02
-1.5099348e-02
-1.5406467e-02
-1.5170697e-02
-1.4129470e-02
-1.2378245e-02
-1.0027195e-02
-7.9450076e-03
-6.5992093e-03
-5.2262860e-03
-4.1910260e-03
-3.7810891e-03
-2.9691623e-03
-1.3502722e-03
6.5176762e-04
2.8482215e-03
5.0234558e-03
7.6903572e-03
1.1539315e-02
1.5443790e-02
1.8364829e-02
2.0034868e-02
2.1060677e-02
2.2295630e-02
2.3121901e-02
2.3950657e-02
2.5386973e-02
2.6798183e-02
2.7258874e-02
2.5155976e-02
2.0621117e-02
1.5095897e-02
8.1400741e-03
4.9043276e-04
-5.9544771e-03
-1.0955390e-02
-1.4651870e-02
-1.7565520e-02
-1.9719684e-02
-2.1319726e-02
-2.2804255e-02
-2.3833210e-02
-2.4873850e-02
-2.5862980e-02
-2.7095825e-02
-2.9327446e-02
-3.1444068e-02
-3.2575599e-02
-3.2705553e-02
-3.1905712e-02
-3.0308382e-02
-2.7051364e-02
-2.1832653e-02
-1.6469448e-02
-1.2370385e-02
-8.7172729e-03
-4.3548946e-03
2.5298388e-04
4.1698127e-03
7.0506768e-03
8.8840252e-03
9.6989758e-03
9.7720492e-03
1.0214042e-02
1.1454448e-02
1.3247153e-02
1.5927983e-02
1.9287769e-02
2.2347912e-02
2.4311800e-02
2.5215695e-02
2.5006486e-02
2.3092507e-02
2.0075185e-02
1.6449866e-02
1.2224581e-02
8.2946939e-03
5.2449229e-03
3.8186482e-03
4.4152537e-03
6.4921143e-03
8.7961498e-03
9.2253648e-03
7.2268567e-03
3.5614106e-03
-7.5577277e-04
-4.1904550e-03
-6.1654080e-03
-7.1972425e-03
-7.8416123e-03
-8.1147166e-03
-7.8762303e-03
-7.2508880e-03
-5.3706051e-03
-2.7030276e-03
-1.4794052e-03
-1.6503955e-03
-2.3261360e-03
-2.7535969e-03
-2.0309505e-03
-3.8919906e-04
1.9046210e-03
4.8358855e-03
7.8409706e-03
1.0741227e-02
1.4417219e-02
1.8901207e-02
2.2227542e-02
2.3099778e-02
2.1387406e-02
1.7267324e-02
1.2248065e-02
6.9588907e-03
8.6171367e-04
-5.2791941e-03
-9.9369287e-03
-1.3169767e-02
-1.6461937e-02
-1.9840618e-02
-2.2478478e-02
-2.3338260e-02
-2.1654112e-02
-1.8844700e-02
-1.7061200e-02
-1.7230889e-02
-1.8035825e-02
-1.8351645e-02
-1.8892232e-02
-2.0106961e-02
-2.1823208e-02
-2.2517827e-02
-2.0693149e-02
-1.7127662e-02
-1.2608212e-02
-7.9684443e-03
-4.1112338e-03
-3.7128108e-04
3.4964082e-03
7.4290227e-03
1.1078389e-02
1.4198017e-02
1.7676481e-02
2.2335875e-02
2.8604678e-02
3.4515694e-02
3.7670204e-02
3.8651689e-02
3.7603831e-02
3.4868669e-02
3.1962433e-02
2.8298494e-02
2.3610770e-02
1.8217123e-02
1.1555155e-02
4.0287633e-03
-3.4270850e-03
-1.0151629e-02
-1.6105876e-02
-2.1197694e-02
-2.5530683e-02
-2.9479716e-02
-3.2923870e-02
-3.5868847e-02
-3.8056493e-02
-3.9607598e-02
-4.1047584e-02
-4.2496661e-02
-4.3831064e-02
-4.4108226e-02
-4.2949688e-02
-4.0980502e-02
-3.8623232e-02
-3.5614614e-02
-3.1349727e-02
-2.6399648e-02
-2.1405871e-02
-1.6596823e-02
-1.2262098e-02
-7.6255522e-03
-2.5096586e-03
2.1677870e-03
6.8037099e-03
1.1783454e-02
1.6718991e-02
2.1271220e-02
2.5627088e-02
2.9917505e-02
3.3539355e-02
3.6755535e-02
3.9637441e-02
4.1570484e-02
4.1382936e-02
3.8187747e-02
3.4064722e-02
3.0465329e-02
2.6594942e-02
2.2065872e-02
1.6687062e-02
1.1522370e-02
7.0899711e-03
2.8852529e-03
-6.3445620e-04
-3.4340209e-03
-5.8765324e-03
-7.8679687e-03
-9.7796445e-03
-1.2770107e-02
-1.6732875e-02
-2.0680958e-02
-2.4778458e-02
-2.8599248e-02
-3.0972917e-02
-3.2494687e-02
-3.3688537e-02
-3.3687188e-02
-3.2275667e-02
-3.0130953e-02
-2.7992675e-02
-2.5684102e-02
-2.3056264e-02
-2.0651838e-02
-1.7635323e-02
-1.3266633e-02
-7.8164751e-03
-1.5037815e-03
4.6765707e-03
1.0076224e-02
1.4433263e-02
1.8292158e-02
2.2618576e-02
2.6710101e-02
2.9787388e-02
3.1693370e-02
3.3271284e-02
3.5215667e-02
3.6202564e-02
3.5462579e-02
3.3396890e-02
3.0313263e-02
2.6073795e-02
2.0542253e-02
1.4554680e-02
8.8905469e-03
4.5307375e-03
1.7008245e-03
-1.4967001e-03
-5.8927796e-03
-1.0119663e-02
-1.3068647e-02
-1.5478979e-02
-1.8235615e-02
-2.0483002e-02
-2.1379972e-02
-2.0393774e-02
-1.7313178e-02
-1.3388432e-02
-1.0071355e-02
-7.6297901e-03
-5.1958931e-03
-2.2770437e-03
7.7287733e-04
3.1985743e-03
4.5582335e-03
5.5831632e-03
6.7481672e-03
7.7000158e-03
9.3114216e-03
1.2236228e-02
1.5309743e-02
1.7798249e-02
1.9790867e-02
2.1542827e-02
2.3073791e-02
2.4583063e-02
2.6143970e-02
2.6891018e-02
2.6795958e-02
2.6227976e-02
2.4760022e-02
2.2102255e-02
1.8279841e-02
1.4379496e-02
1.1398600e-02
9.5374977e-03
8.7873766e-03
8.8781598e-03
9.5278430e-03
9.6277561e-03
8.2288620e-03
5.4122156e-03
1.7471080e-03
-2.5002718e-03
-7.2318544e-03
-1.1272544e-02
-1.3757009e-02
-1.5166442e-02
-1.5955760e-02
-1.6469966e-02
-1.6619062e-02
-1.5609006e-02
-1.3567213e-02
-1.0985808e-02
-7.4231818e-03
-3.1510577e-03
4.2572153e-04
3.1939900e-03
6.4154142e-03
1.0210986e-02
1.3808768e-02
1.6866943e-02
1.9380901e-02
2.1587361e-02
2.3560317e-02
2.5150288e-02
2.5920885e-02
2.5934778e-02
2.5766012e-02
2.4590619e-02
2.2245501e-02
1.9442129e-02
1.5975539e-02
1.3385942e-02
1.1961530e-02
9.7453508e-03
6.6471453e-03
2.6328735e-03
-2.3923994e-03
-8.2327116e-03
-1.4976466e-02
-2.2298906e-02
-2.9800426e-02
-3.6726723e-02
-4.2330418e-02
-4.5857189e-02
-4.7961296e-02
-4.9941228e-02
-5.0800413e-02
-4.9770183e-02
-4.6862976e-02
-4.2225347e-02
-3.7315213e-02
-3.2668621e-02
-2.8253574e-02
-2.4514219e-02
-2.0943016e-02
-1.7362718e-02
-1.4688116e-02
-1.2817469e-02
-9.7219178e-03
-4.3200029e-03
2.7812972e-03
1.0897003e-02
1.8844300e-02
2.6689499e-02
3.4952551e-02
4.2291714e-02
4.8337186e-02
5.3121691e-02
5.5970022e-02
5.7043467e-02
5.6789907e-02
5.6067591e-02
5.4583202e-02
5.0888418e-02
4.4837184e-02
3.7057306e-02
2.8780280e-02
2.0244499e-02
1.0452743e-02
-1.2675427e-04
-1.0262218e-02
-1.7948537e-02
-2.2253793e-02
-2.4683189e-02
-2.6655125e-02
-2.9332624e-02
-3.1846485e-02
-3.3009697e-02
-3.3789690e-02
-3.4718434e-02
-3.5412661e-02
-3.4924111e-02
-3.3555732e-02
-3.2271010e-02
-3.0782624e-02
-2.8937043e-02
-2.6926564e-02
-2.5426229e-02
-2.4067019e-02
-2.1364262e-02
-1.7896204e-02
-1.4258483e-02
-1.0214334e-02
-5.9151732e-03
-1.4218690e-03
3.2096175e-03
8.8700921e-03
1.5743927e-02
2.3001155e-02
2.9819558e-02
3.5487002e-02
3.9578821e-02
4.1071940e-02
3.9745868e-02
3.6829582e-02
3.3326526e-02
2.9769062e-02
2.6022347e-02
2.2021642e-02
1.8378769e-02
1.4430036e-02
9.8180647e-03
5.4647007e-03
1.7471612e-03
-1.4138047e-03
-4.0988062e-03
-6.1918447e-03
-8.1216154e-03
-9.4959552e-03
-1.0278912e-02
-1.2869093e-02
-1.7800364e-02
-2.2693033e-02
-2.5775877e-02
-2.6652509e-02
-2.5963332e-02
-2.4683816e-02
-2.3391497e-02
-2.2048999e-02
-2.0067896e-02
-1.7277937e-02
-1.3500288e-02
-9.2492840e-03
-5.5060141e-03
-2.0310989e-03
1.3008383e-03
5.3478940e-03
1.1124048e-02
1.8011817e-02
2.4572417e-02
2.9154940e-02
3.1910227e-02
3.3020769e-02
3.2012057e-02
2.9458290e-02
2.5185338e-02
1.9974429e-02
1.5023130e-02
9.8948585e-03
4.8277211e-03
3.2005705e-04
-3.5398309e-03
-7.2732985e-03
-1.1202791e-02
-1.4208980e-02
-1.5478508e-02
-1.4752128e-02
-1.3153411e-02
-1.2888789e-02
-1.4200594e-02
-1.6207930e-02
-1.8629984e-02
-2.2013861e-02
-2.6012959e-02
-2.9143593e-02
-3.0886485e-02
-3.0895222e-02
-2.9170394e-02
-2.6785015e-02
-2.3814812e-02
-1.9053747e-02
-1.2676803e-02
-6.2602732e-03
-2.7511274e-04
5.5067430e-03
1.0671761e-02
1.5758599e-02
2.0634113e-02
2.4132908e-02
2.6841816e-02
2.8966178e-02
3.0188431e-02
3.0837490e-02
3.0632058e-02
2.9096016e-02
2.5932386e-02
2.1719802e-02
1.6747600e-02
1.0266830e-02
2.6638083e-03
-5.1383669e-03
-1.1627818e-02
-1.5906951e-02
-1.8077910e-02
-1.8446123e-02
-1.8725305e-02
-1.9064484e-02
-1.8725871e-02
-1.8229227e-02
-1.7371145e-02
-1.6550573e-02
-1.6571589e-02
-1.6539379e-02
-1.6082695e-02
-1.5887959e-02
-1.5981810e-02
-1.5292291e-02
-1.3047328e-02
-1.0500270e-02
-8.7974061e-03
-8.3457095e-03
-8.9360715e-03
-9.2194784e-03
-8.7090109e-03
-6.9830124e-03
-4.2101999e-03
-1.1519549e-03
2.8278070e-03
7.8886571e-03
1.4042690e-02
2.0580610e-02
2.6570919e-02
3.1819640e-02
3.5558532e-02
3.7834093e-02
3.9263389e-02
4.0444702e-02
4.1357805e-02
4.1058444e-02
3.9353962e-02
3.6402203e-02
3.2394391e-02
2.7843951e-02
2.2306074e-02
1.5844271e-02
9.2993239e-03
2.9974985e-03
-2.3818980e-03
-6.2434315e-03
-8.8436101e-03
-1.1220422e-02
-1.3896935e-02
-1.6871768e-02
-2.0414196e-02
-2.3786201e-02
-2.6794101e-02
-3.0148917e-02
-3.3414088e-02
-3.6373593e-02
-3.8995296e-02
-4.0579853e-02
-4.0228876e-02
-3.7921448e-02
-3.4833502e-02
-3.2143062e-02
-3.0540095e-02
-2.9101207e-02
-2.7124224e-02
-2.5676419e-02
-2.4303937e-02
-2.1861132e-02
-1.8078944e-02
-1.3140832e-02
-8.9490045e-03
-6.4549631e-03
-4.6596559e-03
-1.8849389e-03
2.8959971e-03
8.5154378e-03
1.4050587e-02
1.9458430e-02
2.5660227e-02
3.2644715e-02
3.8212640e-02
4.1700803e-02
4.2658053e-02
4.0168163e-02
3.5246718e-02
2.9122743e-02
2.2915762e-02
1.7499633e-02
1.3019011e-02
9.6425645e-03
6.3922226e-03
2.5666558e-03
-1.2697384e-03
-4.4307593e-03
-6.8722869e-03
-9.4951544e-03
-1.2011591e-02
-1.3966723e-02
-1.5817361e-02
-1.7132748e-02
-1.7204599e-02
-1.6457353e-02
-1.5993078e-02
-1.5466230e-02
-1.4338699e-02
-1.2878296e-02
-1.0561790e-02
-7.8681501e-03
-5.3005293e-03
-2.1554776e-03
1.4642048e-03
5.4997198e-03
1.0130895e-02
1.5207461e-02
2.0568916e-02
2.5111197e-02
2.7989874e-02
2.9342893e-02
2.9522677e-02
3.0206742e-02
3.2342532e-02
3.5154719e-02
3.7380334e-02
3.7969038e-02
3.7023054e-02
3.3954759e-02
2.8180946e-02
2.0427240e-02
1.1302980e-02
1.7937225e-03
-7.1773132e-03
-1.5228639e-02
-2.2323681e-02
-2.8199181e-02
-3.2408156e-02
-3.5936043e-02
-3.8959314e-02
-4.1200764e-02
-4.3846768e-02
-4.7409416e-02
-5.0721165e-02
-5.2168542e-02
-5.1986145e-02
-5.0828564e-02
-4.8372173e-02
-4.5288569e-02
-4.2385749e-02
-3.9626870e-02
-3.6616144e-02
-3.2579109e-02
-2.7628108e-02
-2.1992255e-02
-1.4737235e-02
-5.1277378e-03
6.0435936e-03
1.6371220e-02
2.4727693e-02
3.1276021e-02
3.6184936e-02
4.0214031e-02
4.3237047e-02
4.5857670e-02
4.8934709e-02
5.1674048e-02
5.3518769e-02
5.3736811e-02
5.2314191e-02
4.9448423e-02
4.4692185e-02
3.8397735e-02
3.0339037e-02
2.1027101e-02
1.2140825e-02
5.0717570e-03
2.3795262e-04
-3.7144634e-03
-6.7803339e-03
-8.7793181e-03
-1.1138216e-02
-1.3875416e-02
-1.6682240e-02
-1.9274014e-02
-2.0943444e-02
-2.1944120e-02
-2.3604689e-02
-2.6301828e-02
-2.8428776e-02
-2.9281716e-02
-2.8824445e-02
-2.6761353e-02
-2.4227489e-02
-2.2099994e-02
-1.9770953e-02
-1.6975856e-02
-1.3829775e-02
-1.0176010e-02
-6.0503252e-03
-2.1650476e-03
1.1478780e-03
4.7819012e-03
8.8098159e-03
1.2921843e-02
1.8066020e-02
2.4578213e-02
3.0661618e-02
3.4564731e-02
3.6562031e-02
3.7230972e-02
3.6361755e-02
3.4061508e-02
3.1139714e-02
2.7835086e-02
2.3406091e-02
1.7689516e-02
1.1370078e-02
4.9144772e-03
-1.1102858e-03
-6.3027565e-03
-1.0134032e-02
-1.1746004e-02
-1.2125410e-02
-1.2674745e-02
-1.3274541e-02
-1.4068467e-02
-1.5401983e-02
-1.6335222e-02
-1.6384437e-02
-1.6604268e-02
-1.7280884e-02
-1.7747953e-02
-1.8368196e-02
-1.9632675e-02
-2.0287620e-02
-1.9356077e-02
-1.7284746e-02
-1.4145444e-02
-9.7915688e-03
-4.8562446e-03
1.1398867e-03
9.4199547e-03
1.8849492e-02
2.8315233e-02
3.7703905e-02
4.6754224e-02
5.5558918e-02
6.3348982e-02
6.9311792e-02
7.4193451e-02
7.9469776e-02
8.4146770e-02
8.5004512e-02
8.0630614e-02
7.0381078e-02
5.2387592e-02
2.8972835e-02
6.3876590e-03
-1.2248711e-02
-2.6603108e-02
-3.6758664e-02
-4.3121625e-02
-4.7380182e-02
-5.0549781e-02
-5.2301861e-02
-5.2145675e-02
-4.9680316e-02
-4.6665997e-02
-4.4596566e-02
-4.3773962e-02
-4.4681396e-02
-4.6653860e-02
-4.9730956e-02
-5.4690014e-02
-6.1639479e-02
-7.0690040e-02
-7.9733017e-02
-8.5571983e-02
-8.6588794e-02
-8.1271353e-02
-6.8069101e-02
-5.0414276e-02
-3.4974896e-02
-2.2609172e-02
-1.1939119e-02
-3.3329736e-03
3.3444363e-03
8.5667374e-03
1.3569964e-02
1.8725326e-02
2.2867916e-02
2.5763175e-02
2.8615633e-02
3.1913005e-02
3.4588533e-02
3.6647716e-02
3.9318928e-02
4.1856009e-02
4.2993395e-02
4.2335223e-02
3.9513439e-02
3.5425238e-02
3.0883599e-02
2.5958043e-02
2.1047275e-02
1.5594762e-02
9.6002080e-03
4.6929188e-03
1.8724851e-03
7.5008153e-04
2.0430947e-04
-6.8420719e-04
-2.3544032e-03
-4.1717922e-03
-4.6472977e-03
-3.2086809e-03
-5.5467698e-04
2.5754845e-03
6.4035533e-03
1.1003745e-02
1.5447897e-02
1.8764671e-02
2.0691844e-02
2.2367766e-02
2.4698525e-02
2.7564983e-02
3.1052782e-02
3.4448657e-02
3.6675892e-02
3.6309519e-02
3.1631949e-02
2.4586554e-02
1.8755206e-02
1.3988645e-02
8.9431545e-03
3.3260683e-03
-3.1618664e-03
-1.0336762e-02
-1.6701322e-02
-2.1844711e-02
-2.6687528e-02
-3.0443166e-02
-3.2838944e-02
-3.4297877e-02
-3.4310897e-02
-3.3155352e-02
-3.1493295e-02
-2.9769186e-02
-2.8205230e-02
-2.7194679e-02
-2.7155140e-02
-2.7538454e-02
-2.8410320e-02
-2.9381610e-02
-2.8931250e-02
-2.6943135e-02
-2.4174711e-02
-2.0897103e-02
-1.7196610e-02
-1.3704259e-02
-1.0257620e-02
-6.0051838e-03
-1.7188580e-03
1.7210333e-03
4.6491014e-03
8.0149383e-03
1.2670583e-02
1.7114750e-02
2.0103950e-02
2.2904456e-02
2.5704183e-02
2.7929773e-02
2.8830281e-02
2.7947578e-02
2.5790286e-02
2.2241554e-02
1.7457402e-02
1.1565973e-02
5.2798324e-03
-7.3560961e-04
-6.4144526e-03
-1.0411082e-02
-1.3007783e-02
-1.4637211e-02
-1.4523498e-02
-1.4064375e-02
-1.4057585e-02
-1.3901196e-02
-1.3834995e-02
-1.4118267e-02
-1.4737578e-02
-1.5315301e-02
-1.5689016e-02
-1.5357786e-02
-1.3477408e-02
-1.0648883e-02
-8.0856146e-03
-6.4791795e-03
-5.1682841e-03
-3.3670396e-03
-1.0011927e-03
2.5236472e-03
6.3575962e-03
9.4402711e-03
1.1836070e-02
1.3073816e-02
1.3944240e-02
1.5569141e-02
1.7579259e-02
1.9535145e-02
2.0969223e-02
2.2050434e-02
2.3737155e-02
2.5937862e-02
2.6922757e-02
2.5453959e-02
2.3088424e-02
2.0511082e-02
1.6457845e-02
1.1664519e-02
6.9699446e-03
2.0970835e-03
-3.1820025e-03
-8.4699523e-03
-1.2948235e-02
-1.7030681e-02
-2.0187333e-02
-2.1776206e-02
-2.2683662e-02
-2.2913279e-02
-2.2379881e-02
-2.1390942e-02
-2.0336811e-02
-1.9812884e-02
-1.9388350e-02
-1.8242462e-02
-1.6150963e-02
-1.3497641e-02
-1.0664481e-02
-7.7911924e-03
-5.6116585e-03
-3.8989133e-03
-1.9738486e-03
3.8161206e-04
3.6469768e-03
7.3749012e-03
1.1245685e-02
1.5314130e-02
1.9103297e-02
2.2473333e-02
2.4928838e-02
2.6190802e-02
2.7029332e-02
2.7124678e-02
2.5437938e-02
2.1689204e-02
1.6770190e-02
1.0613384e-02
3.0160413e-03
-3.5358162e-03
-8.3953906e-03
-1.2493525e-02
-1.5262344e-02
-1.6479604e-02
-1.6783796e-02
-1.7364397e-02
-1.7983973e-02
-1.7307085e-02
-1.4941769e-02
-1.1425637e-02
-9.1453583e-03
-8.9725221e-03
-8.9475668e-03
-8.5578190e-03
-8.3913991e-03
-9.0728608e-03
-1.1067896e-02
-1.3457924e-02
-1.5335388e-02
-1.6286834e-02
-1.6288263e-02
-1.5267996e-02
-1.2915499e-02
-1.0186259e-02
-8.0597064e-03
-6.3316893e-03
-3.8331515e-03
-5.6848065e-04
2.9861031e-03
7.9172460e-03
1.3762141e-02
1.8892146e-02
2.2493638e-02
2.4402036e-02
2.5145901e-02
2.4878450e-02
2.3684489e-02
2.1492307e-02
1.8008133e-02
1.3412970e-02
7.7562088e-03
2.1181189e-03
-2.1150357e-03
-4.6459149e-03
-5.4351984e-03
-4.8851797e-03
-3.1865473e-03
-5.6379860e-04
1.6189074e-03
2.3270585e-03
1.5375349e-03
-2.7305629e-04
-2.4694626e-03
-4.7899395e-03
-6.8819881e-03
-9.8444101e-03
-1.4326559e-02
-1.8745872e-02
-2.2117210e-02
-2.3688678e-02
-2.3882259e-02
-2.2934806e-02
-2.0250652e-02
-1.7365386e-02
-1.5158213e-02
-1.3071641e-02
-1.0983055e-02
-8.3904414e-03
-4.2669136e-03
1.1546255e-03
6.2019016e-03
1.0829053e-02
1.5858833e-02
2.0818936e-02
2.5441401e-02
2.9161834e-02
3.1515593e-02
3.3322333e-02
3.4328798e-02
3.3744025e-02
3.1599030e-02
2.8149133e-02
2.3670994e-02
1.8177594e-02
1.2500804e-02
7.7986410e-03
4.6251220e-03
2.7587132e-03
9.5943448e-04
-1.5919248e-03
-4.8516096e-03
-7.5921109e-03
-9.0234912e-03
-9.6401526e-03
-1.0287636e-02
-1.2656129e-02
-1.5797354e-02
-1.7966650e-02
-2.0379722e-02
-2.2864457e-02
-2.4177491e-02
-2.3917961e-02
-2.2284554e-02
-2.0250259e-02
-1.8291883e-02
-1.6868443e-02
-1.5735588e-02
-1.4163343e-02
-1.2466489e-02
-1.1290265e-02
-1.0568392e-02
-8.8817532e-03
-5.8708838e-03
-2.9108210e-03
-5.8329058e-04
1.3505976e-03
3.4388763e-03
5.8376258e-03
8.8605384e-03
1.3096731e-02
1.7415183e-02
2.1606408e-02
2.6354015e-02
2.9885768e-02
3.1571167e-02
3.2116305e-02
3.1635210e-02
3.0343524e-02
2.7700326e-02
2.3439421e-02
1.8144136e-02
1.2997872e-02
8.0615494e-03
2.7190667e-03
-1.4013709e-03
-3.6111870e-03
-5.2627470e-03
-6.9643768e-03
-8.6126206e-03
-9.7509165e-03
-1.0640916e-02
-1.1053190e-02
-1.0629003e-02
-1.0716028e-02
-1.1424456e-02
-1.2125249e-02
-1.2834848e-02
-1.2921253e-02
-1.2307887e-02
-1.0924594e-02
-8.9401828e-03
-7.1188682e-03
-5.1516696e-03
-2.7314041e-03
-3.1832160e-04
1.1687829e-03
1.8115173e-03
2.2766530e-03
2.7028440e-03
3.3759013e-03
4.5146203e-03
7.2160852e-03
1.1785353e-02
1.6518394e-02
2.0643248e-02
2.4648943e-02
2.8967195e-02
3.3032005e-02
3.4631853e-02
3.2110732e-02
2.5575791e-02
1.6084273e-02
5.5980233e-03
-4.7299093e-03
-1.3702025e-02
-2.0345132e-02
-2.5380178e-02
-2.8857214e-02
-3.0851498e-02
-3.1934269e-02
-3.2987063e-02
-3.4173852e-02
-3.4541538e-02
-3.4453993e-02
-3.3930412e-02
-3.2682231e-02
-3.1422653e-02
-3.0408048e-02
-2.9224218e-02
-2.7120254e-02
-2.4459369e-02
-2.2101681e-02
-1.9102227e-02
-1.4450148e-02
-8.7230439e-03
-2.3051133e-03
5.0210101e-03
1.2632186e-02
1.9626318e-02
2.6284923e-02
3.2570071e-02
3.8527038e-02
4.4697477e-02
4.9737173e-02
5.2912823e-02
5.4830043e-02
5.6244675e-02
5.7711346e-02
5.8016515e-02
5.6482791e-02
5.3263371e-02
4.8481707e-02
4.3221044e-02
3.7602089e-02
3.1514150e-02
2.4840774e-02
1.7095506e-02
9.8669234e-03
4.5088501e-03
7.9267707e-04
-1.5703377e-03
-2.9234295e-03
-3.9107731e-03
-5.2591648e-03
-7.2453744e-03
-1.0272431e-02
-1.3832516e-02
-1.6632979e-02
-1.9316291e-02
-2.3178037e-02
-2.8180379e-02
-3.3586266e-02
-3.7977081e-02
-4.0611443e-02
-4.1893438e-02
-4.2381261e-02
-4.2320293e-02
-4.1128407e-02
-3.8317192e-02
-3.4162574e-02
-2.9434139e-02
-2.3605437e-02
-1.5914680e-02
-7.7065563e-03
5.0582238e-04
9.5617801e-03
1.8537869e-02
2.5525111e-02
2.9436380e-02
3.0196062e-02
2.8653936e-02
2.5973404e-02
2.2738126e-02
1.7833541e-02
1.0991595e-02
4.0809150e-03
-2.0353847e-03
-7.7233018e-03
-1.3341796e-02
-1.7972079e-02
-2.0560034e-02
-2.1529772e-02
-2.1909425e-02
-2.3102458e-02
-2.5144486e-02
-2.6785283e-02
-2.7401816e-02
-2.6853374e-02
-2.5526934e-02
-2.3606151e-02
-2.1344218e-02
-1.9273995e-02
-1.6968682e-02
-1.3897953e-02
-9.8405282e-03
-5.4029626e-03
-1.7209320e-03
1.2774963e-03
4.0931905e-03
7.1021070e-03
1.1040280e-02
1.6158445e-02
2.1424811e-02
2.6173404e-02
3.1060641e-02
3.6009017e-02
3.9942427e-02
4.2412089e-02
4.3766084e-02
4.4462501e-02
4.4330708e-02
4.3383067e-02
4.2130155e-02
4.0034048e-02
3.6505501e-02
3.0880844e-02
2.2751805e-02
1.3433506e-02
3.9042834e-03
-4.9270055e-03
-1.2396909e-02
-1.8489583e-02
-2.2698157e-02
-2.5457911e-02
-2.7331354e-02
-2.9005714e-02
-3.1161329e-02
-3.3144834e-02
-3.4626984e-02
-3.5316373e-02
-3.5391266e-02
-3.6253348e-02
-3.7776958e-02
-3.8394386e-02
-3.7680544e-02
-3.6608359e-02
-3.5363288e-02
-3.2973957e-02
-2.9700975e-02
-2.6116107e-02
-2.1906198e-02
-1.6801668e-02
-1.0619833e-02
-4.0590301e-03
1.9544710e-03
7.3656379e-03
1.2104682e-02
1.6501112e-02
2.0904207e-02
2.5458270e-02
3.0273965e-02
3.4236774e-02
3.6789667e-02
3.8789460e-02
4.1276441e-02
4.4513584e-02
4.7566781e-02
4.9398723e-02
4.9252248e-02
4.7123765e-02
4.2925171e-02
3.6425029e-02
2.8865781e-02
2.0746135e-02
1.1269333e-02
5.6621655e-04
-1.0092968e-02
-1.8830549e-02
-2.5386946e-02
-3.0501311e-02
-3.4400603e-02
-3.6910704e-02
-3.7373704e-02
-3.6931606e-02
-3.6166528e-02
-3.4689483e-02
-3.4061543e-02
-3.4123159e-02
-3.3649370e-02
-3.2944268e-02
-3.2162244e-02
-3.1030240e-02
-2.9002879e-02
-2.6309257e-02
-2.2991452e-02
-1.8849931e-02
-1.4805181e-02
-1.0785021e-02
-6.2853856e-03
-3.3009302e-04
8.4337890e-03
1.8366668e-02
2.6764398e-02
3.2589316e-02
3.6418760e-02
3.9248440e-02
4.0841556e-02
4.0647010e-02
3.8368026e-02
3.4067495e-02
2.7751415e-02
2.0063711e-02
1.2981601e-02
7.4324843e-03
3.5366142e-03
9.4492191e-04
-1.2380613e-03
-3.2440315e-03
-5.3158389e-03
-7.4359813e-03
-9.3848546e-03
-1.1697722e-02
-1.4217717e-02
-1.6223008e-02
-1.7410791e-02
-1.7368496e-02
-1.6510772e-02
-1.5879837e-02
-1.5679778e-02
-1.4664610e-02
-1.2744789e-02
-1.1091656e-02
-9.0748885e-03
-6.1918025e-03
-2.4937861e-03
1.7987105e-03
5.2894000e-03
8.0553210e-03
1.1084673e-02
1.4364398e-02
1.7661789e-02
2.0632623e-02
2.3383188e-02
2.5487599e-02
2.7087775e-02
2.8988875e-02
2.9876286e-02
2.8413625e-02
2.5123212e-02
2.1685662e-02
1.8311525e-02
1.3742860e-02
8.2735633e-03
2.7543122e-03
-2.0467733e-03
-6.3642819e-03
-1.0444164e-02
-1.3383076e-02
-1.5739054e-02
-1.7819794e-02
-1.9080749e-02
-2.0436798e-02
-2.2361081e-02
-2.4660425e-02
-2.7345987e-02
-2.9647269e-02
-3.1197584e-02
-3.2211414e-02
-3.2735456e-02
-3.1914219e-02
-2.8826775e-02
-2.4786861e-02
-2.0715434e-02
-1.6301688e-02
-1.1546916e-02
-6.2793261e-03
-9.8584080e-04
4.5862362e-03
1.0487012e-02
1.6276415e-02
2.2487676e-02
2.9061517e-02
3.5997012e-02
4.2317237e-02
4.7111690e-02
5.0738898e-02
5.2707980e-02
5.2692874e-02
5.1249918e-02
4.8937578e-02
4.5354968e-02
3.9831324e-02
3.2202063e-02
2.2848950e-02
1.3483351e-02
5.4143735e-03
-1.5839052e-03
-7.6661723e-03
-1.3088023e-02
-1.8095132e-02
-2.2807189e-02
-2.7603445e-02
-3.1470121e-02
-3.3735146e-02
-3.5246231e-02
-3.6512477e-02
-3.7760789e-02
-3.8777813e-02
-3.9535641e-02
-3.9716957e-02
-3.8228983e-02
-3.4711735e-02
-2.9334785e-02
-2.2818971e-02
-1.6664050e-02
-1.2008442e-02
-9.1754643e-03
-6.3588793e-03
-1.7329714e-03
3.1307091e-03
7.0918558e-03
1.0662806e-02
1.4111838e-02
1.7773366e-02
2.2290899e-02
2.7161217e-02
3.0461865e-02
3.2063964e-02
3.2547999e-02
3.1762352e-02
2.9579092e-02
2.5757621e-02
2.0712832e-02
1.4479673e-02
7.1544789e-03
-2.1932700e-04
-7.3593122e-03
-1.3819045e-02
-1.9612741e-02
-2.5391961e-02
-3.0134908e-02
-3.3341111e-02
-3.5939385e-02
-3.8364652e-02
-4.0579176e-02
-4.2420182e-02
-4.3314674e-02
-4.2595167e-02
-4.0935997e-02
-3.9459752e-02
-3.8170574e-02
-3.7103642e-02
-3.5961179e-02
-3.4027325e-02
-3.0627376e-02
-2.5505007e-02
-1.9323646e-02
-1.2491520e-02
-5.9605977e-03
-4.5814145e-04
4.6177788e-03
9.5673826e-03
1.4577269e-02
1.9545200e-02
2.4882739e-02
3.1498112e-02
3.8037690e-02
4.2994044e-02
4.6763297e-02
4.9810078e-02
5.1454878e-02
5.0739907e-02
4.8046852e-02
4.3473381e-02
3.7063361e-02
2.9557847e-02
2.1675358e-02
1.5076381e-02
1.0408688e-02
7.7534922e-03
7.5106720e-03
8.7628055e-03
1.1136613e-02
1.4236796e-02
1.7151286e-02
1.9690352e-02
2.1332234e-02
2.2212647e-02
2.2910799e-02
2.4007316e-02
2.6198793e-02
2.9065703e-02
3.2730144e-02
3.6969716e-02
4.1318555e-02
4.5914631e-02
4.8720349e-02
4.8358646e-02
4.5676968e-02
3.9679460e-02
2.7510169e-02
1.1476287e-02
-1.2291593e-03
-8.6563115e-03
-1.2610655e-02
-1.3601563e-02
-1.2946762e-02
-1.1949405e-02
-1.1594887e-02
-1.2379781e-02
-1.4036136e-02
-1.7317400e-02
-2.2652974e-02
-3.0066880e-02
-4.0014584e-02
-5.1126053e-02
-6.1056783e-02
-6.9507976e-02
-7.7523239e-02
-8.4809071e-02
-9.0411607e-02
-9.3947685e-02
-9.4257298e-02
-9.1497576e-02
-8.6711592e-02
-7.8651825e-02
-6.8639015e-02
-6.0042993e-02
-5.3208633e-02
-4.8266895e-02
-4.4980819e-02
-4.1987229e-02
-3.8872019e-02
-3.5682932e-02
-3.1810501e-02
-2.6814598e-02
-2.0995111e-02
-1.3919506e-02
-5.3764837e-03
4.1419474e-03
1.4188624e-02
2.4038884e-02
3.3776376e-02
4.3117138e-02
5.1464905e-02
5.9432099e-02
6.5502793e-02
6.8232226e-02
6.9198991e-02
6.8713207e-02
6.5066204e-02
5.7994428e-02
5.0315559e-02
4.4471249e-02
3.9974599e-02
3.5122076e-02
2.9020583e-02
2.2573716e-02
1.6717230e-02
1.0863797e-02
4.6488724e-03
-9.9883752e-04
-5.3140594e-03
-8.6416165e-03
-1.0880109e-02
-1.2056873e-02
-1.3712005e-02
-1.5807637e-02
-1.7657103e-02
-1.9691064e-02
-2.1436201e-02
-2.2660898e-02
-2.3137044e-02
-2.3319708e-02
-2.3334688e-02
-2.1482296e-02
-1.8598813e-02
-1.5825936e-02
-1.3422980e-02
-1.1590738e-02
-9.5686399e-03
-8.3832237e-03
-8.1904651e-03
-7.5760742e-03
-6.1208175e-03
-4.1943228e-03
-2.8776042e-03
-1.9693392e-03
-1.3108919e-03
-6.1136906e-04
1.2948096e-03
3.4074991e-03
4.5893031e-03
4.4906848e-03
3.5228629e-03
3.2455421e-03
4.0771734e-03
5.4866484e-03
6.4548943e-03
6.7424900e-03
7.3054699e-03
7.4968156e-03
7.1574612e-03
7.2156400e-03
8.1148516e-03
1.0648372e-02
1.3763237e-02
1.6530048e-02
1.9659553e-02
2.3445879e-02
2.7633637e-02
3.1176862e-02
3.4005118e-02
3.6599899e-02
3.8929923e-02
4.1547954e-02
4.4311517e-02
4.6885235e-02
4.9050242e-02
5.0157380e-02
5.0369975e-02
4.9056088e-02
4.5344056e-02
3.8601599e-02
2.7312587e-02
1.0724231e-02
-7.4430581e-03
-2.0520098e-02
-2.7586884e-02
-3.0583429e-02
-3.0133897e-02
-2.8813634e-02
-2.7893479e-02
-2.6651040e-02
-2.5071554e-02
-2.3557202e-02
-2.2388928e-02
-2.1046064e-02
-2.0402348e-02
-2.2132337e-02
-2.6356962e-02
-3.2199011e-02
-3.7380936e-02
-4.0953893e-02
-4.3080695e-02
-4.3463682e-02
-4.2958702e-02
-4.1104299e-02
-3.6763433e-02
-3.0438773e-02
-2.2032817e-02
-1.2656744e-02
-5.0674068e-03
-1.3830743e-04
3.0084081e-03
5.6524120e-03
7.3148772e-03
7.7332418e-03
8.2407062e-03
8.7352682e-03
8.8384394e-03
8.7852671e-03
8.8359252e-03
9.2646665e-03
9.9408183e-03
1.0698100e-02
1.1336723e-02
1.2362829e-02
1.3725706e-02
1.4477050e-02
1.5538420e-02
1.7804777e-02
2.1176696e-02
2.4959036e-02
2.8013653e-02
2.9568207e-02
2.9454007e-02
3.0014747e-02
3.1770681e-02
3.2567626e-02
3.2609890e-02
3.1729353e-02
2.9276683e-02
2.5732059e-02
2.1085293e-02
1.5582113e-02
9.8915147e-03
5.0627458e-03
1.7663784e-03
-4.2685343e-04
-1.8317992e-03
-2.9227229e-03
-4.1246041e-03
-5.3532265e-03
-5.7201207e-03
-4.7047551e-03
-4.1664597e-03
-5.2575481e-03
-8.0673570e-03
-1.2306135e-02
-1.7037178e-02
-2.2592699e-02
-2.7348811e-02
-2.9362507e-02
-2.9916397e-02
-3.0051742e-02
-2.9834318e-02
-2.8764074e-02
-2.6911121e-02
-2.4740067e-02
-2.1594167e-02
-1.7916207e-02
-1.3779100e-02
-9.1799874e-03
-5.3011703e-03
-1.8263428e-03
9.0483731e-04
3.0670511e-03
6.2102688e-03
1.0520216e-02
1.5476091e-02
1.9590709e-02
2.2806955e-02
2.6078201e-02
2.8573573e-02
2.9323190e-02
2.7568561e-02
2.3785971e-02
1.9009849e-02
1.3090235e-02
6.5870224e-03
7.2159990e-04
-3.3228870e-03
-5.4264865e-03
-6.9501003e-03
-8.3554457e-03
-9.3692342e-03
-9.6307277e-03
-9.1129040e-03
-8.3792776e-03
-7.5840883e-03
-7.0104842e-03
-7.1318815e-03
-8.2171580e-03
-9.5572529e-03
-1.0396015e-02
-1.1141209e-02
-1.1038471e-02
-8.8631048e-03
-4.1624469e-03
2.9319111e-03
1.0809261e-02
1.8187723e-02
2.4038573e-02
2.7280162e-02
2.8807247e-02
3.0118993e-02
3.1899936e-02
3.4264298e-02
3.7476149e-02
4.1224077e-02
4.4060823e-02
4.5964797e-02
4.7745141e-02
4.9635947e-02
5.1878004e-02
5.3836743e-02
5.5183415e-02
5.5715223e-02
5.5018957e-02
5.3416535e-02
4.9876242e-02
4.4144606e-02
3.7541787e-02
3.0373594e-02
2.2840358e-02
1.4823039e-02
6.7561248e-03
-2.8308857e-04
-6.3909904e-03
-1.1492344e-02
-1.5576521e-02
-1.9172606e-02
-2.2914236e-02
-2.6844592e-02
-3.0497828e-02
-3.4436112e-02
-3.8610438e-02
-4.2979581e-02
-4.8074697e-02
-5.3237286e-02
-5.7612832e-02
-6.0353651e-02
-6.1283412e-02
-6.0954143e-02
-5.9027566e-02
-5.5066291e-02
-4.9397349e-02
-4.3621612e-02
-3.8280471e-02
-3.1356975e-02
-2.3012386e-02
-1.5106656e-02
-8.2903129e-03
-2.3519372e-03
3.2727050e-03
8.3747920e-03
1.3212266e-02
1.7794546e-02
2.1044418e-02
2.2574632e-02
2.2836970e-02
2.1782158e-02
1.8915008e-02
1.5085879e-02
1.1276956e-02
7.4351246e-03
3.4476941e-03
-4.0466236e-04
-3.4937583e-03
-6.0916211e-03
-8.4235820e-03
-9.9831669e-03
-1.1307247e-02
-1.2430267e-02
-1.3033051e-02
-1.4113615e-02
-1.6069634e-02
-1.8149808e-02
-1.9283839e-02
-1.8919898e-02
-1.7526732e-02
-1.5642698e-02
-1.3643479e-02
-1.1120547e-02
-7.4204148e-03
-3.4412473e-03
3.2303479e-04
4.9555552e-03
1.1229542e-02
1.8414632e-02
2.4769354e-02
3.0231504e-02
3.5712518e-02
4.0789572e-02
4.5336670e-02
4.8961992e-02
5.0695972e-02
5.0213989e-02
4.7091647e-02
4.0508640e-02
3.0581777e-02
1.9487700e-02
8.4821214e-03
-2.8580230e-03
-1.4307404e-02
-2.6090761e-02
-3.7813494e-02
-4.7694273e-02
-5.4889355e-02
-6.0071403e-02
-6.4646260e-02
-6.8368104e-02
-7.0644469e-02
-7.2090219e-02
-7.2924787e-02
-7.2993169e-02
-7.2240369e-02
-7.1163402e-02
-6.9663951e-02
-6.7037769e-02
-6.3090782e-02
-5.8101472e-02
-5.2218500e-02
-4.3427550e-02
-2.9538674e-02
-1.2545139e-02
3.9793079e-03
1.8487260e-02
3.0685477e-02
4.1077939e-02
5.0306551e-02
5.8891635e-02
6.6806273e-02
7.3825285e-02
8.0417155e-02
8.6542771e-02
9.2408445e-02
9.8136269e-02
1.0294471e-01
1.0594591e-01
1.0666520e-01
1.0496654e-01
9.9760763e-02
9.1707393e-02
8.2731301e-02
7.1664325e-02
5.7828573e-02
4.1828184e-02
2.3214222e-02
1.6339558e-03
-2.0538685e-02
-3.8144898e-02
-5.0150543e-02
-5.8327504e-02
-6.3576664e-02
-6.7305070e-02
-6.9641805e-02
-7.0799094e-02
-7.1811728e-02
-7.3361500e-02
-7.6123513e-02
-7.8960578e-02
-7.9784424e-02
-7.7969033e-02
-7.4630304e-02
-7.1708655e-02
-6.9246177e-02
-6.6376114e-02
-6.2285381e-02
-5.6406739e-02
-5.0015042e-02
-4.2963935e-02
-3.3597669e-02
-2.1169473e-02
-5.4066550e-03
1.1569943e-02
2.6627703e-02
3.9174594e-02
4.9526868e-02
5.7255191e-02
6.1827700e-02
6.3371328e-02
6.2034793e-02
5.7753209e-02
5.1525203e-02
4.4696828e-02
3.7648302e-02
3.0601858e-02
2.4642437e-02
1.9410051e-02
1.4292918e-02
1.0371111e-02
7.0908815e-03
3.6937268e-03
5.6747730e-04
-2.4357113e-03
-5.1295127e-03
-7.7570220e-03
-1.0456239e-02
-1.3268089e-02
-1.6726169e-02
-2.0243296e-02
-2.3107052e-02
-2.4887190e-02
-2.5954626e-02
-2.6525612e-02
-2.5979825e-02
-2.5054335e-02
-2.3969115e-02
-2.1998562e-02
-1.9169629e-02
-1.5777403e-02
-1.1678125e-02
-6.4736934e-03
-1.4371000e-03
2.7013134e-03
6.7725284e-03
1.0312952e-02
1.3975628e-02
1.8586589e-02
2.2559029e-02
2.5116536e-02
2.6522782e-02
2.7688815e-02
2.9387560e-02
3.0128957e-02
2.8671637e-02
2.5133436e-02
2.0151903e-02
1.4610009e-02
9.2800651e-03
5.0555584e-03
1.2608480e-03
-2.6611057e-03
-5.7436482e-03
-7.5790680e-03
-8.5768258e-03
-1.0743432e-02
-1.4437630e-02
-1.7811466e-02
-2.0730054e-02
-2.2955006e-02
-2.4187649e-02
-2.5289669e-02
-2.6335010e-02
-2.6679491e-02
-2.6544804e-02
-2.6478922e-02
-2.5582918e-02
-2.2809073e-02
-1.8818840e-02
-1.4811273e-02
-1.1027322e-02
-7.2291441e-03
-3.0811432e-03
1.5222659e-03
6.1218070e-03
1.0657789e-02
1.4828242e-02
1.8254147e-02
2.1645142e-02
2.5426454e-02
2.8458985e-02
3.0455120e-02
3.2336221e-02
3.3456608e-02
3.2595811e-02
2.9330429e-02
2.4684991e-02
1.9431408e-02
1.2817566e-02
5.4217405e-03
-1.6086912e-03
-7.2952775e-03
-1.1387781e-02
-1.4794710e-02
-1.7224912e-02
-1.8882713e-02
-2.0157951e-02
-2.0357631e-02
-1.9621701e-02
-1.8325938e-02
-1.7227652e-02
-1.6668005e-02
-1.5837364e-02
-1.4441130e-02
-1.3060857e-02
-1.2321659e-02
-1.1916216e-02
-1.1564670e-02
-9.9470653e-03
-6.0376005e-03
-2.2754390e-03
1.5142388e-04
2.7509818e-03
5.8674214e-03
9.4404385e-03
1.3537311e-02
1.7704382e-02
2.1314977e-02
2.4075393e-02
2.5666080e-02
2.5256274e-02
2.3295087e-02
2.0799708e-02
1.8072285e-02
1.5375005e-02
1.1646531e-02
5.9186998e-03
-6.2511795e-04
-6.9247003e-03
-1.2902093e-02
-1.9678579e-02
-2.6967824e-02
-3.2665026e-02
-3.6655756e-02
-3.9296933e-02
-4.0860870e-02
-4.1611468e-02
-4.1413925e-02
-4.1019780e-02
-4.0722958e-02
-3.9427039e-02
-3.5961078e-02
-2.9751887e-02
-2.0829875e-02
-1.1294344e-02
-3.2633478e-03
4.5070333e-03
1.2595269e-02
1.9975435e-02
2.6723801e-02
3.2166686e-02
3.6459224e-02
4.0743406e-02
4.4588816e-02
4.7947600e-02
5.1474125e-02
5.6285018e-02
6.3005637e-02
6.9795927e-02
7.4794846e-02
7.7574328e-02
7.8096222e-02
7.5884088e-02
7.0178715e-02
6.1117744e-02
4.8137455e-02
3.0483532e-02
8.5296125e-03
-1.5422649e-02
-3.6947690e-02
-5.4425773e-02
-6.8723715e-02
-7.9734111e-02
-8.6844157e-02
-9.0437273e-02
-9.2255746e-02
-9.3229763e-02
-9.4122970e-02
-9.5950874e-02
-9.7997471e-02
-9.9357454e-02
-9.9599255e-02
-9.8729439e-02
-9.7680444e-02
-9.6317466e-02
-9.3339335e-02
-8.7669364e-02
-7.9266445e-02
-6.8642155e-02
-5.6279394e-02
-4.3015281e-02
-2.8979764e-02
-1.3723982e-02
2.4342164e-03
1.7724041e-02
3.0710208e-02
4.1796409e-02
5.0963116e-02
5.8570706e-02
6.5113147e-02
6.9236345e-02
7.1445379e-02
7.3244014e-02
7.3913729e-02
7.3249124e-02
7.1740741e-02
6.9611788e-02
6.6028879e-02
6.0343802e-02
5.3841194e-02
4.6632198e-02
3.8607125e-02
3.0799312e-02
2.3939096e-02
1.8698212e-02
1.5201762e-02
1.3360361e-02
1.3627628e-02
1.5515560e-02
1.7100454e-02
1.6786524e-02
1.4883584e-02
1.2414240e-02
1.0320773e-02
9.1381670e-03
7.9214020e-03
6.6957607e-03
5.9112619e-03
5.7713140e-03
6.9754754e-03
8.4818315e-03
9.4055186e-03
1.0109454e-02
1.0929370e-02
1.2313739e-02
1.3898794e-02
1.5270032e-02
1.6485300e-02
1.7521527e-02
1.8269437e-02
1.8785823e-02
1.9294863e-02
1.9098851e-02
1.8604860e-02
1.8569859e-02
1.8373770e-02
1.8482733e-02
1.8881455e-02
1.8717926e-02
1.7359798e-02
1.3683202e-02
7.5086301e-03
-9.8332585e-05
-7.5384257e-03
-1.3627486e-02
-1.8335276e-02
-2.1667557e-02
-2.3717723e-02
-2.4156017e-02
-2.2869510e-02
-2.1577691e-02
-2.1221083e-02
-2.1417868e-02
-2.1837421e-02
-2.2453001e-02
-2.3437771e-02
-2.3913284e-02
-2.4176626e-02
-2.5395474e-02
-2.7108815e-02
-2.9291557e-02
-3.1299726e-02
-3.2217721e-02
-3.2588622e-02
-3.2649589e-02
-3.2196879e-02
-3.0900978e-02
-2.9227819e-02
-2.7435264e-02
-2.5510311e-02
-2.3995630e-02
-2.1960926e-02
-1.9371225e-02
-1.6573594e-02
-1.3294488e-02
-1.1074565e-02
-1.0339377e-02
-1.0271956e-02
-9.7783389e-03
-8.4520102e-03
-7.0326919e-03
-4.8928617e-03
-2.1342681e-03
8.6643020e-04
4.1055763e-03
6.5017101e-03
7.6385452e-03
7.7990844e-03
7.7079009e-03
7.5337409e-03
6.7948459e-03
6.2778239e-03
6.3485193e-03
6.5167019e-03
6.3056656e-03
5.6233879e-03
5.3949509e-03
5.6166799e-03
6.1362046e-03
6.8974628e-03
7.9531339e-03
1.0001902e-02
1.1978613e-02
1.2830862e-02
1.2794150e-02
1.1989735e-02
1.0108226e-02
5.5253555e-03
-1.1574132e-03
-6.2242088e-03
-7.9851152e-03
-6.9078048e-03
-4.2630829e-03
-4.1016767e-05
6.3702529e-03
1.3585875e-02
2.0567211e-02
2.6769807e-02
3.2468266e-02
3.7669813e-02
4.1162438e-02
4.2575804e-02
4.1194354e-02
3.7341166e-02
3.2561791e-02
2.7638905e-02
2.3302753e-02
1.9630159e-02
1.5990194e-02
1.2188502e-02
9.2887160e-03
8.0295645e-03
7.6932071e-03
7.6892172e-03
6.5616474e-03
3.0340411e-03
-2.3075831e-03
-9.0448840e-03
-1.5719570e-02
-2.0956414e-02
-2.5300518e-02
-2.8580865e-02
-3.0084900e-02
-2.9887338e-02
-2.9313100e-02
-2.8764926e-02
-2.7550880e-02
-2.6195989e-02
-2.4675866e-02
-2.2512883e-02
-1.8795203e-02
-1.3037858e-02
-6.8214541e-03
-1.0690965e-03
4.0401881e-03
8.5063555e-03
1.3078113e-02
1.8032423e-02
2.3589535e-02
2.9656469e-02
3.5372287e-02
3.9939776e-02
4.2373718e-02
4.2038887e-02
3.8272975e-02
3.2005578e-02
2.5216265e-02
1.7479898e-02
9.4008516e-03
2.2661390e-03
-4.1995466e-03
-1.0282091e-02
-1.6406009e-02
-2.1658404e-02
-2.5386280e-02
-2.8739083e-02
-3.2049773e-02
-3.4298688e-02
-3.5008175e-02
-3.5354611e-02
-3.5499743e-02
-3.4236228e-02
-3.1666231e-02
-2.8865671e-02
-2.7319006e-02
-2.7050531e-02
-2.6207162e-02
-2.4318701e-02
-2.1520294e-02
-1.7846654e-02
-1.4325736e-02
-1.1480800e-02
-8.7938097e-03
-5.4984861e-03
-1.7694163e-03
1.9643851e-03
5.7691192e-03
8.8102238e-03
1.0863234e-02
1.2780431e-02
1.4830063e-02
1.6717712e-02
1.7733415e-02
1.7370258e-02
1.5653282e-02
1.2450647e-02
7.4676155e-03
1.1903774e-03
-6.0077131e-03
-1.4233517e-02
-2.2095268e-02
-2.8407148e-02
-3.3850526e-02
-3.8399969e-02
-4.1137391e-02
-4.1238742e-02
-3.8786849e-02
-3.5132537e-02
-3.1068056e-02
-2.6355614e-02
-2.0180541e-02
-1.2980362e-02
-5.9727715e-03
5.7852659e-04
6.4506420e-03
1.1660484e-02
1.5304000e-02
1.7073004e-02
1.8940556e-02
2.0960265e-02
2.2089456e-02
2.2175318e-02
2.0330531e-02
1.7005283e-02
1.4421253e-02
1.4057046e-02
1.5109965e-02
1.6173157e-02
1.7476253e-02
1.8943835e-02
2.1198585e-02
2.5039188e-02
2.8374835e-02
2.9776623e-02
2.9364938e-02
2.7669079e-02
2.5999593e-02
2.4546473e-02
2.2286256e-02
1.8091615e-02
1.2430110e-02
6.2997025e-03
1.7317203e-04
-4.8169280e-03
-8.6829422e-03
-1.1237708e-02
-1.1410306e-02
-8.9141499e-03
-4.6406747e-03
-9.6889869e-04
9.9594000e-04
1.4183130e-03
1.1135118e-03
1.2431407e-03
1.4437538e-03
1.6870241e-03
2.4730224e-03
3.4467486e-03
4.4439088e-03
5.8462202e-03
8.4576330e-03
1.2050554e-02
1.5367907e-02
1.7912259e-02
1.9767287e-02
2.1790915e-02
2.3821658e-02
2.5179475e-02
2.6569265e-02
2.7936730e-02
2.8791746e-02
2.8517224e-02
2.6634017e-02
2.4180674e-02
2.1571770e-02
1.8459507e-02
1.5032882e-02
1.1385302e-02
7.1225404e-03
1.9766971e-03
-3.0266540e-03
-7.7881617e-03
-1.2597451e-02
-1.6925130e-02
-2.0830096e-02
-2.3704325e-02
-2.5269807e-02
-2.5709659e-02
-2.5282208e-02
-2.5026770e-02
-2.5314364e-02
-2.5744253e-02
-2.5413147e-02
-2.3950540e-02
-2.2016931e-02
-1.9268620e-02
-1.5818884e-02
-1.2772877e-02
-1.0668483e-02
-9.6715743e-03
-9.0639460e-03
-7.9091672e-03
-5.6136174e-03
-2.4709637e-03
9.6471372e-04
5.3056685e-03
1.1094284e-02
1.8369518e-02
2.5743529e-02
3.1172516e-02
3.5167789e-02
3.8516313e-02
4.1096199e-02
4.2703551e-02
4.2522992e-02
4.1283063e-02
3.9754525e-02
3.7710393e-02
3.5183351e-02
3.1626985e-02
2.7437362e-02
2.3272363e-02
1.9472827e-02
1.6534157e-02
1.3701357e-02
1.1067038e-02
8.8954545e-03
6.5676689e-03
3.8439200e-03
1.7906320e-04
-3.7643592e-03
-6.8087245e-03
-8.6186246e-03
-9.9561088e-03
-1.1865897e-02
-1.3109997e-02
-1.3571125e-02
-1.4882407e-02
-1.6749514e-02
-1.8687039e-02
-2.0387903e-02
-2.1190250e-02
-2.0845094e-02
-1.9213242e-02
-1.6867164e-02
-1.4436055e-02
-1.2981064e-02
-1.3661952e-02
-1.5305439e-02
-1.6108862e-02
-1.5293522e-02
-1.3306612e-02
-1.0940832e-02
-8.8298277e-03
-8.7110995e-03
-1.1293303e-02
-1.5716242e-02
-2.0721540e-02
-2.4398321e-02
-2.6088618e-02
-2.6527373e-02
-2.5924161e-02
-2.3931387e-02
-2.0512475e-02
-1.6655596e-02
-1.2801017e-02
-8.6945421e-03
-4.8319508e-03
-1.6785610e-03
5.3184186e-04
2.1647912e-03
4.4731495e-03
8.6974536e-03
1.3916638e-02
1.7829455e-02
1.9806137e-02
1.9961178e-02
1.8942758e-02
1.7739777e-02
1.6430354e-02
1.4888367e-02
1.3115037e-02
1.1738981e-02
1.1312801e-02
1.1389974e-02
1.1972393e-02
1.3610743e-02
1.6651950e-02
2.0488463e-02
2.3856074e-02
2.6535764e-02
2.8420070e-02
2.9256655e-02
2.9046191e-02
2.7523519e-02
2.4583482e-02
1.9574711e-02
1.1033944e-02
-3.9975442e-04
-1.0893977e-02
-1.8454563e-02
-2.4446523e-02
-2.9162366e-02
-3.1882880e-02
-3.2844880e-02
-3.2669077e-02
-3.2771126e-02
-3.3241458e-02
-3.2840788e-02
-3.1910672e-02
-3.0377840e-02
-2.7846921e-02
-2.4533204e-02
-2.0948508e-02
-1.8006260e-02
-1.5747239e-02
-1.3646140e-02
-1.1141507e-02
-8.4328879e-03
-6.2453841e-03
-5.1301843e-03
-5.6024353e-03
-6.9140528e-03
-8.1578169e-03
-8.0170975e-03
-5.6552935e-03
-2.6694440e-03
9.2740490e-04
6.4149827e-03
1.2530209e-02
1.7024477e-02
1.9054332e-02
1.9043906e-02
1.7825948e-02
1.6322096e-02
1.5532903e-02
1.5236090e-02
1.4882531e-02
1.4268191e-02
1.3108717e-02
1.1699661e-02
1.0385893e-02
9.8333959e-03
9.0834584e-03
6.4084473e-03
2.3601841e-03
-2.6527852e-03
-7.7599652e-03
-1.1790206e-02
-1.5393498e-02
-1.8588463e-02
-2.1879233e-02
-2.6398521e-02
-3.1542798e-02
-3.6125895e-02
-3.9206781e-02
-4.0794335e-02
-4.1495598e-02
-4.2135457e-02
-4.2701882e-02
-4.2302884e-02
-4.1582245e-02
-4.0053994e-02
-3.6940029e-02
-3.3491101e-02
-2.9865373e-02
-2.6407269e-02
-2.3898332e-02
-2.1574419e-02
-1.8073400e-02
-1.3051738e-02
-6.8565708e-03
1.5141393e-03
1.1628967e-02
1.9797963e-02
2.4368454e-02
2.7076712e-02
2.9199886e-02
3.0210048e-02
3.0038261e-02
2.9728836e-02
2.9294548e-02
2.8637189e-02
2.8281428e-02
2.8222037e-02
2.7511458e-02
2.5514140e-02
2.3218050e-02
2.0866961e-02
1.8261105e-02
1.5980175e-02
1.3242124e-02
9.9904302e-03
7.4799575e-03
6.3992342e-03
6.9865974e-03
