-6.0018195e-02
-8.7807552e-02
-1.0758413e-01
-1.2350542e-01
-1.4015508e-01
-1.5578040e-01
-1.7088310e-01
-1.8247628e-01
-1.9186088e-01
-2.0189363e-01
-2.0966220e-01
-2.1615445e-01
-2.1971678e-01
-2.2113271e-01
-2.2178572e-01
-2.1905294e-01
-2.1503836e-01
-2.0826772e-01
-1.9861840e-01
-1.8640418e-01
-1.6860681e-01
-1.4506913e-01
-1.1129747e-01
-6.5657198e-02
-7.1403603e-03
5.5892305e-02
1.0174248e-01
1.2634511e-01
1.3425370e-01
1.2969802e-01
1.1740740e-01
9.8740446e-02
8.0502769e-02
6.4816733e-02
5.2990932e-02
4.5696708e-02
3.8603982e-02
3.4222348e-02
3.1634296e-02
2.9130405e-02
2.5854172e-02
1.7972308e-02
9.5656395e-03
2.5623502e-03
-2.1952359e-03
-4.7037320e-03
-7.9684006e-03
-8.0292489e-03
-4.7622794e-03
1.9705956e-03
1.1451208e-02
1.8314336e-02
2.4132852e-02
2.8192572e-02
3.1475254e-02
3.5257699e-02
3.5780632e-02
3.4465431e-02
3.1544146e-02
2.9182153e-02
2.6657487e-02
1.7623149e-02
2.3083838e-03
-2.0518083e-02
-4.9385397e-02
-8.2690981e-02
-1.2331614e-01
-1.6782662e-01
-2.1207554e-01
-2.4863911e-01
-2.7208160e-01
-2.8205429e-01
-2.7328083e-01
-2.4168275e-01
-1.8056239e-01
-9.8726521e-02
-2.3222931e-02
3.4022841e-02
7.1928594e-02
9.6008223e-02
1.1124247e-01
1.1727173e-01
1.1585922e-01
1.0775355e-01
1.0028287e-01
9.7312798e-02
9.6287349e-02
9.6951798e-02
9.5648158e-02
9.4042895e-02
9.3337790e-02
9.1324234e-02
8.7316106e-02
7.7944215e-02
6.8242998e-02
6.1935985e-02
5.7275073e-02
5.4552841e-02
5.1837834e-02
5.4018102e-02
6.4109688e-02
7.9947932e-02
9.9945480e-02
1.1870130e-01
1.3618220e-01
1.5113054e-01
1.6005980e-01
1.6155128e-01
1.5293560e-01
1.3901665e-01
1.2371940e-01
1.0901767e-01
9.7217741e-02
8.7633174e-02
8.5316686e-02
9.2653569e-02
1.0873965e-01
1.3017389e-01
1.4880465e-01
1.6307679e-01
1.7014692e-01
1.6628076e-01
1.4709737e-01
1.0511194e-01
4.0601507e-02
-3.5776659e-02
-1.0106286e-01
-1.4520240e-01
-1.7513270e-01
-1.9115560e-01
-1.9644589e-01
-1.9425646e-01
-1.8702789e-01
-1.8019516e-01
-1.7255805e-01
-1.6522932e-01
-1.5822964e-01
-1.5165121e-01
-1.4926178e-01
-1.4676865e-01
-1.4219311e-01
-1.3459008e-01
-1.2394174e-01
-1.1333927e-01
-9.8612553e-02
-7.8480665e-02
-5.2541824e-02
-2.1930532e-02
1.1029614e-02
5.4454974e-02
1.0311257e-01
1.3895128e-01
1.5502663e-01
1.5569319e-01
1.5120520e-01
1.4684423e-01
1.4712071e-01
1.5218844e-01
1.5910067e-01
1.7165146e-01
1.8796327e-01
2.0575072e-01
2.2123100e-01
2.2922676e-01
2.3282535e-01
2.3321643e-01
2.3260634e-01
2.2956010e-01
2.1989552e-01
2.0622480e-01
1.8706678e-01
1.6250376e-01
1.2961658e-01
8.1109958e-02
1.6244031e-02
-5.5967840e-02
-1.1324366e-01
-1.4944591e-01
-1.7330968e-01
-1.8559456e-01
-1.8754079e-01
-1.7849429e-01
-1.6347162e-01
-1.4978274e-01
-1.3670346e-01
-1.2628297e-01
-1.1736677e-01
-1.1009698e-01
-1.0761450e-01
-1.0828281e-01
-1.1087032e-01
-1.0980415e-01
-1.0342076e-01
-9.3337340e-02
-7.8065096e-02
-5.9117193e-02
-3.4047764e-02
-4.7772641e-03
2.2804971e-02
4.6416752e-02
6.4591440e-02
8.2787589e-02
1.0153586e-01
1.1804194e-01
1.3244833e-01
1.4243776e-01
1.5221428e-01
1.6287395e-01
1.7274175e-01
1.8209541e-01
1.8720004e-01
1.9159946e-01
1.9718354e-01
2.0226091e-01
2.0626346e-01
2.0567961e-01
2.0355650e-01
2.0127477e-01
1.9897775e-01
1.9517940e-01
1.8178565e-01
1.5727774e-01
1.1858768e-01
6.1138022e-02
-1.9934478e-02
-1.1781168e-01
-2.0369827e-01
-2.6638613e-01
-3.0927638e-01
-3.3318768e-01
-3.4345999e-01
-3.4190305e-01
-3.3024025e-01
-3.0823550e-01
-2.7770971e-01
-2.4541209e-01
-2.1269401e-01
-1.8195016e-01
-1.5285056e-01
-1.2572980e-01
-1.0528530e-01
-9.0232464e-02
-8.0093761e-02
-7.1227846e-02
-6.0490011e-02
-5.0161546e-02
-4.0164143e-02
-3.3535485e-02
-2.8084735e-02
-2.1180725e-02
-1.6723601e-02
-1.4775438e-02
-1.6769935e-02
-1.9728419e-02
-2.0318200e-02
-1.9998232e-02
-1.7689249e-02
-1.7492467e-02
-1.8915551e-02
-1.9935319e-02
-2.6026146e-02
-3.9923264e-02
-6.4632740e-02
-9.6355272e-02
-1.2964184e-01
-1.6506199e-01
-1.9955121e-01
-2.3092632e-01
-2.5395524e-01
-2.6487711e-01
-2.6456785e-01
-2.5205888e-01
-2.3015672e-01
-1.9772961e-01
-1.5360256e-01
-1.0432053e-01
-5.9008720e-02
-2.4896276e-02
1.3049795e-03
2.3013335e-02
4.0128626e-02
5.4468106e-02
6.4632284e-02
7.2879858e-02
7.9062546e-02
7.9803712e-02
7.4192465e-02
5.9335521e-02
3.8160030e-02
1.1079140e-02
-2.3741593e-02
-6.3228888e-02
-1.0444752e-01
-1.3907741e-01
-1.6236352e-01
-1.7193359e-01
-1.6391527e-01
-1.3899536e-01
-9.2413764e-02
-2.2457213e-02
5.7029054e-02
1.2427860e-01
1.6934142e-01
2.0016880e-01
2.2064486e-01
2.3129205e-01
2.3473162e-01
2.3081631e-01
2.2439720e-01
2.1747704e-01
2.0874579e-01
1.9515860e-01
1.7151748e-01
1.4138960e-01
1.0631091e-01
6.6497490e-02
2.3575823e-02
-2.2329097e-02
-6.4910073e-02
-1.0187837e-01
-1.3121204e-01
-1.5030470e-01
-1.5924148e-01
-1.5003201e-01
-1.1888827e-01
-7.2686925e-02
-2.6727625e-02
7.9897164e-03
3.5588649e-02
5.7657526e-02
7.4721486e-02
8.5689379e-02
8.8212466e-02
8.9480435e-02
9.2067629e-02
9.7563221e-02
1.0652916e-01
1.1475308e-01
1.2504432e-01
1.3787833e-01
1.5266069e-01
1.6509199e-01
1.6748882e-01
1.6235840e-01
1.5200003e-01
1.3907039e-01
1.2340796e-01
1.0202546e-01
7.9815370e-02
5.9671175e-02
4.6637453e-02
4.2556900e-02
4.2746482e-02
4.8602346e-02
5.9229036e-02
7.4053935e-02
8.9629190e-02
9.8968599e-02
1.0126337e-01
9.5436509e-02
8.5578617e-02
7.4389854e-02
6.0792939e-02
4.8077045e-02
3.7268208e-02
3.2960270e-02
3.5128284e-02
3.8187343e-02
4.0992447e-02
4.1219922e-02
4.1928379e-02
4.2977546e-02
4.0553134e-02
3.3395381e-02
1.5068999e-02
-8.0107200e-03
-2.3861658e-02
-3.1283986e-02
-3.2184918e-02
-3.1100747e-02
-2.6242545e-02
-1.8009589e-02
-1.1553533e-02
-7.4597149e-03
-8.2589415e-03
-1.0841891e-02
-1.2587420e-02
-1.3539568e-02
-1.0297230e-02
-3.4437332e-03
1.0090867e-02
3.1987599e-02
6.0514063e-02
9.4859904e-02
1.3097428e-01
1.6879090e-01
2.0663663e-01
2.4381652e-01
2.8187722e-01
3.1791467e-01
3.5358556e-01
3.8901198e-01
4.2457098e-01
4.6222610e-01
5.0056336e-01
5.4312889e-01
5.9160819e-01
6.4855950e-01
7.1575855e-01
7.8911412e-01
8.6792135e-01
9.4576203e-01
1.0170851e+00
1.0783668e+00
1.1211753e+00
1.1422895e+00
1.1350543e+00
1.0964677e+00
1.0287982e+00
9.3050959e-01
8.0630231e-01
6.5982648e-01
4.9814806e-01
3.3297076e-01
1.7268672e-01
2.9552117e-02
-9.0261137e-02
-1.8329295e-01
-2.4555149e-01
-2.7874298e-01
-2.8286340e-01
-2.6094561e-01
-2.1382553e-01
-1.4061955e-01
-4.3364683e-02
7.8955916e-02
2.2271440e-01
3.8504786e-01
5.6243743e-01
7.4931873e-01
9.4337918e-01
1.1357098e+00
1.3176005e+00
1.4779723e+00
1.6042267e+00
1.6901984e+00
1.7260883e+00
1.7058567e+00
1.6240546e+00
1.4759938e+00
1.2665480e+00
1.0000636e+00
6.8576185e-01
3.3330919e-01
-4.7276653e-02
-4.3745131e-01
-8.2056483e-01
-1.1796729e+00
-1.5062839e+00
-1.7987463e+00
-2.0490236e+00
-2.2511638e+00
-2.3983022e+00
-2.4885256e+00
-2.5253197e+00
-2.5106991e+00
-2.4515621e+00
-2.3526694e+00
-2.2240733e+00
-2.0793392e+00
-1.9253574e+00
-1.7692335e+00
-1.6100034e+00
-1.4454220e+00
-1.2763725e+00
-1.1056850e+00
-9.4320799e-01
-7.9007969e-01
-6.4575670e-01
-5.1402932e-01
-3.9741610e-01
-2.9830250e-01
-2.1051150e-01
-1.3093649e-01
-6.1742591e-02
-4.5806967e-03
3.7937440e-02
7.1504035e-02
9.9037636e-02
1.1913299e-01
1.3003604e-01
1.2874970e-01
1.2164769e-01
1.1192897e-01
9.9291269e-02
8.3772634e-02
6.2588472e-02
4.1781676e-02
2.5410634e-02
1.4526699e-02
9.6463217e-03
7.0535435e-03
1.0427876e-02
2.0726238e-02
3.5399434e-02
5.0594592e-02
5.9058216e-02
6.2729015e-02
6.4114739e-02
6.6003455e-02
6.9460886e-02
6.9864662e-02
7.0682823e-02
7.5469374e-02
8.6004170e-02
1.0134985e-01
1.1578283e-01
1.2860289e-01
1.3742012e-01
1.4110988e-01
1.3828889e-01
1.2451681e-01
1.0171802e-01
6.9726303e-02
2.8899393e-02
-1.3338606e-02
-4.5485595e-02
-6.0317541e-02
-6.1809650e-02
-5.1110577e-02
-3.1870696e-02
-1.2160133e-02
7.4154009e-03
2.2225863e-02
2.9920538e-02
3.0776801e-02
2.2349312e-02
7.5596535e-03
-1.3172547e-02
-3.5441785e-02
-5.4571022e-02
-7.0714767e-02
-8.0399261e-02
-8.4766386e-02
-8.2163927e-02
-7.3337255e-02
-6.5059915e-02
-5.7157325e-02
-5.1980755e-02
-5.0063294e-02
-5.1000581e-02
-5.6100584e-02
-6.1610283e-02
-6.7654917e-02
-7.2239296e-02
-7.3934535e-02
-7.3909948e-02
-6.9530330e-02
-6.2552434e-02
-5.2691153e-02
-4.0998610e-02
-3.0732178e-02
-2.0743986e-02
-1.2744949e-02
-4.6119903e-03
4.5914141e-03
1.4175448e-02
2.7076272e-02
4.1264326e-02
5.7769198e-02
7.5037548e-02
8.9849710e-02
1.0336665e-01
1.1228157e-01
1.1614279e-01
1.1536031e-01
1.1400047e-01
1.1663832e-01
1.1834691e-01
1.1744509e-01
1.0964052e-01
9.0682198e-02
6.4451033e-02
3.3581511e-02
3.4029441e-03
-2.5648993e-02
-5.4950814e-02
-8.0782322e-02
-1.0118434e-01
-1.1114599e-01
-1.1312571e-01
-1.1346454e-01
-1.1245345e-01
-1.1131720e-01
-1.0845289e-01
-1.0552821e-01
-1.0450489e-01
-1.0281272e-01
-9.8145596e-02
-8.3686511e-02
-6.1952117e-02
-4.1875693e-02
-2.5492958e-02
-1.2910472e-02
7.9922726e-05
1.3763235e-02
2.6323281e-02
3.5901702e-02
3.8562700e-02
3.8576288e-02
3.8415358e-02
3.8742476e-02
3.8837964e-02
3.5369922e-02
3.3303906e-02
3.5111295e-02
4.1539591e-02
5.0422325e-02
5.6125369e-02
6.1962965e-02
6.8902229e-02
7.6660822e-02
8.1899721e-02
7.6926290e-02
6.4261090e-02
4.6667172e-02
2.7300538e-02
8.0799316e-03
-1.3947080e-02
-3.4947846e-02
-5.2067524e-02
-6.1626743e-02
-6.2215788e-02
-5.8705024e-02
-5.1910453e-02
-4.4573110e-02
-3.6417660e-02
-2.7841450e-02
-2.3834181e-02
-2.3980199e-02
-2.8707813e-02
-3.4111943e-02
-3.7368940e-02
-4.1914165e-02
-4.7456013e-02
-5.3943186e-02
-5.5806997e-02
-5.0465136e-02
-4.3067021e-02
-3.5755430e-02
-3.1123839e-02
-2.5296279e-02
-1.6455438e-02
-8.5892874e-03
-1.7467673e-03
2.0619398e-03
7.0666072e-03
1.6704695e-02
2.8059567e-02
4.0515415e-02
5.0305726e-02
5.9554966e-02
6.9396326e-02
7.4783630e-02
7.4460958e-02
6.5335823e-02
5.0586346e-02
3.4559691e-02
1.7287320e-02
3.2262749e-04
-1.7953609e-02
-3.3286933e-02
-4.1671029e-02
-4.3970690e-02
-4.0894611e-02
-3.7096991e-02
-3.2111900e-02
-2.6377720e-02
-2.2124013e-02
-1.8429446e-02
-1.8702110e-02
-2.0553256e-02
-2.0748140e-02
-2.0019989e-02
-1.7839455e-02
-1.6216899e-02
-1.2732572e-02
-6.8400208e-03
-1.5383396e-04
8.3460491e-03
1.6626801e-02
2.6769025e-02
3.7669510e-02
4.6776549e-02
5.5247845e-02
6.1341350e-02
6.7906825e-02
7.5052163e-02
8.1798831e-02
8.9057707e-02
9.4431096e-02
1.0079410e-01
1.0643850e-01
1.0800850e-01
1.0494244e-01
9.3393036e-02
7.6481718e-02
5.6071081e-02
3.3067351e-02
9.5387624e-03
-1.5769235e-02
-3.7235234e-02
-5.2668364e-02
-6.4090706e-02
-7.2487640e-02
-7.9227625e-02
-7.9319815e-02
-7.3075104e-02
-6.4105972e-02
-5.4584877e-02
-4.8232085e-02
-4.1344157e-02
-3.2914164e-02
-2.5077787e-02
-1.9433695e-02
-1.7526144e-02
-1.3998566e-02
-7.6540581e-03
5.6167251e-04
7.8038760e-03
9.4815324e-03
1.0130110e-02
1.1832875e-02
1.4336956e-02
1.4588420e-02
9.2467168e-03
4.8707102e-03
4.1046212e-03
7.6207422e-03
1.2892585e-02
1.5641705e-02
2.1021375e-02
3.0625191e-02
4.6489472e-02
6.7319768e-02
8.5387438e-02
1.0117215e-01
1.1526498e-01
1.2921326e-01
1.4085229e-01
1.4019312e-01
1.2303232e-01
9.0454674e-02
4.9161708e-02
1.5247744e-03
-5.4140621e-02
-1.1156804e-01
-1.6616126e-01
-2.1201330e-01
-2.4631282e-01
-2.7201454e-01
-2.8817350e-01
-2.9542280e-01
-2.9148543e-01
-2.7705099e-01
-2.5617975e-01
-2.2655642e-01
-1.8507286e-01
-1.2317082e-01
-3.7221465e-02
6.8034597e-02
1.8852756e-01
3.1527497e-01
4.4209952e-01
5.5921733e-01
6.4923686e-01
6.9866552e-01
7.0169121e-01
6.6644801e-01
6.0121188e-01
5.1115093e-01
4.0481040e-01
2.8636253e-01
1.6352316e-01
4.1084564e-02
-8.0649658e-02
-1.9959985e-01
-3.1785618e-01
-4.3249060e-01
-5.4219901e-01
-6.4875542e-01
-7.5171070e-01
-8.5477178e-01
-9.5654544e-01
-1.0568740e+00
-1.1582793e+00
-1.2593486e+00
-1.3590242e+00
-1.4489242e+00
-1.5194074e+00
-1.5641772e+00
-1.5798745e+00
-1.5661991e+00
-1.5166002e+00
-1.4280102e+00
-1.3001118e+00
-1.1335915e+00
-9.3990036e-01
-7.3264313e-01
-5.2860830e-01
-3.4036620e-01
-1.7084340e-01
-2.0828084e-02
1.1453309e-01
2.3628468e-01
3.4491805e-01
4.4177324e-01
5.2411103e-01
5.9482558e-01
6.5182241e-01
6.9296608e-01
7.2091724e-01
7.3367667e-01
7.3291734e-01
7.1664183e-01
6.8882049e-01
6.6268652e-01
6.4141201e-01
6.2637058e-01
6.1515467e-01
6.0600434e-01
5.9943433e-01
5.9115248e-01
5.8232755e-01
5.7074177e-01
5.5288567e-01
5.2860131e-01
4.9790194e-01
4.6609386e-01
4.3328290e-01
3.9939821e-01
3.6663576e-01
3.3417004e-01
3.0444489e-01
2.7444527e-01
2.3979729e-01
1.9663560e-01
1.3839644e-01
6.2584384e-02
-3.6573705e-02
-1.5247937e-01
-2.6708519e-01
-3.7446540e-01
-4.7282109e-01
-5.6269549e-01
-6.4381961e-01
-7.1826453e-01
-7.9041643e-01
-8.5682580e-01
-9.1652320e-01
-9.6714190e-01
-1.0085849e+00
-1.0438013e+00
-1.0672992e+00
-1.0759228e+00
-1.0662660e+00
-1.0378727e+00
-9.9397857e-01
-9.3210614e-01
-8.5357466e-01
-7.5752629e-01
-6.4624711e-01
-5.3027372e-01
-4.1434474e-01
-3.0285193e-01
-1.9131265e-01
-7.1002051e-02
5.4990075e-02
1.8281010e-01
3.0842901e-01
4.3026574e-01
5.4351812e-01
6.3817207e-01
7.1128135e-01
7.6265286e-01
7.9680766e-01
8.1521108e-01
8.1376051e-01
7.9355697e-01
7.5806429e-01
7.1621054e-01
6.7312218e-01
6.2802844e-01
5.8241431e-01
5.3763077e-01
5.0199664e-01
4.8045271e-01
4.7419889e-01
4.8836992e-01
5.2709296e-01
5.8338345e-01
6.2898788e-01
6.5073810e-01
6.5507926e-01
6.4322465e-01
6.2327748e-01
6.0079603e-01
5.7524802e-01
5.4725148e-01
5.1395894e-01
4.7860612e-01
4.4263361e-01
4.0338396e-01
3.6023480e-01
3.0864433e-01
2.5164978e-01
1.9390388e-01
1.3577184e-01
7.8722687e-02
2.1225952e-02
-3.3001617e-02
-8.0040720e-02
-1.1785607e-01
-1.4626877e-01
-1.7177652e-01
-1.9465239e-01
-2.1481747e-01
-2.3315966e-01
-2.4935303e-01
-2.6810684e-01
-2.8900448e-01
-3.1070603e-01
-3.2980779e-01
-3.4177813e-01
-3.4870785e-01
-3.4717554e-01
-3.3505787e-01
-3.1326659e-01
-2.8251710e-01
-2.4702932e-01
-2.0662071e-01
-1.6438846e-01
-1.2193852e-01
-7.7518525e-02
-3.4016029e-02
1.1539972e-02
5.9413131e-02
1.0732608e-01
1.5320544e-01
1.9116255e-01
2.2102924e-01
2.3925403e-01
2.4341882e-01
2.3499455e-01
2.1350711e-01
1.8555728e-01
1.5394659e-01
1.2003813e-01
8.7900612e-02
5.9462713e-02
4.1627510e-02
3.7265825e-02
4.4964035e-02
6.1193959e-02
8.0538566e-02
1.0222939e-01
1.2164068e-01
1.3436331e-01
1.3757624e-01
1.2962524e-01
1.1742003e-01
1.0525467e-01
9.5765910e-02
8.9562871e-02
8.5212573e-02
8.6921291e-02
9.3567645e-02
1.0299930e-01
1.1196991e-01
1.1644923e-01
1.2141131e-01
1.2754589e-01
1.3368827e-01
1.3743579e-01
1.3658181e-01
1.3821865e-01
1.4416134e-01
1.5517056e-01
1.6944968e-01
1.8107494e-01
1.9229664e-01
2.0195649e-01
2.0858296e-01
2.0835739e-01
1.9443267e-01
1.7010090e-01
1.3819900e-01
1.0178816e-01
6.0830082e-02
1.0945097e-02
-3.8685987e-02
-7.4243597e-02
-8.9092095e-02
-8.8269581e-02
-8.1775038e-02
-7.1100039e-02
-5.7873174e-02
-4.2253759e-02
-2.5578289e-02
-1.2352289e-02
-1.4174069e-03
7.4410209e-03
1.7232276e-02
2.8642979e-02
3.8263945e-02
4.7419564e-02
5.5409705e-02
6.5554616e-02
7.8772187e-02
9.0155313e-02
9.9021967e-02
1.0376885e-01
1.0784270e-01
1.1206851e-01
1.1283140e-01
1.1162506e-01
1.0851628e-01
1.0779438e-01
1.0952653e-01
1.0923014e-01
1.0773087e-01
1.0259058e-01
9.4969583e-02
8.5241974e-02
7.1053718e-02
5.5096011e-02
3.8308106e-02
2.4646076e-02
1.5321550e-02
9.9095973e-03
1.2346280e-02
2.0408230e-02
3.4104966e-02
5.2125850e-02
6.8346838e-02
7.8081770e-02
7.4007424e-02
5.3293781e-02
1.0405742e-02
-6.3278565e-02
-1.5454218e-01
-2.3473839e-01
-2.8964388e-01
-3.2515745e-01
-3.4700852e-01
-3.5543802e-01
-3.5504382e-01
-3.4679654e-01
-3.3268946e-01
-3.1758442e-01
-3.0290351e-01
-2.9091693e-01
-2.7965489e-01
-2.7088540e-01
-2.6690667e-01
-2.6462639e-01
-2.6321224e-01
-2.5785512e-01
-2.4730886e-01
-2.3183719e-01
-2.0715739e-01
-1.7184314e-01
-1.2206917e-01
-5.8155998e-02
2.0528069e-02
1.0372902e-01
1.6220568e-01
1.9026387e-01
1.9656147e-01
1.8685589e-01
1.7011600e-01
1.5123865e-01
1.3658241e-01
1.2676286e-01
1.1943651e-01
1.1611249e-01
1.1563838e-01
1.1936961e-01
1.2462724e-01
1.2631680e-01
1.2225895e-01
1.1058105e-01
9.6077343e-02
7.9789733e-02
6.1477440e-02
4.4646742e-02
2.9891090e-02
2.1378665e-02
1.8926392e-02
1.9362964e-02
2.0207567e-02
1.8078666e-02
1.7238685e-02
1.7840393e-02
1.8426341e-02
2.0697940e-02
2.4000325e-02
3.3009624e-02
4.7951031e-02
6.7476918e-02
9.1485584e-02
1.1587088e-01
1.4315987e-01
1.7294985e-01
2.0217874e-01
2.2770478e-01
2.4391419e-01
2.5257878e-01
2.5321225e-01
2.4461430e-01
2.2641224e-01
1.9575444e-01
1.5537929e-01
1.0319322e-01
3.6480460e-02
-3.3355989e-02
-8.7224558e-02
-1.1479606e-01
-1.2139186e-01
-1.1224779e-01
-9.3547143e-02
-7.6700662e-02
-6.5337284e-02
-6.2072696e-02
-6.7559842e-02
-8.0214039e-02
-1.0105111e-01
-1.2725922e-01
-1.5734994e-01
-1.8676194e-01
-2.1284005e-01
-2.3878472e-01
-2.6154240e-01
-2.7918822e-01
-2.8830461e-01
-2.8539911e-01
-2.7103196e-01
-2.3990822e-01
-1.8718457e-01
-1.0385094e-01
9.8896535e-05
8.9634654e-02
1.5431247e-01
2.0042596e-01
2.3518751e-01
2.6510851e-01
2.9072520e-01
3.1442364e-01
3.3434284e-01
3.5139504e-01
3.6536051e-01
3.7030948e-01
3.6668748e-01
3.5387767e-01
3.3483453e-01
3.1315438e-01
2.8723838e-01
2.6059847e-01
2.3386424e-01
2.0812259e-01
1.8378751e-01
1.5612439e-01
1.2277061e-01
7.7171069e-02
1.3953297e-02
-5.9379218e-02
-1.2484247e-01
-1.7340886e-01
-2.1161818e-01
-2.4117094e-01
-2.6271087e-01
-2.7982486e-01
-2.9204987e-01
-3.0228160e-01
-3.0972883e-01
-3.1366020e-01
-3.1679582e-01
-3.1743858e-01
-3.1739339e-01
-3.1553648e-01
-3.1147281e-01
-3.0741693e-01
-2.9952778e-01
-2.8674169e-01
-2.6500672e-01
-2.3163986e-01
-1.8738537e-01
-1.2801271e-01
-5.1360706e-02
4.9644592e-02
1.6138863e-01
2.4734951e-01
2.9756551e-01
3.2019870e-01
3.2561439e-01
3.2048368e-01
3.0531763e-01
2.8410541e-01
2.5836035e-01
2.3296388e-01
2.1064651e-01
1.8862741e-01
1.6669684e-01
1.4297604e-01
1.1967166e-01
9.6477011e-02
6.8928364e-02
3.7397389e-02
3.5947775e-03
-2.5150048e-02
-4.5653562e-02
-6.0180505e-02
-6.6987347e-02
-6.5504135e-02
-4.9863803e-02
-2.3531892e-02
-3.1960458e-03
4.3016472e-03
-3.3451532e-04
-1.0582608e-02
-2.2683781e-02
-3.7473940e-02
-5.3490813e-02
-7.0288032e-02
-8.2119700e-02
-8.6668397e-02
-8.7229517e-02
-8.6524045e-02
-8.8827333e-02
-9.2494863e-02
-9.7961174e-02
-1.0811608e-01
-1.2295679e-01
-1.4377556e-01
-1.6377628e-01
-1.7624987e-01
-1.7940846e-01
-1.7085557e-01
-1.4988611e-01
-1.0891309e-01
-5.1991341e-02
1.2344127e-03
4.1735464e-02
6.7459847e-02
8.2196308e-02
8.9124882e-02
8.8577866e-02
8.2896727e-02
7.1047384e-02
5.7326387e-02
4.5660503e-02
3.7140867e-02
3.2183402e-02
2.6607503e-02
2.2165350e-02
2.0430069e-02
2.0468277e-02
2.1039956e-02
1.8231715e-02
1.5692150e-02
1.6786315e-02
2.3760604e-02
4.0147651e-02
6.5994875e-02
1.0741311e-01
1.5808175e-01
1.9861334e-01
2.2215675e-01
2.2975591e-01
2.2603405e-01
2.1102494e-01
1.8346756e-01
1.4650034e-01
1.0200486e-01
5.6842278e-02
1.4046864e-02
-2.5552472e-02
-5.9171767e-02
-8.7141345e-02
-1.0504725e-01
-1.1184580e-01
-1.0924464e-01
-9.9027975e-02
-8.6109466e-02
-6.9499796e-02
-5.0970367e-02
-3.3723293e-02
-1.9172869e-02
-1.0570248e-02
-3.9931407e-03
2.5469090e-03
7.7226402e-03
1.1597264e-02
1.4094621e-02
2.0513188e-02
3.2222637e-02
4.7754529e-02
6.4690722e-02
7.8905250e-02
9.4263227e-02
1.1230403e-01
1.3253393e-01
1.5457811e-01
1.7559633e-01
1.9898208e-01
2.2581373e-01
2.5492039e-01
2.8333708e-01
3.0581132e-01
3.2442769e-01
3.3905709e-01
3.4951100e-01
3.5617507e-01
3.5914005e-01
3.6757594e-01
3.8011968e-01
3.8603256e-01
3.8094152e-01
3.6434302e-01
3.4198843e-01
3.1657306e-01
2.8751341e-01
2.5106840e-01
1.9886495e-01
1.2985737e-01
4.3791295e-02
-5.8915293e-02
-1.7904896e-01
-3.2123960e-01
-4.8258110e-01
-6.5873753e-01
-8.4389074e-01
-1.0342694e+00
-1.2288800e+00
-1.4163759e+00
-1.5842935e+00
-1.7192519e+00
-1.8067607e+00
-1.8355711e+00
-1.7904771e+00
-1.6784384e+00
-1.5285609e+00
-1.3571892e+00
-1.1702339e+00
-9.7164925e-01
-7.6625989e-01
-5.5627481e-01
-3.4465284e-01
-1.3717991e-01
6.6915231e-02
2.6896697e-01
4.7275088e-01
6.7964923e-01
8.8755773e-01
1.0986089e+00
1.3081930e+00
1.5110852e+00
1.6998243e+00
1.8609630e+00
1.9838758e+00
2.0516728e+00
2.0483201e+00
1.9584946e+00
1.7615217e+00
1.4396329e+00
1.0336321e+00
6.4832193e-01
3.2926051e-01
6.2337459e-02
-1.5654974e-01
-3.3343557e-01
-4.7333974e-01
-5.8165648e-01
-6.6711273e-01
-7.3225717e-01
-7.8208730e-01
-8.2162109e-01
-8.5567275e-01
-8.8943789e-01
-9.2036477e-01
-9.4664165e-01
-9.6513370e-01
-9.7246337e-01
-9.6570614e-01
-9.3581633e-01
-8.7718580e-01
-7.8429913e-01
-6.5296556e-01
-4.7949663e-01
-2.5028959e-01
6.2201833e-03
2.2077572e-01
3.6570551e-01
4.5247169e-01
4.9584847e-01
5.0732578e-01
4.9779057e-01
4.7298222e-01
4.3558498e-01
3.9335706e-01
3.4919519e-01
3.0550349e-01
2.6131194e-01
2.1452915e-01
1.7075655e-01
1.3188332e-01
1.0040031e-01
7.5538204e-02
5.3221687e-02
3.6537385e-02
2.5952452e-02
2.2979006e-02
2.5669236e-02
2.8235086e-02
3.2960273e-02
4.0471168e-02
5.1429162e-02
6.4274358e-02
7.4520441e-02
8.4227942e-02
9.4563977e-02
1.0739114e-01
1.2149517e-01
1.3203195e-01
1.3875507e-01
1.4115098e-01
1.4192539e-01
1.3847624e-01
1.2317809e-01
9.5121869e-02
5.4773849e-02
9.3365845e-03
-3.5658019e-02
-8.0557932e-02
-1.2262566e-01
-1.5980981e-01
-1.8568904e-01
-1.9794349e-01
-1.9832681e-01
-1.8371342e-01
-1.5958495e-01
-1.3440511e-01
-1.1404234e-01
-1.0199617e-01
-9.6669712e-02
-9.8551823e-02
-1.0321179e-01
-1.0721272e-01
-1.1155855e-01
-1.1483648e-01
-1.1867872e-01
-1.2064919e-01
-1.1959581e-01
-1.1747898e-01
-1.1327272e-01
-1.0984260e-01
-1.0616838e-01
-1.0098727e-01
-9.4954485e-02
-8.5734464e-02
-7.3934866e-02
-5.4876011e-02
-2.3949893e-02
2.0627384e-02
8.4146499e-02
1.5763784e-01
2.2268603e-01
2.7051003e-01
3.0248322e-01
3.2279114e-01
3.3011439e-01
3.2457207e-01
3.0670048e-01
2.7755295e-01
2.4199563e-01
2.0250278e-01
1.6436404e-01
1.2932122e-01
9.7506410e-02
7.3508593e-02
5.8015865e-02
5.3248995e-02
5.8110347e-02
6.8891057e-02
8.4213111e-02
9.9319942e-02
1.1251711e-01
1.2015247e-01
1.2034002e-01
1.1729518e-01
1.1208343e-01
1.0866043e-01
1.0823882e-01
1.0961022e-01
1.1496146e-01
1.2386149e-01
1.3783240e-01
1.5472856e-01
1.7134288e-01
1.8826568e-01
2.0311299e-01
2.1846311e-01
2.3364244e-01
2.4442718e-01
2.5191614e-01
2.5652287e-01
2.6286607e-01
2.7123628e-01
2.7753007e-01
2.8060360e-01
2.7801518e-01
2.7009532e-01
2.5243416e-01
2.1804484e-01
1.5968446e-01
8.1547560e-02
9.2865917e-03
-4.9270398e-02
-1.0285504e-01
-1.5381159e-01
-2.0296082e-01
-2.4512170e-01
-2.7830457e-01
-3.0377202e-01
-3.2120127e-01
-3.3127587e-01
-3.2850437e-01
-3.1233719e-01
-2.8822931e-01
-2.6084243e-01
-2.3587622e-01
-2.1216491e-01
-1.9059971e-01
-1.7363697e-01
-1.6083391e-01
-1.5499896e-01
-1.5274666e-01
-1.5202266e-01
-1.5420100e-01
-1.5916424e-01
-1.6612307e-01
-1.6638913e-01
-1.5792451e-01
-1.4505249e-01
-1.3074370e-01
-1.1981612e-01
-1.1004721e-01
-1.0027040e-01
-9.0448164e-02
-7.8280768e-02
-6.4906727e-02
-4.6943710e-02
-2.3805569e-02
2.1781621e-03
2.9882211e-02
5.4205466e-02
7.2917187e-02
8.1982369e-02
7.8605437e-02
6.3781286e-02
3.5940443e-02
-1.8873010e-03
-4.7379153e-02
-9.7823431e-02
-1.4951918e-01
-2.0340642e-01
-2.5645323e-01
-3.0801988e-01
-3.5889433e-01
-4.0923135e-01
-4.6341897e-01
-5.2198116e-01
-5.8765683e-01
-6.6260104e-01
-7.4614145e-01
-8.3990659e-01
-9.3999453e-01
-1.0445884e+00
-1.1516245e+00
-1.2561029e+00
-1.3550684e+00
-1.4398340e+00
-1.5041626e+00
-1.5405543e+00
-1.5358822e+00
-1.4770633e+00
-1.3416135e+00
-1.1035956e+00
-7.3188488e-01
-1.8512308e-01
4.6126628e-01
1.0168651e+00
1.4073787e+00
1.6724359e+00
1.8455014e+00
1.9507338e+00
2.0102856e+00
2.0391502e+00
2.0484375e+00
2.0462756e+00
2.0347060e+00
2.0184706e+00
1.9980822e+00
1.9728728e+00
1.9434201e+00
1.9082125e+00
1.8696524e+00
1.8252467e+00
1.7699444e+00
1.6957359e+00
1.5877560e+00
1.4313341e+00
1.2016730e+00
8.6468960e-01
3.7700733e-01
-1.9942772e-01
-6.8382115e-01
-1.0095830e+00
-1.2168771e+00
-1.3356902e+00
-1.3916741e+00
-1.3990943e+00
-1.3698052e+00
-1.3131085e+00
-1.2369335e+00
-1.1516979e+00
-1.0596697e+00
-9.6292383e-01
-8.6485932e-01
-7.6966026e-01
-6.8345274e-01
-6.0427256e-01
-5.3095330e-01
-4.6352674e-01
-4.0063447e-01
-3.4332845e-01
-2.8953246e-01
-2.3833998e-01
-1.8753417e-01
-1.3692102e-01
-9.0889719e-02
-4.8552771e-02
-1.0349686e-02
2.3389499e-02
5.0223471e-02
6.3433971e-02
6.3097669e-02
5.0747536e-02
3.1715247e-02
1.1897437e-02
-7.8419543e-03
-2.3614538e-02
-3.4380440e-02
-3.6783417e-02
-2.7395008e-02
-1.1155820e-02
7.8776984e-03
2.4423424e-02
3.7063449e-02
4.5454072e-02
4.4118513e-02
3.2137204e-02
9.1325526e-03
-2.1229454e-02
-5.3698463e-02
-8.7569645e-02
-1.2033675e-01
-1.5390782e-01
-1.8813616e-01
-2.2032898e-01
-2.5265390e-01
-2.8615130e-01
-3.2383819e-01
-3.6520455e-01
-4.0940587e-01
-4.5875952e-01
-5.1068919e-01
-5.6585143e-01
-6.2310470e-01
-6.7927798e-01
-7.3398423e-01
-7.8213610e-01
-8.2003680e-01
-8.4240609e-01
-8.4203402e-01
-8.1064893e-01
-7.3255353e-01
-5.9238964e-01
-3.7053796e-01
-4.1770910e-02
3.4288283e-01
6.5963707e-01
8.6228422e-01
9.8234959e-01
1.0448242e+00
1.0679031e+00
1.0711244e+00
1.0669368e+00
1.0629270e+00
1.0613160e+00
1.0616650e+00
1.0681056e+00
1.0800733e+00
1.0973187e+00
1.1170704e+00
1.1340719e+00
1.1489145e+00
1.1571260e+00
1.1542753e+00
1.1322166e+00
1.0748231e+00
9.6722800e-01
7.8780793e-01
5.1179322e-01
1.0468077e-01
-3.8213839e-01
-7.9337169e-01
-1.0681582e+00
-1.2373812e+00
-1.3261195e+00
-1.3560103e+00
-1.3401734e+00
-1.2904633e+00
-1.2149252e+00
-1.1218942e+00
-1.0235604e+00
-9.2711945e-01
-8.3812252e-01
-7.5812669e-01
-6.8973675e-01
-6.3851241e-01
-6.0557661e-01
-5.9152101e-01
-5.9144062e-01
-6.0216023e-01
-6.2533972e-01
-6.5831391e-01
-6.9871814e-01
-7.4022876e-01
-7.7891438e-01
-8.1418001e-01
-8.4078157e-01
-8.5651385e-01
-8.5526035e-01
-8.3003982e-01
-7.7644770e-01
-6.8777609e-01
-5.6288518e-01
-4.0066117e-01
-2.0397064e-01
1.8975108e-02
2.6179001e-01
5.1423719e-01
7.7096450e-01
1.0266026e+00
1.2707931e+00
1.4967997e+00
1.6964264e+00
1.8660331e+00
2.0018594e+00
2.0939786e+00
2.1295154e+00
2.0861393e+00
1.9413137e+00
1.6696074e+00
1.3088253e+00
9.6987321e-01
6.9632877e-01
4.7165557e-01
2.8421927e-01
1.2411263e-01
-1.2263540e-02
-1.2945149e-01
-2.2707469e-01
-3.0313168e-01
-3.5818078e-01
-3.9268118e-01
-4.1006458e-01
-4.0988335e-01
-3.9421132e-01
-3.6842476e-01
-3.3513446e-01
-2.9933816e-01
-2.6202902e-01
-2.2541895e-01
-1.9157278e-01
-1.5580372e-01
-1.1571645e-01
-6.7074137e-02
-8.3370027e-03
5.4033241e-02
1.1137306e-01
1.5991212e-01
2.0456217e-01
2.4338132e-01
2.7043982e-01
2.8454457e-01
2.8342454e-01
2.7086655e-01
2.4830457e-01
2.1249248e-01
1.6519971e-01
1.0960374e-01
5.3583232e-02
3.7962816e-04
-5.2335825e-02
-1.0279514e-01
-1.4854331e-01
-1.8357239e-01
-2.0684220e-01
-2.2321851e-01
-2.3636324e-01
-2.5123766e-01
-2.6885676e-01
-2.9341556e-01
-3.2188769e-01
-3.3861801e-01
-3.3862095e-01
-3.2104486e-01
-2.8773637e-01
-2.4495960e-01
-1.9734959e-01
-1.5013400e-01
-1.0174863e-01
-5.0672620e-02
1.1434716e-03
5.0984846e-02
9.5523520e-02
1.3986391e-01
1.8736319e-01
2.3625804e-01
2.8354675e-01
3.2554067e-01
3.6911354e-01
4.2144299e-01
4.8552288e-01
5.6381116e-01
6.5645371e-01
7.7162696e-01
9.1806419e-01
1.0772340e+00
1.2071674e+00
1.2880555e+00
1.3303188e+00
1.3437843e+00
1.3342162e+00
1.3051176e+00
1.2553007e+00
1.1888859e+00
1.1096414e+00
1.0183761e+00
9.1417334e-01
7.9151717e-01
6.5161248e-01
4.9824508e-01
3.3474880e-01
1.6380044e-01
-1.6379749e-02
-2.0210432e-01
-3.8669661e-01
-5.6115731e-01
-7.1455675e-01
-8.3667287e-01
-9.1047394e-01
-9.2048595e-01
-8.8305811e-01
-8.4465623e-01
-8.2604845e-01
-8.1582871e-01
-8.0698112e-01
-7.9461955e-01
-7.7512237e-01
-7.4999483e-01
-7.1604901e-01
-6.7202654e-01
-6.1626501e-01
-5.4560030e-01
-4.6117042e-01
-3.5975834e-01
-2.4411834e-01
-1.2154881e-01
2.6946699e-03
1.2032111e-01
2.2677704e-01
3.1393762e-01
3.7199204e-01
3.9352213e-01
3.7072978e-01
3.0491998e-01
1.9794996e-01
6.3252047e-02
-7.2155863e-02
-1.9454445e-01
-2.9486812e-01
-3.6781261e-01
-4.1459019e-01
-4.3890347e-01
-4.4586891e-01
-4.3433127e-01
-4.0772482e-01
-3.7308822e-01
-3.3714791e-01
-3.0664824e-01
-2.8048613e-01
-2.5972764e-01
-2.4769996e-01
-2.4740577e-01
-2.6019390e-01
-2.7807432e-01
-2.9604467e-01
-3.1164566e-01
-3.2376709e-01
-3.3272714e-01
-3.2964207e-01
-3.0825773e-01
-2.7434606e-01
-2.4410853e-01
-2.2656410e-01
-2.1384055e-01
-2.0215102e-01
-1.9143164e-01
-1.8394451e-01
-1.8464286e-01
-1.8984096e-01
-1.9640068e-01
-2.0092627e-01
-2.0199310e-01
-2.0342194e-01
-2.0135474e-01
-1.9218865e-01
-1.7497689e-01
-1.5286617e-01
-1.3266081e-01
-1.1346546e-01
-9.4842382e-02
-7.6427407e-02
-5.9858618e-02
-4.9213510e-02
-4.1254170e-02
-3.4423125e-02
-2.5854452e-02
-1.3500091e-02
-1.4293815e-03
8.7001505e-03
1.4196571e-02
1.5073318e-02
1.0166672e-02
-4.6971364e-03
-2.6907168e-02
-5.4136849e-02
-8.2733284e-02
-1.1079083e-01
-1.3929218e-01
-1.6445517e-01
-1.8479222e-01
-1.9623751e-01
-1.9830070e-01
-1.9694318e-01
-1.9241417e-01
-1.8631592e-01
-1.7738297e-01
-1.6428059e-01
-1.4842554e-01
-1.2510494e-01
-9.0773574e-02
-4.7654691e-02
-8.5645445e-03
1.8203384e-02
3.7540150e-02
4.9470209e-02
5.6071853e-02
6.0071372e-02
5.8983224e-02
5.5316743e-02
4.9907135e-02
4.3254625e-02
3.5336498e-02
2.5694145e-02
1.9683862e-02
1.7136636e-02
1.6926193e-02
1.8348607e-02
1.9514617e-02
2.3953857e-02
3.1248608e-02
4.1093394e-02
5.3445218e-02
6.6476216e-02
8.2872774e-02
1.0186744e-01
1.2201316e-01
1.4021405e-01
1.5279653e-01
1.6053280e-01
1.6072370e-01
1.5429342e-01
1.4098362e-01
1.1893731e-01
9.3226980e-02
6.5373887e-02
3.8928862e-02
1.5880405e-02
-4.5538262e-03
-1.7498036e-02
-2.2690018e-02
-2.0470870e-02
-1.4556806e-02
-1.0814956e-02
-8.1170751e-03
-7.9481482e-03
-9.0459938e-03
-1.2083016e-02
-2.1772932e-02
-3.5761233e-02
-5.2588313e-02
-6.5674962e-02
-6.9228225e-02
-6.7559678e-02
-6.1993697e-02
-5.2284317e-02
-3.6793943e-02
-1.8709082e-02
-4.8290862e-03
5.9004504e-03
1.5283554e-02
2.6966972e-02
4.1118800e-02
5.3440527e-02
6.4474553e-02
7.5342125e-02
9.0512187e-02
1.0993550e-01
1.2754531e-01
1.4107854e-01
1.4806487e-01
1.5036290e-01
1.4712581e-01
1.3363771e-01
1.1076125e-01
7.9775248e-02
4.7006292e-02
1.6506217e-02
-1.1984827e-02
-3.4992464e-02
-5.1655758e-02
-5.8320040e-02
-5.4350358e-02
-4.3972574e-02
-2.9312824e-02
-1.5559405e-02
-1.9445586e-03
1.2290194e-02
2.3782409e-02
3.3020840e-02
3.9451508e-02
4.7134258e-02
5.7330801e-02
6.7261317e-02
7.8008538e-02
8.6159923e-02
9.1115662e-02
9.1192473e-02
8.1471809e-02
6.0468887e-02
2.1604375e-02
-2.8932477e-02
-7.3616600e-02
-1.0638489e-01
-1.2786004e-01
-1.4210411e-01
-1.4986209e-01
-1.5127722e-01
-1.4755845e-01
-1.3762980e-01
-1.2445325e-01
-1.0888990e-01
-9.3510863e-02
-8.1322799e-02
-7.1876056e-02
-6.8062654e-02
-6.9605836e-02
-7.7882283e-02
-9.4446516e-02
-1.1471291e-01
-1.3523309e-01
-1.5081725e-01
-1.6001264e-01
-1.6080779e-01
-1.4518661e-01
-1.0925610e-01
-5.7854711e-02
-9.7231645e-03
2.4792860e-02
5.0606752e-02
6.8247069e-02
7.9954268e-02
8.4826173e-02
8.0388034e-02
7.0921340e-02
5.8180474e-02
4.6276167e-02
3.5347285e-02
2.1312672e-02
6.1201636e-03
-8.4798684e-03
-1.8272668e-02
-2.4684010e-02
-3.3380568e-02
-4.3939315e-02
-5.6339909e-02
-6.7121574e-02
-7.6593642e-02
-8.7809966e-02
-9.7931332e-02
-1.0586838e-01
-1.0790106e-01
-1.0205698e-01
-8.9928883e-02
-7.2046742e-02
-5.0934405e-02
-2.4761950e-02
5.9829204e-03
3.7023990e-02
6.5739862e-02
8.9136931e-02
1.1050973e-01
1.3044689e-01
1.4586835e-01
1.5501035e-01
1.5422040e-01
1.4725388e-01
1.3703610e-01
1.2366400e-01
1.0827061e-01
8.8956341e-02
7.0325207e-02
5.5086071e-02
4.3412962e-02
3.7314364e-02
3.3725467e-02
3.4599662e-02
4.0689148e-02
4.9230153e-02
5.8545919e-02
6.3145253e-02
6.3545404e-02
6.0943513e-02
5.4956536e-02
4.7725035e-02
3.7928454e-02
2.7785560e-02
1.8279074e-02
8.1715387e-03
-3.1853815e-03
-2.1538888e-02
-4.6115199e-02
-7.1720674e-02
-9.3802064e-02
-1.0922066e-01
-1.2107427e-01
-1.2897141e-01
-1.3240854e-01
-1.3119436e-01
-1.2409440e-01
-1.1429662e-01
-1.0170819e-01
-8.7677551e-02
-7.3065329e-02
-5.6236660e-02
-3.8669811e-02
-1.8222423e-02
2.8538639e-03
2.2297264e-02
4.2987960e-02
6.4494473e-02
8.9390050e-02
1.1545649e-01
1.3819902e-01
1.5689448e-01
1.6853342e-01
1.7496786e-01
1.7609320e-01
1.7212162e-01
1.6632192e-01
1.5673997e-01
1.4470743e-01
1.2864038e-01
1.0517010e-01
7.4014286e-02
3.0451469e-02
-1.7890661e-02
-5.6738617e-02
-8.3822993e-02
-1.0230889e-01
-1.1602422e-01
-1.2445429e-01
-1.2878633e-01
-1.3082456e-01
-1.2929674e-01
-1.2452150e-01
-1.1326723e-01
-9.6768515e-02
-7.8625883e-02
-5.9362580e-02
-4.0933191e-02
-2.1738927e-02
-3.2566528e-03
1.2453481e-02
2.5395015e-02
3.4470775e-02
4.4317939e-02
5.5867191e-02
6.7049583e-02
7.5846884e-02
7.9718167e-02
8.3547531e-02
8.7872718e-02
9.0882460e-02
9.2147297e-02
8.8160711e-02
8.1301861e-02
7.0299442e-02
5.1852714e-02
2.4008795e-02
-1.6971786e-02
-6.5449021e-02
-1.1679204e-01
-1.6798545e-01
-2.1553622e-01
-2.6065458e-01
-2.9798437e-01
-3.2330344e-01
-3.3590798e-01
-3.3693213e-01
-3.3240150e-01
-3.2080560e-01
-2.9881977e-01
-2.6480446e-01
-2.1851403e-01
-1.6234803e-01
-1.0113058e-01
-4.9085501e-02
-1.0112412e-02
2.0425501e-02
4.0445979e-02
5.2895276e-02
6.0469962e-02
6.4740452e-02
6.7234353e-02
6.4853028e-02
5.7141272e-02
4.3477062e-02
2.6805902e-02
1.1166639e-02
-4.0888055e-03
-1.6712180e-02
-2.7003347e-02
-3.3166590e-02
-3.2884863e-02
-2.8566029e-02
-1.8241326e-02
-3.2496278e-03
1.6527879e-02
4.3749535e-02
7.8407108e-02
1.1556995e-01
1.3699120e-01
1.3726096e-01
1.2400017e-01
9.9791335e-02
7.1211709e-02
4.1657844e-02
1.4258972e-02
-6.3372457e-03
-2.0154699e-02
-2.4918433e-02
-2.3452303e-02
-1.9890792e-02
-1.6168718e-02
-1.6098364e-02
-1.7610156e-02
-2.1493787e-02
-2.8484584e-02
-3.5878324e-02
-4.3401935e-02
-4.6980004e-02
-4.5577668e-02
-3.8672933e-02
-2.4764875e-02
-3.7397956e-03
2.5044785e-02
5.2360479e-02
7.2958777e-02
8.8543486e-02
9.8381144e-02
1.0618317e-01
1.1255422e-01
1.1784618e-01
1.2267275e-01
1.2614237e-01
1.3361148e-01
1.4628693e-01
1.6266190e-01
1.7995789e-01
1.9433124e-01
2.0842471e-01
2.2102859e-01
2.2961031e-01
2.3006649e-01
2.1674117e-01
1.9274972e-01
1.6030688e-01
1.2193060e-01
7.8738822e-02
2.7816824e-02
-2.2158587e-02
-6.0421922e-02
-8.2986637e-02
-9.1543215e-02
-9.1775574e-02
-8.3810363e-02
-7.0288189e-02
-5.4467185e-02
-3.9900483e-02
-3.2925855e-02
-3.1758322e-02
-3.4158138e-02
-3.6618535e-02
-3.6085327e-02
-3.4681194e-02
-3.0979223e-02
-2.4397292e-02
-1.2148782e-02
6.0266591e-03
2.3275824e-02
3.7445632e-02
4.7236469e-02
5.4563638e-02
6.1068739e-02
6.3119427e-02
6.0340025e-02
5.2923542e-02
4.5452662e-02
4.0721225e-02
3.5991907e-02
3.1617285e-02
2.4754851e-02
1.6640988e-02
9.4897539e-03
4.5587287e-04
-1.0546416e-02
-2.8664155e-02
-5.5344773e-02
-8.8211882e-02
-1.2824647e-01
-1.7255455e-01
-2.2181985e-01
-2.7299074e-01
-3.2067420e-01
-3.6450166e-01
-4.0053474e-01
-4.2905813e-01
-4.5024383e-01
-4.6372926e-01
-4.7303013e-01
-4.7855165e-01
-4.8494881e-01
-4.9578397e-01
-5.1235530e-01
-5.3641135e-01
-5.6483251e-01
-5.9735625e-01
-6.3105247e-01
-6.6254574e-01
-6.9214730e-01
-7.1752564e-01
-7.4070622e-01
-7.6254340e-01
-7.8336292e-01
-8.0536601e-01
-8.2593227e-01
-8.4374817e-01
-8.5531289e-01
-8.5906214e-01
-8.5570042e-01
-8.3964169e-01
-8.0900319e-01
-7.6208779e-01
-6.9947137e-01
-6.2534266e-01
-5.3884602e-01
-4.4173001e-01
-3.3443426e-01
-2.2051091e-01
-1.0710253e-01
5.3228762e-03
1.1455000e-01
2.2147930e-01
3.2591981e-01
4.2302323e-01
5.1456766e-01
6.0172759e-01
6.8754779e-01
7.7252886e-01
8.5138393e-01
9.2439977e-01
9.9084135e-01
1.0509465e+00
1.1018248e+00
1.1356544e+00
1.1515592e+00
1.1505103e+00
1.1371544e+00
1.1146872e+00
1.0824693e+00
1.0443686e+00
1.0022114e+00
9.5958554e-01
9.1866752e-01
8.7655068e-01
8.3258223e-01
7.8524448e-01
7.3746191e-01
6.9116847e-01
6.4278243e-01
5.9135098e-01
5.3706496e-01
4.8582940e-01
4.3953912e-01
3.9379985e-01
3.4863877e-01
3.0273933e-01
2.5840511e-01
2.1679108e-01
1.7357018e-01
1.2503097e-01
6.3569834e-02
-1.2941743e-02
-1.0509731e-01
-2.1830756e-01
-3.4341088e-01
-4.6006760e-01
-5.5394224e-01
-6.2316877e-01
-6.7034232e-01
-6.9474002e-01
-7.0054135e-01
-6.8775979e-01
-6.5566673e-01
-6.1117792e-01
-5.5878923e-01
-5.0423284e-01
-4.4959231e-01
-3.9584244e-01
-3.4608508e-01
-2.9915389e-01
-2.5685381e-01
-2.1835475e-01
-1.8212988e-01
-1.4913994e-01
-1.1783956e-01
-9.1016528e-02
-6.9017457e-02
-5.1427435e-02
-3.8847793e-02
-2.8189586e-02
-2.0204585e-02
-1.2949203e-02
-4.4417510e-03
5.1144526e-03
1.8139288e-02
3.4093091e-02
5.4780071e-02
7.8135759e-02
9.8754614e-02
1.1669475e-01
1.3032307e-01
1.3983820e-01
1.4297029e-01
1.3674490e-01
1.2481778e-01
1.0917843e-01
9.4448728e-02
8.3533909e-02
7.6645900e-02
7.7973785e-02
8.9027440e-02
1.1506495e-01
1.6010463e-01
2.2308284e-01
2.9433708e-01
3.5196797e-01
3.9067453e-01
4.1444154e-01
4.2282191e-01
4.1995513e-01
4.0859227e-01
3.9443354e-01
3.8013858e-01
3.6320413e-01
3.4441579e-01
3.2402042e-01
3.0539164e-01
2.8844056e-01
2.6852787e-01
2.4405822e-01
2.1372880e-01
1.8312874e-01
1.5612689e-01
1.3073459e-01
1.0720283e-01
8.4843994e-02
6.8279643e-02
5.9768390e-02
5.5372786e-02
5.1925712e-02
4.4886511e-02
3.5746259e-02
2.5085936e-02
1.0460616e-02
-9.4753562e-03
-3.8060813e-02
-7.0293130e-02
-1.0013984e-01
-1.2589954e-01
-1.4742305e-01
-1.6771102e-01
-1.8163167e-01
-1.8431271e-01
-1.7689454e-01
-1.6130257e-01
-1.4305683e-01
-1.2253579e-01
-1.0139551e-01
-8.5767858e-02
-7.9721666e-02
-8.8707868e-02
-1.1139880e-01
-1.4583207e-01
-1.9474136e-01
-2.4864181e-01
-2.8926009e-01
-3.0714428e-01
-3.0563509e-01
-2.8908076e-01
-2.6048776e-01
-2.2728647e-01
-1.9186373e-01
-1.5630233e-01
-1.2429490e-01
-9.5305213e-02
-7.0781010e-02
-4.9156687e-02
-2.9061525e-02
-1.0816142e-02
6.2807959e-03
1.9436911e-02
2.9236518e-02
3.4942331e-02
3.4852115e-02
2.8547509e-02
1.1564306e-02
-1.5008325e-02
-5.0676928e-02
-9.5174175e-02
-1.4357916e-01
-1.9414245e-01
-2.4136898e-01
-2.8185066e-01
-3.1495403e-01
-3.3709348e-01
-3.4849996e-01
-3.4805651e-01
-3.3862331e-01
-3.2629461e-01
-3.1406155e-01
-3.0578842e-01
-2.9987034e-01
-2.9562440e-01
-2.9293643e-01
-2.8771637e-01
-2.7817931e-01
-2.5897811e-01
-2.2872167e-01
-1.9119932e-01
-1.4697622e-01
-9.6023475e-02
-3.4129167e-02
3.9845522e-02
1.2546548e-01
2.1498277e-01
2.8872779e-01
3.4440057e-01
3.8939675e-01
4.2673333e-01
4.5890937e-01
4.8551213e-01
5.1091067e-01
5.3638576e-01
5.5795418e-01
5.7123906e-01
5.7194889e-01
5.6372290e-01
5.4800772e-01
5.2354610e-01
4.9045634e-01
4.4800182e-01
4.0380832e-01
3.6227020e-01
3.2312712e-01
2.8639600e-01
2.4731596e-01
2.0717408e-01
1.6477038e-01
1.1109135e-01
4.7664675e-02
-1.2973788e-02
-6.1580232e-02
-1.0077753e-01
-1.3466248e-01
-1.6360782e-01
-1.9062166e-01
-2.1279810e-01
-2.2750576e-01
-2.3607205e-01
-2.3878159e-01
-2.3898842e-01
-2.3505602e-01
-2.2534412e-01
-2.1178840e-01
-1.9614718e-01
-1.8256880e-01
-1.7037615e-01
-1.5769289e-01
-1.4326935e-01
-1.2646599e-01
-1.1076570e-01
-9.4971558e-02
-7.8684040e-02
-6.3524900e-02
-5.0533031e-02
-4.4238288e-02
-4.5738956e-02
-5.6938892e-02
-7.8454388e-02
-1.0770166e-01
-1.4346450e-01
-1.7960943e-01
-2.1362147e-01
-2.4454289e-01
-2.6906520e-01
-2.8750485e-01
-2.9714296e-01
-2.9836298e-01
-2.9350188e-01
-2.8439133e-01
-2.7485594e-01
-2.6242900e-01
-2.4722147e-01
-2.3023245e-01
-2.0930388e-01
-1.8417757e-01
-1.4781969e-01
-9.4985198e-02
-2.3768940e-02
5.8592597e-02
1.3072425e-01
1.8716627e-01
2.3147552e-01
2.6271686e-01
2.8199542e-01
2.9085351e-01
2.9652735e-01
3.0146291e-01
3.0281694e-01
3.0054375e-01
2.9496583e-01
2.9067723e-01
2.8821763e-01
2.8511613e-01
2.8015195e-01
2.7007010e-01
2.5675104e-01
2.3978105e-01
2.1518927e-01
1.8106177e-01
1.3742440e-01
9.1923565e-02
4.8549502e-02
6.6880095e-03
-3.2898432e-02
-7.0067223e-02
-9.8180281e-02
-1.1356589e-01
-1.1807129e-01
-1.1593192e-01
-1.1368338e-01
-1.0904849e-01
-1.0089990e-01
-9.2145955e-02
-8.5680268e-02
-8.5445034e-02
-8.5941332e-02
-8.2440351e-02
-7.4682761e-02
-6.3940944e-02
-5.5792094e-02
-4.8534485e-02
-3.9858801e-02
-3.1140247e-02
-2.5075269e-02
-2.5864838e-02
-2.9386184e-02
-3.1748348e-02
-3.1449194e-02
-2.7079016e-02
-2.1300559e-02
-1.1451266e-02
4.8799054e-03
2.7586898e-02
5.6222210e-02
8.6111554e-02
1.1649997e-01
1.4695719e-01
1.7724705e-01
2.0768537e-01
2.3367458e-01
2.5426651e-01
2.6885814e-01
2.7730609e-01
2.8097647e-01
2.7773391e-01
2.6909511e-01
2.5514527e-01
2.3646997e-01
2.1498357e-01
1.8759521e-01
1.5440137e-01
1.1166346e-01
5.2973717e-02
-1.4733057e-02
-7.5693523e-02
-1.2197316e-01
-1.5996802e-01
-1.9467467e-01
-2.2622328e-01
-2.5645000e-01
-2.8143372e-01
-3.0065114e-01
-3.1591297e-01
-3.2549202e-01
-3.3093270e-01
-3.2944257e-01
-3.2138621e-01
-3.1234823e-01
-3.0414210e-01
-2.9782479e-01
-2.8940307e-01
-2.7716722e-01
-2.6290386e-01
-2.4483070e-01
-2.2003606e-01
-1.8039265e-01
-1.2228523e-01
-4.6687230e-02
3.7273210e-02
1.0830739e-01
1.6082531e-01
1.9859620e-01
2.2203110e-01
2.3117654e-01
2.2511013e-01
2.0969879e-01
1.8655114e-01
1.5370081e-01
1.1245336e-01
6.4373103e-02
1.7786137e-02
-2.2188076e-02
-5.6141904e-02
-8.4762500e-02
-1.0804251e-01
-1.1925037e-01
-1.1641898e-01
-1.0332024e-01
-8.4915299e-02
-6.7984026e-02
-5.0986840e-02
-3.3261646e-02
-1.7412474e-02
-5.1521160e-03
7.0223221e-04
5.8076516e-03
1.4991431e-02
2.8527967e-02
4.5771515e-02
6.2196426e-02
7.9639290e-02
9.8664783e-02
1.1570480e-01
1.2866457e-01
1.3317845e-01
1.3124987e-01
1.2567375e-01
1.1658578e-01
1.0560413e-01
9.2221004e-02
7.9622405e-02
6.9964187e-02
6.3502749e-02
6.1109743e-02
5.9889898e-02
6.0385674e-02
6.2649819e-02
6.5716932e-02
6.9669695e-02
7.0118603e-02
6.7380239e-02
6.2430311e-02
5.4798357e-02
4.4902231e-02
2.9513243e-02
1.0396018e-02
-1.1518641e-02
-3.5490821e-02
-5.8085079e-02
-7.9291625e-02
-9.5068617e-02
-1.0518169e-01
-1.1070220e-01
-1.0889056e-01
-1.0189436e-01
-8.9750972e-02
-7.6303779e-02
-6.6968915e-02
-6.1769474e-02
-6.2635594e-02
-6.6444751e-02
-7.1294783e-02
-7.7816351e-02
-8.2287678e-02
-8.2810094e-02
-7.5319418e-02
-6.0325920e-02
-4.2734708e-02
-2.4089043e-02
-6.6984291e-03
1.2248061e-02
3.2354953e-02
4.9908980e-02
6.6519491e-02
8.3662928e-02
1.0690623e-01
1.3671395e-01
1.6785554e-01
1.9947292e-01
2.3100647e-01
2.6569401e-01
3.0386273e-01
3.4113951e-01
3.7381714e-01
3.9839262e-01
4.1923290e-01
4.3785556e-01
4.4918479e-01
4.5026827e-01
4.3971546e-01
4.2294851e-01
4.0329773e-01
3.8017612e-01
3.5446028e-01
3.2641724e-01
3.0248055e-01
2.8643226e-01
2.7804734e-01
2.7716173e-01
2.8026075e-01
2.9029489e-01
3.0758220e-01
3.2593229e-01
3.4074254e-01
3.4734007e-01
3.4935771e-01
3.4985143e-01
3.4691021e-01
3.4019004e-01
3.2693815e-01
3.1075546e-01
2.9485564e-01
2.7707204e-01
2.5602635e-01
2.2799673e-01
1.9397323e-01
1.5444147e-01
1.0845898e-01
5.8552229e-02
3.3017670e-03
-5.4318655e-02
-1.1037508e-01
-1.6491857e-01
-2.1615853e-01
-2.6488413e-01
-3.0996589e-01
-3.5126313e-01
-3.9010643e-01
-4.2624569e-01
-4.6338233e-01
-5.0173591e-01
-5.4172165e-01
-5.8442407e-01
-6.2798998e-01
-6.7429768e-01
-7.2148980e-01
-7.6957109e-01
-8.2095543e-01
-8.6939160e-01
-9.0799170e-01
-9.3183979e-01
-9.4308830e-01
-9.4706561e-01
-9.4450483e-01
-9.3958103e-01
-9.3358201e-01
-9.2863576e-01
-9.2830239e-01
-9.3053620e-01
-9.3527417e-01
-9.3871581e-01
-9.3958950e-01
-9.3985935e-01
-9.3605846e-01
-9.2793413e-01
-9.1211698e-01
-8.8704264e-01
-8.5581894e-01
-8.1605772e-01
-7.6481717e-01
-6.9490914e-01
-6.0192469e-01
-4.8617512e-01
-3.5467031e-01
-2.2634716e-01
-1.0559680e-01
1.1124992e-02
1.2146611e-01
2.2553944e-01
3.2166461e-01
4.1196946e-01
4.9629460e-01
5.6831365e-01
6.2385657e-01
6.5805996e-01
6.7188370e-01
6.6644439e-01
6.3948950e-01
5.9391828e-01
5.3460720e-01
4.7228064e-01
4.1507023e-01
3.6497032e-01
3.2565839e-01
2.9952149e-01
2.9409266e-01
3.1443562e-01
3.5984231e-01
4.1969066e-01
4.6988158e-01
5.0539311e-01
5.3237930e-01
5.4986594e-01
5.5938291e-01
5.6046065e-01
5.5651831e-01
5.5051196e-01
5.4024111e-01
5.2703643e-01
5.1062034e-01
4.9387460e-01
4.7934507e-01
4.6475410e-01
4.4992574e-01
4.3219579e-01
4.1262211e-01
3.9216105e-01
3.6876689e-01
3.4410888e-01
3.1484314e-01
2.7859633e-01
2.3240481e-01
1.6987996e-01
1.0009313e-01
3.9832779e-02
-4.6256838e-03
-3.7876540e-02
-6.5403459e-02
-8.8476317e-02
-1.1130245e-01
-1.3379253e-01
-1.5423765e-01
-1.7383235e-01
-1.8999152e-01
-2.0249475e-01
-2.0877508e-01
-2.0728448e-01
-2.0000718e-01
-1.8551097e-01
-1.6690924e-01
-1.4703559e-01
-1.2907688e-01
-1.1732003e-01
-1.0992919e-01
-1.0708261e-01
-1.0661682e-01
-1.0787920e-01
-1.1373862e-01
-1.2034253e-01
-1.2593889e-01
-1.2775662e-01
-1.2520907e-01
-1.2297298e-01
-1.1972550e-01
-1.1554770e-01
-1.0994957e-01
-1.0439517e-01
-1.0336987e-01
-1.0361082e-01
-1.0330162e-01
-9.9981827e-02
-9.3132819e-02
-8.7236712e-02
-7.9993046e-02
-6.9484700e-02
-5.4474541e-02
-3.6667583e-02
-2.1212523e-02
-7.6731056e-03
2.7443306e-03
1.0666533e-02
1.5557131e-02
1.2541578e-02
2.4497945e-03
-1.3143348e-02
-2.9690606e-02
-4.4095717e-02
-5.8575942e-02
-7.2677933e-02
-8.6386212e-02
-9.5338191e-02
-9.7084924e-02
-9.4729015e-02
-8.7959224e-02
-7.8394389e-02
-6.5447755e-02
-5.1184285e-02
-4.2362126e-02
-3.9297787e-02
-4.2365728e-02
-4.8197395e-02
-5.2713416e-02
-5.6638701e-02
-5.8185763e-02
-5.8647142e-02
-5.6594159e-02
-5.0566390e-02
-4.3662936e-02
-3.4923104e-02
-2.6894511e-02
-2.0111250e-02
-1.3184825e-02
-8.1618798e-03
-1.5901363e-03
7.3080388e-03
1.8590805e-02
3.3777998e-02
5.2116979e-02
7.5749212e-02
1.0260460e-01
1.3077464e-01
1.5835447e-01
1.7990808e-01
1.9412996e-01
1.9641464e-01
1.8435071e-01
1.6000889e-01
1.2406470e-01
8.2170587e-02
3.7594555e-02
-6.1164620e-03
-4.5376406e-02
-8.1836507e-02
-1.0930589e-01
-1.2028908e-01
-1.1322342e-01
-9.3668775e-02
-7.1133502e-02
-4.8058560e-02
-2.8006377e-02
-1.3394013e-02
-5.3522637e-03
-5.7866047e-03
-9.4563976e-03
-1.3068940e-02
-1.2980570e-02
-7.1751083e-03
1.7291816e-03
1.5971309e-02
3.3480947e-02
5.1718947e-02
6.9173502e-02
8.0638155e-02
8.7771194e-02
9.2693398e-02
9.9207262e-02
1.1176844e-01
1.3030013e-01
1.5567494e-01
1.8251433e-01
2.0909450e-01
2.3729828e-01
2.6220936e-01
2.8138855e-01
2.9222762e-01
2.9350350e-01
2.8401602e-01
2.6037339e-01
2.2693427e-01
1.8820460e-01
1.4890284e-01
1.1403627e-01
8.3227396e-02
5.8378842e-02
3.9863632e-02
2.9364533e-02
2.7556047e-02
2.9219707e-02
3.2562824e-02
3.2923920e-02
2.6671303e-02
1.2503777e-02
-1.4242353e-02
-4.8417496e-02
-8.0160205e-02
-1.0432146e-01
-1.2117573e-01
-1.3322200e-01
-1.3793610e-01
-1.3592628e-01
-1.2699163e-01
-1.0965808e-01
-8.5985603e-02
-5.4715549e-02
-1.8530424e-02
2.1087312e-02
6.4837359e-02
1.0920379e-01
1.5347264e-01
1.9409574e-01
2.2964235e-01
2.6039711e-01
2.8210037e-01
2.9581881e-01
2.9923071e-01
2.8774103e-01
2.5895512e-01
2.0728496e-01
1.3946763e-01
6.8231946e-02
-1.6481827e-03
-6.9620099e-02
-1.3631725e-01
-1.9748413e-01
-2.5154725e-01
-2.9862481e-01
-3.3728286e-01
-3.6790559e-01
-3.8781402e-01
-3.9853096e-01
-4.0309971e-01
-4.0401034e-01
-4.0593524e-01
-4.0687006e-01
-4.0538391e-01
-4.0095816e-01
-3.9202882e-01
-3.7772860e-01
-3.5042461e-01
-3.0567867e-01
-2.4109940e-01
-1.5353075e-01
-4.1448450e-02
8.4738247e-02
1.9354553e-01
2.7177075e-01
3.2658055e-01
3.6133612e-01
3.8380725e-01
3.9903867e-01
4.1062430e-01
4.2184342e-01
4.2986761e-01
4.3646572e-01
4.4273585e-01
4.4753333e-01
4.4793109e-01
4.3697488e-01
4.1542740e-01
3.8551860e-01
3.4832917e-01
3.0459304e-01
2.5282868e-01
1.9816983e-01
1.4298548e-01
8.6124117e-02
2.6025372e-02
-4.4656721e-02
-1.1743288e-01
-1.7374536e-01
-2.0972578e-01
-2.3197359e-01
-2.4880439e-01
-2.6254122e-01
-2.7536530e-01
-2.8779752e-01
-2.9740820e-01
-3.0487270e-01
-3.0774243e-01
-3.0649249e-01
-3.0148428e-01
-2.9199003e-01
-2.8186002e-01
-2.6974173e-01
-2.5671123e-01
-2.4527872e-01
-2.3354843e-01
-2.2154990e-01
-2.0462167e-01
-1.8014235e-01
-1.4620551e-01
-9.6376989e-02
-2.7212007e-02
5.5530999e-02
1.3014716e-01
1.8528270e-01
2.2585248e-01
2.5245395e-01
2.6738287e-01
2.6967304e-01
2.5637951e-01
2.3016680e-01
1.9353609e-01
1.5246131e-01
1.0978733e-01
6.5763881e-02
2.4738584e-02
-1.1044181e-02
-3.7310295e-02
-5.3095492e-02
-6.1860041e-02
-6.4931673e-02
-6.4398675e-02
-5.9101167e-02
-5.1097637e-02
-4.4100300e-02
-3.5463867e-02
-2.0622070e-02
1.7833560e-03
2.1905013e-02
3.3474112e-02
4.0210544e-02
4.5162072e-02
5.4646268e-02
6.9060009e-02
8.4291908e-02
9.9914501e-02
1.1457290e-01
1.3147326e-01
1.5101397e-01
1.7060994e-01
1.9089519e-01
2.0981420e-01
2.2794389e-01
2.4056470e-01
2.3808313e-01
2.1550475e-01
1.7106053e-01
1.1459760e-01
5.6438703e-02
1.0500122e-03
-4.9092072e-02
-9.9352494e-02
-1.4779341e-01
-1.8900241e-01
-2.2610129e-01
-2.6140936e-01
-2.9581248e-01
-3.2491673e-01
-3.4581074e-01
-3.6041786e-01
-3.6962388e-01
-3.7797647e-01
-3.8541698e-01
-3.9066801e-01
-3.9394148e-01
-3.9202993e-01
-3.8542380e-01
-3.7283055e-01
-3.5480019e-01
-3.3435740e-01
-3.0990070e-01
-2.8176950e-01
-2.4765256e-01
-2.0421325e-01
-1.4914721e-01
-7.7412292e-02
1.5248262e-02
1.1921104e-01
2.0592472e-01
2.6442681e-01
3.0532288e-01
3.3468456e-01
3.5872717e-01
3.7847830e-01
3.9267350e-01
4.0533269e-01
4.1561563e-01
4.2293395e-01
4.2343207e-01
4.1168772e-01
3.9020971e-01
3.6168989e-01
3.3062191e-01
2.9685881e-01
2.5870384e-01
2.2153202e-01
1.8708611e-01
1.5606738e-01
1.2467102e-01
8.6205971e-02
3.9504197e-02
-2.0084966e-02
-8.5484416e-02
-1.4057501e-01
-1.8271299e-01
-2.1256016e-01
-2.3158219e-01
-2.4028104e-01
-2.4160333e-01
-2.4166798e-01
-2.3913383e-01
-2.3279193e-01
-2.2076561e-01
-2.0476201e-01
-1.9072798e-01
-1.7810905e-01
-1.6634618e-01
-1.5338197e-01
-1.3931267e-01
-1.2685556e-01
-1.1297292e-01
-9.5607128e-02
-6.9369759e-02
-3.0131842e-02
2.1279979e-02
8.7119303e-02
1.7005879e-01
2.6408907e-01
3.4678527e-01
4.0362254e-01
4.3759689e-01
4.5182436e-01
4.5264322e-01
4.4323732e-01
4.2309617e-01
3.9701067e-01
3.6764214e-01
3.3934234e-01
3.1404247e-01
2.8898194e-01
2.6542504e-01
2.4215693e-01
2.2033186e-01
1.9919408e-01
1.7348635e-01
1.4364926e-01
1.0875845e-01
7.1529851e-02
3.5154811e-02
-1.2064784e-03
-3.3939217e-02
-6.2880101e-02
-8.6889928e-02
-1.0550347e-01
-1.2262832e-01
-1.3734541e-01
-1.5081352e-01
-1.6317653e-01
-1.7449656e-01
-1.8679715e-01
-1.9708633e-01
-2.0466939e-01
-2.0826523e-01
-2.0782794e-01
-2.0517031e-01
-1.9633385e-01
-1.8050114e-01
-1.5748680e-01
-1.2969661e-01
-1.0270562e-01
-7.5423804e-02
-4.9969454e-02
-2.8964273e-02
-1.4767675e-02
-1.1152307e-02
-1.4316847e-02
-2.1866272e-02
-3.2324575e-02
-4.5318556e-02
-6.1488114e-02
-7.4321766e-02
-8.0463428e-02
-7.9068462e-02
-7.2875280e-02
-6.6564127e-02
-5.7544806e-02
-4.6820936e-02
-3.4594265e-02
-2.2549777e-02
-1.6639196e-02
-1.3291984e-02
-8.6618068e-03
-2.9814359e-04
1.1225492e-02
2.2049480e-02
3.5983814e-02
5.4582095e-02
7.7348342e-02
1.0019163e-01
1.1439247e-01
1.1967710e-01
1.1640295e-01
1.0846552e-01
1.0188766e-01
9.4756765e-02
8.7899612e-02
8.3460716e-02
8.4073557e-02
8.9735781e-02
9.6361977e-02
1.0449964e-01
1.1369152e-01
1.2493731e-01
1.3713628e-01
1.4391782e-01
1.4389053e-01
1.3613169e-01
1.2281772e-01
1.0572154e-01
8.2646168e-02
5.6834746e-02
2.9922117e-02
4.1874114e-03
-1.8503594e-02
-4.1920595e-02
-6.8298142e-02
-1.0285702e-01
-1.4168476e-01
-1.7359179e-01
-1.9954433e-01
-2.2217266e-01
-2.4325618e-01
-2.6157841e-01
-2.7494820e-01
-2.8457751e-01
-2.8707701e-01
-2.8282186e-01
-2.7226782e-01
-2.5527560e-01
-2.3595925e-01
-2.1273568e-01
-1.8604588e-01
-1.5796583e-01
-1.2988388e-01
-1.0386658e-01
-7.5070905e-02
-4.1418296e-02
-2.7847967e-03
4.2423670e-02
9.6318189e-02
1.6676512e-01
2.5682120e-01
3.5459375e-01
4.3587015e-01
4.8599112e-01
5.0733154e-01
4.9909012e-01
4.5901857e-01
3.8686116e-01
2.8659688e-01
1.7444463e-01
6.2760697e-02
-4.3784055e-02
-1.4409071e-01
-2.3821727e-01
-3.1768761e-01
-3.7699006e-01
-4.1560721e-01
-4.3564118e-01
-4.4036386e-01
-4.2565647e-01
-3.9295819e-01
-3.4782235e-01
-2.9596942e-01
-2.4688396e-01
-2.0484178e-01
-1.7797537e-01
-1.6561224e-01
-1.5293534e-01
-1.3622955e-01
-1.1416731e-01
-8.6445296e-02
-5.5469352e-02
-2.4103684e-02
1.8863671e-03
2.6237686e-02
5.3036661e-02
8.2240746e-02
1.1282067e-01
1.4104611e-01
1.7061353e-01
2.0510414e-01
2.4498750e-01
2.8906477e-01
3.3108422e-01
3.6990526e-01
4.0413214e-01
4.2934344e-01
4.4058469e-01
4.3025115e-01
3.9620464e-01
3.3778691e-01
2.6613799e-01
2.0332922e-01
1.5508963e-01
1.2021744e-01
9.9291006e-02
9.2725115e-02
9.8471601e-02
1.0990532e-01
1.2596618e-01
1.4371783e-01
1.5901224e-01
1.7006392e-01
1.7174246e-01
1.6364158e-01
1.4528472e-01
1.1682364e-01
8.2272888e-02
4.3728718e-02
6.7465497e-03
-2.6696330e-02
-5.5743446e-02
-7.6722378e-02
-8.9527458e-02
-9.0198931e-02
-7.6600436e-02
-5.8689501e-02
-5.3695831e-02
-6.8492489e-02
-9.3128585e-02
-1.2213449e-01
-1.5608567e-01
-1.9113857e-01
-2.2433712e-01
-2.5069992e-01
-2.6876197e-01
-2.8154428e-01
-2.8921736e-01
-2.9201341e-01
-2.8626670e-01
-2.7307983e-01
-2.5949331e-01
-2.4912693e-01
-2.4347484e-01
-2.3780717e-01
-2.2940134e-01
-2.1967522e-01
-2.0925431e-01
-1.9842489e-01
-1.8015192e-01
-1.5084487e-01
-1.1441993e-01
-7.5149998e-02
-3.7632417e-02
-3.0508675e-04
3.6509334e-02
6.7369249e-02
8.8310558e-02
9.7391884e-02
1.0087928e-01
1.0345963e-01
1.0493727e-01
1.0621450e-01
1.0640136e-01
1.1041506e-01
1.2072491e-01
1.3352698e-01
1.4667779e-01
1.5602176e-01
1.6208986e-01
1.6487778e-01
1.6065005e-01
1.4762872e-01
1.2111641e-01
8.1514837e-02
2.9202526e-02
-2.8348160e-02
-7.0955784e-02
-9.4890712e-02
-1.0382948e-01
-1.0140946e-01
-9.5826126e-02
-9.1023024e-02
-9.1688422e-02
-9.8490964e-02
-1.1057673e-01
-1.2807987e-01
-1.4796636e-01
-1.7055214e-01
-1.9358204e-01
-2.1352038e-01
-2.2769641e-01
-2.3232693e-01
-2.3007441e-01
-2.2184141e-01
-2.0765709e-01
-1.8926446e-01
-1.6502560e-01
-1.3562729e-01
-9.8418190e-02
-4.9377676e-02
5.2809535e-03
5.1907703e-02
8.3336306e-02
1.0531542e-01
1.2097291e-01
1.2911451e-01
1.3271280e-01
1.3247667e-01
1.3043823e-01
1.2634648e-01
1.1779539e-01
1.0836720e-01
9.9002206e-02
9.2096468e-02
8.9062447e-02
8.8111755e-02
9.1359433e-02
9.7911325e-02
1.0908727e-01
1.2399865e-01
1.3504444e-01
1.3999472e-01
1.3801733e-01
1.3057128e-01
1.1834762e-01
9.8936439e-02
7.4856321e-02
4.8741489e-02
2.6417526e-02
1.0828668e-02
-1.8850227e-03
-1.0768428e-02
-1.4200867e-02
-8.9216902e-03
5.3161033e-03
2.2063450e-02
3.7280861e-02
4.8441623e-02
5.8461980e-02
6.9124293e-02
7.7067614e-02
8.3302935e-02
8.8876689e-02
9.7173879e-02
1.0846913e-01
1.1630106e-01
1.1666170e-01
1.0493551e-01
8.0859400e-02
4.1808390e-02
-8.8019291e-03
-5.1662844e-02
-8.1197814e-02
-9.8547253e-02
-1.0297195e-01
-9.8587111e-02
-8.5947038e-02
-6.8028166e-02
-4.5440929e-02
-1.8237532e-02
8.9662394e-03
3.3474495e-02
4.8967216e-02
5.4479941e-02
5.3022361e-02
4.3659424e-02
2.9262362e-02
1.0474720e-02
-1.0534245e-02
-3.0325035e-02
-4.9245044e-02
-6.4657908e-02
-7.7884682e-02
-9.1638327e-02
-1.0852343e-01
-1.2868404e-01
-1.4363120e-01
-1.5230087e-01
-1.5777202e-01
-1.6166943e-01
-1.6568932e-01
-1.6676873e-01
-1.6605301e-01
-1.6403192e-01
-1.5898131e-01
-1.5168538e-01
-1.4040124e-01
-1.2694917e-01
-1.1307111e-01
-1.0047214e-01
-9.2189652e-02
-8.4974461e-02
-7.8172790e-02
-7.1644480e-02
-6.5173306e-02
-6.0070811e-02
-5.1914795e-02
-3.9386081e-02
-2.2576125e-02
-2.7655500e-03
1.6145627e-02
3.6070141e-02
5.6430407e-02
7.6881099e-02
9.6324611e-02
1.0880524e-01
1.1443856e-01
1.1244309e-01
1.0286339e-01
8.6527712e-02
6.0789294e-02
2.9674929e-02
-2.9708755e-03
-3.3460556e-02
-5.9044252e-02
-8.1671664e-02
-9.7719347e-02
-1.0487301e-01
-1.0219108e-01
-9.0161102e-02
-7.4555121e-02
-5.6147109e-02
-3.5320366e-02
-1.2142850e-02
1.3765021e-02
3.5618611e-02
4.7464903e-02
4.8450575e-02
4.3468018e-02
3.6926782e-02
2.7139425e-02
1.5021012e-02
1.0948830e-03
-1.2378060e-02
-2.2756790e-02
-3.3115174e-02
-4.3826330e-02
-5.5587407e-02
-6.6275741e-02
-7.3022183e-02
-7.7747757e-02
-7.8389634e-02
-7.5544846e-02
-6.9272772e-02
-5.6605353e-02
-3.8331892e-02
-1.2986500e-02
1.7681848e-02
5.3670168e-02
9.9319974e-02
1.4773913e-01
1.8788478e-01
2.1228601e-01
2.1930770e-01
2.1144773e-01
1.8980777e-01
1.6006446e-01
1.2487338e-01
8.5826375e-02
4.7903362e-02
1.2916888e-02
-1.4464185e-02
-3.4062206e-02
-4.8560598e-02
-5.7295805e-02
-6.1890805e-02
-6.2261128e-02
-6.2447993e-02
-6.6786119e-02
-7.4577837e-02
-8.5256538e-02
-9.3699708e-02
-9.8526032e-02
-1.0175868e-01
-1.0287508e-01
-1.0217371e-01
-9.6189004e-02
-8.4938415e-02
-7.1574140e-02
-5.7876923e-02
-4.5897127e-02
-3.3022621e-02
-2.0369578e-02
-1.0385443e-02
-3.0221599e-03
6.9899218e-04
4.9142310e-03
9.7690895e-03
1.3183289e-02
1.5347414e-02
1.4310238e-02
1.3780041e-02
1.3706385e-02
1.0790735e-02
4.8149163e-03
-6.6860256e-03
-2.0100800e-02
-3.0688159e-02
-3.3020526e-02
-1.9444464e-02
2.1342183e-03
1.8137686e-02
2.5863283e-02
2.9537480e-02
3.3593870e-02
3.8707846e-02
4.8028946e-02
6.2517817e-02
7.9929430e-02
9.8626266e-02
1.1437198e-01
1.2892067e-01
1.4475832e-01
1.6143675e-01
1.7928156e-01
1.9583641e-01
2.1156156e-01
2.2551046e-01
2.3622859e-01
2.4383847e-01
2.4310841e-01
2.3063270e-01
2.0216905e-01
1.5282183e-01
7.8855091e-02
-1.0518492e-02
-8.6125874e-02
-1.3745238e-01
-1.7079751e-01
-1.8727789e-01
-1.8991691e-01
-1.7972755e-01
-1.6101420e-01
-1.3880172e-01
-1.1304882e-01
-8.6272037e-02
-6.0051032e-02
-3.9868007e-02
-3.0770913e-02
-3.0288725e-02
-3.7323032e-02
-4.8203549e-02
-6.2125502e-02
-7.9542264e-02
-9.4619527e-02
-1.0409195e-01
-1.0349059e-01
-9.2282411e-02
-7.3904870e-02
-4.6337163e-02
-1.4145913e-02
1.3703059e-02
3.0458045e-02
3.2620919e-02
2.3559329e-02
6.7131995e-03
-1.1596555e-02
-2.7901422e-02
-4.3588517e-02
-5.4868267e-02
-5.9682865e-02
-5.6442478e-02
-4.6840997e-02
-3.5709343e-02
-2.3855648e-02
-1.3048910e-02
-1.1969935e-03
1.1840655e-02
2.1840401e-02
2.7848235e-02
2.9853707e-02
3.2999196e-02
3.7649930e-02
3.8285579e-02
3.2527502e-02
2.0660967e-02
1.2158922e-02
1.0049586e-02
8.1963567e-03
3.1428487e-03
-1.0445931e-02
-3.1114945e-02
-5.7958484e-02
-9.4740780e-02
-1.3910561e-01
-1.8942728e-01
-2.4169435e-01
-2.9281363e-01
-3.4356169e-01
-3.9241299e-01
-4.4034112e-01
-4.8559270e-01
-5.2842087e-01
-5.7205638e-01
-6.1519475e-01
-6.5961043e-01
-7.0257922e-01
-7.3951996e-01
-7.6888958e-01
-7.8249021e-01
-7.7862409e-01
-7.6197878e-01
-7.3462252e-01
-6.9640539e-01
-6.4364352e-01
-5.7726101e-01
-4.9775849e-01
-4.0599697e-01
-3.0556059e-01
-1.9502788e-01
-7.5848743e-02
5.0062129e-02
1.8038172e-01
3.1182842e-01
4.4685385e-01
5.8565745e-01
7.2753482e-01
8.6795018e-01
1.0012572e+00
1.1282098e+00
1.2431454e+00
1.3376367e+00
1.3996981e+00
1.4141194e+00
1.3717491e+00
1.2866524e+00
1.1987207e+00
1.1207683e+00
1.0424889e+00
9.6527045e-01
8.8939660e-01
8.1488139e-01
7.3864391e-01
6.5656389e-01
5.7435496e-01
4.9276103e-01
4.0947821e-01
3.2191966e-01
2.2531285e-01
1.2242281e-01
1.7012588e-02
-8.4254848e-02
-1.7636195e-01
-2.5949383e-01
-3.2963047e-01
-3.8679081e-01
-4.3127681e-01
-4.6324734e-01
-4.8503162e-01
-4.9378634e-01
-4.9304627e-01
-4.8915261e-01
-4.8615121e-01
-4.8791797e-01
-4.8969093e-01
-4.8591883e-01
-4.7063592e-01
-4.4023919e-01
-3.9837554e-01
-3.4686534e-01
-2.8935131e-01
-2.2880849e-01
-1.7167690e-01
-1.2862233e-01
-1.0158819e-01
-9.0111944e-02
-9.1432266e-02
-1.0351218e-01
-1.2551793e-01
-1.4830786e-01
-1.6434697e-01
-1.6687075e-01
-1.5066200e-01
-1.1466546e-01
-5.4195898e-02
2.0605031e-02
8.9830003e-02
1.4420058e-01
1.7916445e-01
1.9435744e-01
1.8827633e-01
1.6294875e-01
1.2397698e-01
7.4125531e-02
2.0478372e-02
-3.3755111e-02
-8.5244483e-02
-1.2866346e-01
-1.6340604e-01
-1.8637092e-01
-1.9918097e-01
-2.0545199e-01
-2.0671976e-01
-2.0581444e-01
-1.9939045e-01
-1.8639312e-01
-1.6677600e-01
-1.3759882e-01
-9.6597178e-02
-3.5735729e-02
3.8179455e-02
1.0306937e-01
1.4814140e-01
1.7376629e-01
1.8668914e-01
1.8951199e-01
1.8258144e-01
1.6713105e-01
1.4233706e-01
1.1387708e-01
8.5888382e-02
5.9660060e-02
3.5495156e-02
1.3010860e-02
-2.2225798e-03
-8.6327259e-03
-8.4190522e-03
-6.0601319e-03
-6.9024808e-03
-7.1242466e-03
-4.9846242e-03
-7.3761878e-04
6.8039396e-03
1.7181903e-02
3.7402417e-02
6.7011089e-02
9.6373244e-02
1.2039014e-01
1.3582750e-01
1.4689414e-01
1.5725223e-01
1.6711457e-01
1.7528093e-01
1.7731753e-01
1.7801732e-01
1.8220277e-01
1.8951459e-01
1.9940199e-01
2.0858254e-01
2.1930899e-01
2.3283290e-01
2.4633265e-01
2.5662522e-01
2.5667339e-01
2.4479041e-01
2.2176443e-01
1.8894941e-01
1.4919819e-01
1.0186647e-01
5.0444136e-02
-5.7111574e-04
-4.7048394e-02
-8.6362979e-02
-1.2088687e-01
-1.4879835e-01
-1.6970600e-01
-1.8489002e-01
-1.9591812e-01
-2.0774961e-01
-2.1924074e-01
-2.3060270e-01
-2.4267848e-01
-2.5320574e-01
-2.6295804e-01
-2.6791113e-01
-2.6687357e-01
-2.6216115e-01
-2.5293457e-01
-2.4053369e-01
-2.2316248e-01
-2.0246002e-01
-1.8153428e-01
-1.5825904e-01
-1.3387609e-01
-1.0635400e-01
-7.5552748e-02
-4.5174055e-02
-1.5554185e-02
1.2379447e-02
4.1515798e-02
7.0652457e-02
9.5133732e-02
1.1433865e-01
1.2557980e-01
1.2925101e-01
1.2396910e-01
1.0628271e-01
7.7837488e-02
4.1859337e-02
6.5592918e-03
-2.4247177e-02
-5.2202093e-02
-7.5042776e-02
-9.0557335e-02
-9.4448977e-02
-8.7018344e-02
-7.4610844e-02
-6.2457843e-02
-5.3909611e-02
-4.4920664e-02
-3.4992508e-02
-2.8537236e-02
-2.5472543e-02
-2.4419198e-02
-1.9245059e-02
-8.3085645e-03
4.8290915e-03
1.9240089e-02
3.2115658e-02
4.5486092e-02
6.0169309e-02
7.2700928e-02
8.1732229e-02
8.4227394e-02
8.4106137e-02
8.5492788e-02
8.7495628e-02
9.1012799e-02
9.4028172e-02
9.8777808e-02
1.0603537e-01
1.1192585e-01
1.1436599e-01
1.0779887e-01
9.2734346e-02
7.2180335e-02
4.4870545e-02
1.2935022e-02
-2.1696280e-02
-5.4435326e-02
-8.1347005e-02
-1.0220185e-01
-1.1559009e-01
-1.2410975e-01
-1.2887762e-01
-1.3078440e-01
-1.3214883e-01
-1.3150444e-01
-1.3078171e-01
-1.3051901e-01
-1.2926339e-01
-1.2572833e-01
-1.1695661e-01
-1.0464238e-01
-8.8453149e-02
-6.8951003e-02
-4.8766098e-02
-2.6903840e-02
-6.4185359e-03
1.1650128e-02
2.6285359e-02
3.4738217e-02
3.9700001e-02
4.2587353e-02
4.6467738e-02
5.2455405e-02
5.8364913e-02
6.7235935e-02
8.0027716e-02
9.7279259e-02
1.1731885e-01
1.3629231e-01
1.5572269e-01
1.7427296e-01
1.9141221e-01
2.0436428e-01
2.0630210e-01
1.9783518e-01
1.8017269e-01
1.5739844e-01
1.3184854e-01
9.9682513e-02
6.2893108e-02
2.3275698e-02
-1.7148254e-02
-5.3318400e-02
-7.9889235e-02
-9.3185544e-02
-9.6642853e-02
-9.1749725e-02
-8.0868107e-02
-7.0869442e-02
-6.2848640e-02
-5.6982894e-02
-5.1360245e-02
-4.4397298e-02
-3.8155599e-02
-3.1076537e-02
-2.2588687e-02
-1.1164485e-02
3.1970297e-03
1.6002028e-02
2.5511839e-02
3.0119365e-02
3.2132292e-02
3.2375918e-02
2.7392165e-02
1.9543043e-02
9.7190807e-03
-7.7914282e-05
-7.2071960e-03
-1.2225470e-02
-1.2980835e-02
-1.1105224e-02
-6.4253293e-03
2.2580812e-03
1.1931747e-02
2.2160198e-02
2.9488889e-02
3.2284102e-02
3.0155843e-02
2.0177694e-02
4.2587244e-03
-1.8412814e-02
-4.5812600e-02
-7.2290533e-02
-9.7415966e-02
-1.1863197e-01
-1.3481254e-01
-1.4397934e-01
-1.4381542e-01
-1.3652363e-01
-1.2116025e-01
-1.0218993e-01
-8.6666726e-02
-7.6240765e-02
-7.1348071e-02
-6.9578043e-02
-7.2074109e-02
-7.9092113e-02
-8.7254325e-02
-9.4822434e-02
-9.7200999e-02
-9.3902676e-02
-8.7130597e-02
-7.8768046e-02
-7.1523158e-02
-6.2931847e-02
-5.3990751e-02
-4.5985539e-02
-3.8024411e-02
-3.0430719e-02
-1.8010855e-02
-3.6597914e-04
1.9307191e-02
3.8299104e-02
5.3614925e-02
6.9939099e-02
8.8669145e-02
1.0772060e-01
1.2560687e-01
1.3899839e-01
1.4996991e-01
1.5879095e-01
1.6437875e-01
1.6514363e-01
1.5538401e-01
1.3608642e-01
1.0914221e-01
7.6924595e-02
4.2688319e-02
4.4817900e-03
-3.3947621e-02
-6.8192967e-02
-9.5379797e-02
-1.1364978e-01
-1.2618022e-01
-1.3182730e-01
-1.3121254e-01
-1.2742829e-01
-1.2289988e-01
-1.2263300e-01
-1.2630003e-01
-1.3267704e-01
-1.3991605e-01
-1.4545228e-01
-1.5078576e-01
-1.5322740e-01
-1.5071069e-01
-1.4249557e-01
-1.2847110e-01
-1.1274934e-01
-9.5810453e-02
-7.9339090e-02
-6.3688820e-02
-4.6600747e-02
-3.0335370e-02
-1.3046620e-02
6.1388103e-03
2.7974676e-02
5.6010040e-02
8.8655109e-02
1.2505183e-01
1.6128360e-01
1.9476638e-01
2.2720399e-01
2.5689985e-01
2.8470471e-01
3.0788193e-01
3.2473651e-01
3.3492238e-01
3.3121901e-01
3.1533249e-01
2.9180810e-01
2.6391615e-01
2.3739308e-01
2.1374124e-01
1.9616549e-01
1.8322333e-01
1.7033625e-01
1.5734233e-01
1.4320576e-01
1.2962228e-01
1.1461526e-01
9.4024786e-02
6.9651975e-02
4.4307983e-02
2.3663791e-02
7.9815308e-03
-7.2489722e-03
-2.2800579e-02
-3.9905758e-02
-5.7324133e-02
-7.8410538e-02
-1.0969899e-01
-1.4770727e-01
-1.8381828e-01
-2.1061578e-01
-2.2894758e-01
-2.4301849e-01
-2.5264801e-01
-2.5788173e-01
-2.5475084e-01
-2.4296275e-01
-2.2751467e-01
-2.1081041e-01
-1.9642028e-01
-1.8405620e-01
-1.7481223e-01
-1.7142560e-01
-1.7315065e-01
-1.8016922e-01
-1.8772741e-01
-1.9357060e-01
-1.9931373e-01
-2.0459586e-01
-2.1210375e-01
-2.2076632e-01
-2.3301058e-01
-2.5666730e-01
-2.8579360e-01
-3.0599499e-01
-3.1035924e-01
-3.0367258e-01
-2.9206491e-01
-2.7667767e-01
-2.6034045e-01
-2.4202519e-01
-2.2174999e-01
-2.0146760e-01
-1.7833202e-01
-1.5337639e-01
-1.2661519e-01
-9.8650516e-02
-7.1549566e-02
-4.3612764e-02
-1.6595020e-02
1.0202307e-02
3.7523280e-02
6.4422438e-02
9.3723209e-02
1.2434118e-01
1.5584664e-01
1.8696857e-01
2.1532792e-01
2.4324379e-01
2.7101217e-01
2.9771015e-01
3.1754724e-01
3.2551392e-01
3.2404294e-01
3.1364443e-01
2.9576382e-01
2.6973681e-01
2.3605908e-01
2.0119834e-01
1.6791554e-01
1.3958928e-01
1.1616477e-01
9.5316948e-02
8.0035279e-02
6.9535399e-02
6.2449305e-02
5.4363049e-02
3.9559303e-02
2.0512898e-02
-2.8219500e-04
-1.9249867e-02
-3.6361372e-02
-5.4875416e-02
-7.2226295e-02
-8.6590061e-02
-9.4006600e-02
-9.5023420e-02
-9.6345796e-02
-9.8348292e-02
-1.0093674e-01
-1.0248005e-01
-1.0344234e-01
-1.0741008e-01
-1.1179326e-01
-1.1467901e-01
-1.1298246e-01
-1.0646385e-01
-9.9576782e-02
-9.1846259e-02
-8.2875685e-02
-6.8857552e-02
-4.8042550e-02
-2.4364258e-02
2.1268255e-03
3.1358597e-02
6.5888605e-02
1.0595028e-01
1.5004883e-01
1.9292950e-01
2.1851507e-01
2.2473475e-01
2.1779566e-01
2.0034334e-01
1.8011289e-01
1.6149350e-01
1.4891463e-01
1.4262350e-01
1.3774965e-01
1.3414357e-01
1.2811085e-01
1.1849444e-01
1.0593403e-01
8.8124713e-02
6.6673963e-02
4.1402382e-02
1.6851710e-02
-2.6598373e-03
-1.8689198e-02
-2.8414773e-02
-3.2432690e-02
-3.2202847e-02
-3.0132833e-02
-3.0867792e-02
-3.3237294e-02
-3.8183268e-02
-4.5358645e-02
-5.4128898e-02
-6.5447694e-02
-7.4356364e-02
-7.9134752e-02
-7.9224607e-02
-7.5193658e-02
-7.0026983e-02
-6.2592378e-02
-5.4899813e-02
-4.7901191e-02
-4.2875534e-02
-4.3542579e-02
-4.8241017e-02
-5.8184844e-02
-7.4214621e-02
-9.6636090e-02
-1.2578664e-01
-1.5376883e-01
-1.7401890e-01
-1.8081127e-01
-1.7013004e-01
-1.3862668e-01
-8.7857160e-02
-3.5439328e-02
1.1150466e-02
5.2851239e-02
8.6602285e-02
1.1620814e-01
1.4254612e-01
1.6567837e-01
1.8406488e-01
1.9342723e-01
1.9815798e-01
2.0256597e-01
2.0999900e-01
2.1976711e-01
2.2680503e-01
2.3438177e-01
2.4406625e-01
2.5484537e-01
2.6386219e-01
2.6472875e-01
2.5794022e-01
2.4405027e-01
2.2229204e-01
1.8939539e-01
1.3762399e-01
7.5903061e-02
2.4518243e-02
-8.4022338e-03
-2.8368043e-02
-4.4434270e-02
-5.9851695e-02
-7.7270459e-02
-9.6779225e-02
-1.1879058e-01
-1.4690737e-01
-1.7685980e-01
-2.0401604e-01
-2.2410090e-01
-2.3534815e-01
-2.4125580e-01
-2.4102130e-01
-2.3563057e-01
-2.2472381e-01
-2.0877931e-01
-1.9334991e-01
-1.7900503e-01
-1.6751818e-01
-1.5820298e-01
-1.4816638e-01
-1.3743268e-01
-1.2268113e-01
-1.0532770e-01
-8.6400826e-02
-6.4598771e-02
-4.2743488e-02
-2.0089665e-02
2.0737742e-03
2.2970080e-02
4.3148795e-02
5.9987934e-02
7.6243950e-02
9.2672336e-02
1.0925466e-01
1.2741433e-01
1.4609679e-01
1.6899223e-01
1.9565012e-01
2.2180978e-01
2.4533255e-01
2.6372274e-01
2.7788251e-01
2.8365371e-01
2.7454388e-01
2.4714101e-01
1.9753850e-01
1.3473039e-01
7.4139251e-02
2.2433422e-02
-2.0993360e-02
-5.8230690e-02
-8.4825018e-02
-9.9002439e-02
-1.0285990e-01
-9.9651420e-02
-9.4013264e-02
-8.3585877e-02
-6.8473429e-02
-5.2677014e-02
-4.1028086e-02
-3.6898353e-02
-3.4254583e-02
-2.9470452e-02
-2.2613325e-02
-1.4519878e-02
-7.6776793e-03
9.5053761e-04
1.1629266e-02
2.2567927e-02
3.0573452e-02
2.9075875e-02
2.4032284e-02
2.4629083e-02
3.1305885e-02
4.0298798e-02
4.6857114e-02
5.3924350e-02
6.4279149e-02
7.7494041e-02
9.2069665e-02
1.0309840e-01
1.1128096e-01
1.1662757e-01
1.1744140e-01
1.1121525e-01
9.0985701e-02
5.8279238e-02
1.8635058e-02
-2.3118587e-02
-6.2535598e-02
-9.8805366e-02
-1.2635780e-01
-1.3984406e-01
-1.3547081e-01
-1.1017864e-01
-6.4127929e-02
-4.6116275e-03
4.7663624e-02
8.1799999e-02
9.9100199e-02
9.8335885e-02
8.3509455e-02
5.8737673e-02
2.7908701e-02
-4.3106786e-03
-3.6631236e-02
-6.4365648e-02
-8.6590674e-02
-1.0430608e-01
-1.1764559e-01
-1.3096835e-01
-1.4422098e-01
-1.5820984e-01
-1.7410730e-01
-1.9172460e-01
-2.1326377e-01
-2.3518404e-01
-2.5706036e-01
-2.7969427e-01
-3.0067601e-01
-3.2250641e-01
-3.4292496e-01
-3.6116342e-01
-3.8001029e-01
-3.9930122e-01
-4.2061945e-01
-4.4043766e-01
-4.5718709e-01
-4.7313180e-01
-4.8651950e-01
-4.9409078e-01
-4.8822982e-01
-4.6538157e-01
-4.2709447e-01
-3.7402530e-01
-3.0705310e-01
-2.2320776e-01
-1.2540883e-01
-2.2680040e-02
7.5740955e-02
1.5951776e-01
2.2507224e-01
2.6501850e-01
2.6546625e-01
2.1215195e-01
8.8193147e-02
-7.5081600e-02
-2.0614015e-01
-2.8008276e-01
-3.1102549e-01
-3.1140943e-01
-2.8604205e-01
-2.4094369e-01
-1.8380971e-01
-1.2000382e-01
-5.6188313e-02
9.8850044e-03
7.8753212e-02
1.4722246e-01
2.1422921e-01
2.7577171e-01
3.3481632e-01
3.9258421e-01
4.4542789e-01
4.8846319e-01
5.1115435e-01
5.1067384e-01
4.8343446e-01
4.1962959e-01
3.0950509e-01
1.3810805e-01
-6.7397382e-02
-2.4307651e-01
-3.6501015e-01
-4.4336137e-01
-4.9101210e-01
-5.1406451e-01
-5.1781977e-01
-5.1000764e-01
-4.9521565e-01
-4.8018081e-01
-4.6559265e-01
-4.5031067e-01
-4.3249355e-01
-4.0805362e-01
-3.7770553e-01
-3.3744496e-01
-2.8509038e-01
-2.2228950e-01
-1.4868805e-01
-6.8190016e-02
1.7996611e-02
1.0696466e-01
1.9509273e-01
2.8150132e-01
3.6199510e-01
4.3867517e-01
5.1107075e-01
5.7622707e-01
6.3636091e-01
6.9105826e-01
7.4345193e-01
7.9206108e-01
8.3340708e-01
8.6936110e-01
8.9713636e-01
9.1749191e-01
9.2919008e-01
9.2863799e-01
9.1689308e-01
8.9421813e-01
8.6721651e-01
8.3707360e-01
8.0029749e-01
7.6005288e-01
7.1730911e-01
6.7765262e-01
6.4265223e-01
6.0623851e-01
5.6477260e-01
5.1377140e-01
4.6042239e-01
4.1394503e-01
3.7306511e-01
3.3543108e-01
2.9851548e-01
2.6649751e-01
2.4102457e-01
2.1857879e-01
1.9840512e-01
1.7870794e-01
1.6337021e-01
1.5269234e-01
1.4179188e-01
1.2818961e-01
1.0913913e-01
9.0554008e-02
7.5830950e-02
6.1324241e-02
4.5480060e-02
2.7779024e-02
1.5324344e-02
1.2254508e-02
1.9538639e-02
4.0783560e-02
7.5081310e-02
1.1613770e-01
1.4516728e-01
1.5064470e-01
1.3377530e-01
9.2218245e-02
3.3343070e-02
-3.4638245e-02
-1.0918912e-01
-1.8650817e-01
-2.6570077e-01
-3.3744818e-01
-3.9398217e-01
-4.3499077e-01
-4.5846968e-01
-4.6688895e-01
-4.5892847e-01
-4.3540122e-01
-4.0226311e-01
-3.6305829e-01
-3.2452208e-01
-2.8719037e-01
-2.5037863e-01
-2.1547614e-01
-1.7928007e-01
-1.4082003e-01
-1.0121829e-01
-6.8036502e-02
-4.4905711e-02
-2.6970945e-02
-1.4823945e-02
-7.0442201e-03
-3.1698407e-03
-4.6937758e-03
-1.0650004e-02
-2.2613743e-02
-3.7022295e-02
-5.2974755e-02
-7.2569253e-02
-9.3074298e-02
-1.1423708e-01
-1.3309925e-01
-1.5050337e-01
-1.6968681e-01
-1.8755885e-01
-2.0488104e-01
-2.2156869e-01
-2.3970619e-01
-2.6128519e-01
-2.7987218e-01
-2.8938642e-01
-2.9190934e-01
-3.0431619e-01
-3.3437903e-01
-3.7226239e-01
-4.1074052e-01
-4.4039232e-01
-4.5726181e-01
-4.6549835e-01
-4.6533265e-01
-4.5766418e-01
-4.4004171e-01
-4.1339689e-01
-3.8370062e-01
-3.5120549e-01
-3.1600020e-01
-2.7453126e-01
-2.2657132e-01
-1.7755247e-01
-1.2792798e-01
-7.6629542e-02
-1.8801778e-02
4.6452505e-02
1.1428494e-01
1.8258549e-01
2.5047735e-01
3.2010465e-01
3.8601835e-01
4.3994290e-01
4.8074080e-01
5.0729671e-01
5.2423255e-01
5.3348625e-01
5.3248465e-01
5.2138919e-01
4.9904195e-01
4.7098799e-01
4.3945285e-01
4.0058635e-01
3.5277498e-01
2.9253865e-01
2.2498535e-01
1.5528959e-01
8.2905551e-02
8.6752860e-03
-7.0070989e-02
-1.4915721e-01
-2.2394637e-01
-2.9451633e-01
-3.5982694e-01
-4.2458065e-01
-4.8384501e-01
-5.2782947e-01
-5.5730561e-01
-5.7582149e-01
-5.8843564e-01
-5.9390575e-01
-5.9072887e-01
-5.8091133e-01
-5.6380457e-01
-5.4272649e-01
-5.1637127e-01
-4.8226795e-01
-4.4155561e-01
-3.9399748e-01
-3.4342611e-01
-2.8966209e-01
-2.3203141e-01
-1.7251969e-01
-1.1055411e-01
-4.8682786e-02
1.2636022e-02
7.0758763e-02
1.2198714e-01
1.6618194e-01
1.9899989e-01
2.2563478e-01
2.5576311e-01
2.9025077e-01
3.2728184e-01
3.6148707e-01
3.9064886e-01
4.0971099e-01
4.1319450e-01
4.0316899e-01
3.7955709e-01
3.4747558e-01
3.0961053e-01
2.6537447e-01
2.1883638e-01
1.7002645e-01
1.2344606e-01
8.0311806e-02
3.6414544e-02
-7.4951405e-03
-5.2768615e-02
-9.7199026e-02
-1.4193632e-01
-1.9166955e-01
-2.4313533e-01
-2.9278473e-01
-3.3333064e-01
-3.6008813e-01
-3.7422145e-01
-3.7460658e-01
-3.6125857e-01
-3.3046892e-01
-2.8366696e-01
-2.2819030e-01
-1.6718359e-01
-1.0412906e-01
-3.7115380e-02
3.4114330e-02
1.0488966e-01
1.7242772e-01
2.3347628e-01
2.9122289e-01
3.4650752e-01
3.9572882e-01
4.3850424e-01
4.7329516e-01
5.0432108e-01
5.3387672e-01
5.5867923e-01
5.7430775e-01
5.7357181e-01
5.5855291e-01
5.3006305e-01
4.8488900e-01
4.2446352e-01
3.4863660e-01
2.6511064e-01
1.8061949e-01
9.5997770e-02
1.3853405e-02
-6.5829751e-02
-1.3577776e-01
-1.9059974e-01
-2.3265336e-01
-2.6556691e-01
-2.9726282e-01
-3.2830344e-01
-3.5920802e-01
-3.9394313e-01
-4.3214232e-01
-4.7506154e-01
-5.1840927e-01
-5.5841848e-01
-5.9550941e-01
-6.2923420e-01
-6.6437742e-01
-6.9678723e-01
-7.1801028e-01
-7.2838307e-01
-7.3144929e-01
-7.3364566e-01
-7.3432699e-01
-7.3222988e-01
-7.2895765e-01
-7.2358518e-01
-7.1879197e-01
-7.1279585e-01
-7.0456976e-01
-6.9399460e-01
-6.7753428e-01
-6.5584434e-01
-6.2583720e-01
-5.8828089e-01
-5.4791910e-01
-5.0568170e-01
-4.6581060e-01
-4.2843207e-01
-3.9341212e-01
-3.5853874e-01
-3.1575413e-01
-2.5926957e-01
-1.8943057e-01
-1.2202487e-01
-6.4841573e-02
-9.5111244e-03
4.7873058e-02
1.1302750e-01
1.8608395e-01
2.6052750e-01
3.3331726e-01
3.9975332e-01
4.6015916e-01
5.1376794e-01
5.5697974e-01
5.9133252e-01
6.1878547e-01
6.4646453e-01
6.7676563e-01
7.0565283e-01
7.3145660e-01
7.5171301e-01
7.6916841e-01
7.8102618e-01
7.7802010e-01
7.5326498e-01
6.9849785e-01
6.2449786e-01
5.5281892e-01
4.8920647e-01
4.3033086e-01
3.7347361e-01
3.2482637e-01
2.8790710e-01
2.5928761e-01
2.3472522e-01
2.0787546e-01
1.8065576e-01
1.5250563e-01
1.1921101e-01
8.0341568e-02
3.4968712e-02
-8.9708146e-03
-4.5787359e-02
-7.4718184e-02
-9.3957975e-02
-1.0619012e-01
-1.0622718e-01
-8.9746016e-02
-5.9074900e-02
-1.7456937e-02
2.8316957e-02
7.4219651e-02
1.1136825e-01
1.3423201e-01
1.4471038e-01
1.4068197e-01
1.2726310e-01
1.0861470e-01
8.4043061e-02
5.5029650e-02
2.0482101e-02
-1.6049387e-02
-5.2586932e-02
-8.8757636e-02
-1.2290149e-01
-1.5833218e-01
-1.9357503e-01
-2.2708810e-01
-2.5725059e-01
-2.8105414e-01
-3.0027657e-01
-3.1179043e-01
-3.1283752e-01
-3.0107246e-01
-2.7328744e-01
-2.3024741e-01
-1.7950177e-01
-1.4226564e-01
-1.2639152e-01
-1.2348879e-01
-1.2939175e-01
-1.3736873e-01
-1.4383801e-01
-1.4523829e-01
-1.3649865e-01
-1.1779692e-01
-8.5237018e-02
-3.9180400e-02
1.6668088e-02
8.1087300e-02
1.5078270e-01
2.2839288e-01
3.1183129e-01
3.9489442e-01
4.7501002e-01
5.4661168e-01
6.0759655e-01
6.5024212e-01
6.6231448e-01
6.3404223e-01
5.5172589e-01
4.3828219e-01
3.4566160e-01
2.9014831e-01
2.5914570e-01
2.4182811e-01
2.3667687e-01
2.3920840e-01
2.4186251e-01
2.4040412e-01
2.3192234e-01
2.2156732e-01
2.0940695e-01
1.9123386e-01
1.6460462e-01
1.2536282e-01
7.6168468e-02
1.7794523e-02
-4.9799840e-02
-1.2343482e-01
-1.9971685e-01
-2.6744361e-01
-3.1819865e-01
-3.4620175e-01
-3.4529739e-01
-3.0927476e-01
-2.4235502e-01
-1.7346497e-01
-1.1709145e-01
-7.0659191e-02
-3.7873139e-02
-1.4553424e-02
2.5100125e-03
1.3707747e-02
1.8457535e-02
1.2483884e-02
2.5947053e-03
-4.0334706e-03
-4.9947912e-03
-1.1012396e-04
6.0886390e-03
1.5749963e-02
3.0072914e-02
4.8023646e-02
6.6921725e-02
7.9157522e-02
8.4644947e-02
8.4710653e-02
8.0360917e-02
7.1014649e-02
5.0195177e-02
2.4337379e-02
6.6037178e-03
2.2251384e-03
8.5793575e-03
1.8325534e-02
2.9651310e-02
3.9630341e-02
4.5446160e-02
4.4755069e-02
3.3000504e-02
1.4120557e-02
-8.7936059e-03
-3.2197120e-02
-5.2260290e-02
-7.0315607e-02
-8.1576415e-02
-8.4039831e-02
-7.7143949e-02
-6.0381019e-02
-3.8104557e-02
-1.0781642e-02
1.5838695e-02
3.7081208e-02
5.1830809e-02
5.5871065e-02
5.2717466e-02
4.4019933e-02
3.1250472e-02
1.7246529e-02
5.4622755e-04
-1.3681831e-02
-2.4644337e-02
-3.4943189e-02
-4.4913877e-02
-5.7152789e-02
-6.8342983e-02
-7.9219322e-02
-9.1980661e-02
-1.0612184e-01
-1.2344736e-01
-1.3810543e-01
-1.4743243e-01
-1.5255247e-01
-1.5343376e-01
-1.5148230e-01
-1.4229570e-01
-1.2555269e-01
-1.0312725e-01
-7.6767491e-02
-4.9586670e-02
-2.3378297e-02
-7.3742697e-03
-5.2726584e-03
-1.6522589e-02
-4.0866900e-02
-6.8456022e-02
-9.3516242e-02
-1.1389307e-01
-1.2919672e-01
-1.4009456e-01
-1.4051918e-01
-1.3030914e-01
-1.1293111e-01
-9.4827026e-02
-8.3495897e-02
-7.5465488e-02
-6.9263778e-02
-6.4347933e-02
-6.1949207e-02
-6.5380108e-02
-6.7551654e-02
-6.3739069e-02
-5.0789924e-02
-2.7283721e-02
3.7123572e-03
4.0645527e-02
7.5037917e-02
1.0433301e-01
1.2824181e-01
1.4141968e-01
1.4743407e-01
1.4875841e-01
1.4867155e-01
1.4893262e-01
1.4605459e-01
1.4328377e-01
1.4239980e-01
1.4547997e-01
1.5157615e-01
1.5416275e-01
1.5217596e-01
1.4305360e-01
1.2752112e-01
1.0550137e-01
7.2790703e-02
3.3201686e-02
-9.2832731e-03
-4.8487095e-02
-8.0785610e-02
-1.0884704e-01
-1.3023820e-01
-1.4340580e-01
-1.4521171e-01
-1.3662669e-01
-1.2375654e-01
-1.0694537e-01
-8.9659775e-02
-7.2350052e-02
-5.5029477e-02
-3.9951794e-02
-2.3702577e-02
-7.4490225e-03
1.0109564e-02
2.9543973e-02
4.6738074e-02
6.4189917e-02
8.1478027e-02
9.8928353e-02
1.1697351e-01
1.3336615e-01
1.5164692e-01
1.7175739e-01
1.9423411e-01
2.1891189e-01
2.4259390e-01
2.6727356e-01
2.9018098e-01
3.0950906e-01
3.2418408e-01
3.3104534e-01
3.3240240e-01
3.2743999e-01
3.1701056e-01
3.0185642e-01
2.8201483e-01
2.6383294e-01
2.4987684e-01
2.4238222e-01
2.4051936e-01
2.4136328e-01
2.4759180e-01
2.5799061e-01
2.7192091e-01
2.8555842e-01
2.9292473e-01
2.9434306e-01
2.8702010e-01
2.6939556e-01
2.3558658e-01
1.7711711e-01
1.0657163e-01
4.5140891e-02
8.1932952e-04
-3.3218115e-02
-6.6649747e-02
-1.0211800e-01
-1.4228805e-01
-1.8708623e-01
-2.3977162e-01
-3.0603471e-01
-3.8331173e-01
-4.6941958e-01
-5.5918235e-01
-6.4969154e-01
-7.4103690e-01
-8.2690138e-01
-9.0206160e-01
-9.5920239e-01
-9.9506578e-01
-1.0108515e+00
-9.9999081e-01
-9.5206621e-01
-8.5005157e-01
-6.7607193e-01
-4.1059973e-01
-8.8687967e-02
1.9240675e-01
4.0077807e-01
5.5870430e-01
6.7924502e-01
7.7620546e-01
8.5908981e-01
9.3821135e-01
1.0174422e+00
1.0931192e+00
1.1624517e+00
1.2220689e+00
1.2749210e+00
1.3211120e+00
1.3561490e+00
1.3768767e+00
1.3784366e+00
1.3636417e+00
1.3328581e+00
1.2813179e+00
1.2062708e+00
1.1016989e+00
9.6715883e-01
8.0038790e-01
5.9452208e-01
3.6720602e-01
1.5518494e-01
-2.1655564e-02
-1.6658543e-01
-2.8649903e-01
-3.8466055e-01
-4.6685189e-01
-5.3407445e-01
-5.8684767e-01
-6.2756043e-01
-6.5642852e-01
-6.7798998e-01
-6.9341123e-01
-7.0420974e-01
-7.1299397e-01
-7.1933035e-01
-7.2534277e-01
-7.3032057e-01
-7.3561716e-01
-7.4221343e-01
-7.4836516e-01
-7.5679860e-01
-7.6794160e-01
-7.8489543e-01
-8.1116551e-01
-8.3980251e-01
-8.5865943e-01
-8.6115141e-01
-8.5233440e-01
-8.3551789e-01
-8.1031340e-01
-7.7974944e-01
-7.4240279e-01
-7.0000036e-01
-6.5433536e-01
-6.0288050e-01
-5.4732290e-01
-4.8785085e-01
-4.2913377e-01
-3.7507582e-01
-3.2466897e-01
-2.8003883e-01
-2.3904648e-01
-2.0277696e-01
-1.7175854e-01
-1.4056567e-01
-1.0543004e-01
-5.9052378e-02
1.0236111e-03
7.6017799e-02
1.6028815e-01
2.3456432e-01
2.9410043e-01
3.4135381e-01
3.7546641e-01
3.9607516e-01
4.0120449e-01
3.9510583e-01
3.7969137e-01
3.5643161e-01
3.2932813e-01
3.0001300e-01
2.7409554e-01
2.5378016e-01
2.3998714e-01
2.3288603e-01
2.2991327e-01
2.3333855e-01
2.4050552e-01
2.4779605e-01
2.5203545e-01
2.4935095e-01
2.4464736e-01
2.3953460e-01
2.3402021e-01
2.2836323e-01
2.2164283e-01
2.1954363e-01
2.2395196e-01
2.3614224e-01
2.5469195e-01
2.7356456e-01
2.9486689e-01
3.1910492e-01
3.4606446e-01
3.7383001e-01
3.9608464e-01
4.1466651e-01
4.3189953e-01
4.5008079e-01
4.6966735e-01
4.8514914e-01
4.9572341e-01
5.0085492e-01
5.0122629e-01
4.9549397e-01
4.7691782e-01
4.4438323e-01
3.9852122e-01
3.4331042e-01
2.8255641e-01
2.1539155e-01
1.4453969e-01
7.3137967e-02
8.7339840e-03
-4.3938643e-02
-8.7917873e-02
-1.2328976e-01
-1.5191231e-01
-1.7300545e-01
-1.8766679e-01
-2.0229941e-01
-2.1795866e-01
-2.3498509e-01
-2.4919394e-01
-2.5674307e-01
-2.5751260e-01
-2.4813430e-01
-2.2946371e-01
-1.9827585e-01
-1.5038667e-01
-8.6485614e-02
-4.0190420e-03
9.7517334e-02
2.2490187e-01
3.6682695e-01
4.8804475e-01
5.7599442e-01
6.3302373e-01
6.6445415e-01
6.7656440e-01
6.7053666e-01
6.4830044e-01
6.0858840e-01
5.5329652e-01
4.8276803e-01
3.9233557e-01
2.7927423e-01
1.3878776e-01
-2.8680465e-02
-2.1916251e-01
-4.2789827e-01
-6.4684490e-01
-8.6990235e-01
-1.0846449e+00
-1.2758695e+00
-1.4262390e+00
-1.5107421e+00
-1.5033019e+00
-1.3706563e+00
-1.1465451e+00
-9.3673223e-01
-7.8106530e-01
-6.6341541e-01
-5.7477044e-01
-5.1271020e-01
-4.7650998e-01
-4.5911662e-01
-4.5356580e-01
-4.5028890e-01
-4.4437858e-01
-4.3536971e-01
-4.1986628e-01
-3.9683574e-01
-3.6207429e-01
-3.1398899e-01
-2.5444779e-01
-1.8330632e-01
-1.0378453e-01
-1.6194918e-02
7.5154109e-02
1.6186653e-01
2.4009029e-01
3.0651588e-01
3.6200636e-01
4.0451076e-01
4.3004101e-01
4.3825338e-01
4.2789011e-01
4.0226348e-01
3.6199406e-01
3.0528147e-01
2.3602566e-01
1.6029572e-01
8.8641552e-02
2.7747427e-02
-2.2047198e-02
-6.2234953e-02
-9.4639926e-02
-1.1328611e-01
-1.1408213e-01
-9.9558385e-02
-7.4792181e-02
-4.5258173e-02
-8.8687879e-03
3.4071670e-02
7.9156821e-02
1.2264301e-01
1.6180570e-01
2.0117966e-01
2.4306468e-01
2.8687348e-01
3.2987238e-01
3.6726341e-01
4.0127101e-01
4.3115816e-01
4.5369865e-01
4.6472104e-01
4.5807629e-01
4.3744544e-01
4.0676229e-01
3.6790097e-01
3.2267252e-01
2.7021361e-01
2.1683863e-01
1.6900709e-01
1.3143093e-01
1.0634928e-01
9.1529206e-02
9.0883616e-02
1.0674612e-01
1.3940192e-01
1.8726835e-01
2.4505280e-01
3.1543081e-01
3.9047746e-01
4.5214293e-01
4.9561401e-01
5.2191399e-01
5.3334427e-01
5.3156304e-01
5.1978307e-01
4.9922163e-01
4.6550140e-01
4.1838581e-01
3.5710038e-01
2.8262894e-01
1.9542896e-01
9.3865502e-02
-1.6310007e-02
-1.3021019e-01
-2.4153609e-01
-3.4449872e-01
-4.3767274e-01
-5.1557777e-01
-5.7654449e-01
-6.1837845e-01
-6.3790654e-01
-6.3494288e-01
-6.0418849e-01
-5.5742770e-01
-5.1934509e-01
-4.9797625e-01
-4.9038055e-01
-4.9062085e-01
-4.9491398e-01
-4.9841548e-01
-4.9683891e-01
-4.9032300e-01
-4.7726021e-01
-4.5827738e-01
-4.3224905e-01
-3.9884871e-01
-3.6043473e-01
-3.1609395e-01
-2.6902947e-01
-2.2185807e-01
-1.7605843e-01
-1.3460390e-01
-9.6379909e-02
-6.2950983e-02
-3.6786504e-02
-2.1637459e-02
-2.1892829e-02
-3.8339368e-02
-6.3161509e-02
-7.6396310e-02
-7.4667803e-02
-6.8284432e-02
-5.9048243e-02
-4.9913563e-02
-4.2520554e-02
-3.9518136e-02
-4.3886150e-02
-5.1863304e-02
-6.2148926e-02
-7.3005465e-02
-8.5042970e-02
-1.0067658e-01
-1.1645339e-01
-1.3134478e-01
-1.4318563e-01
-1.5226949e-01
-1.6170304e-01
-1.6825870e-01
-1.6870891e-01
-1.5718384e-01
-1.3134940e-01
-9.2795398e-02
-3.6585515e-02
3.2449007e-02
1.0061771e-01
1.5878418e-01
2.0241989e-01
2.3290060e-01
2.5217434e-01
2.6408114e-01
2.7024552e-01
2.6853437e-01
2.6018482e-01
2.4658059e-01
2.3263273e-01
2.2073054e-01
2.0923347e-01
1.9828073e-01
1.8639395e-01
1.7647553e-01
1.6921355e-01
1.6155032e-01
1.5260600e-01
1.4087918e-01
1.3007865e-01
1.2168114e-01
1.1405720e-01
1.0719911e-01
9.9107112e-02
9.3439746e-02
9.1936798e-02
9.2697454e-02
9.4874207e-02
9.4665288e-02
9.4009359e-02
9.3912936e-02
9.2845481e-02
9.0432126e-02
8.1422152e-02
6.5689068e-02
4.5713654e-02
2.1870150e-02
-6.0689571e-03
-4.2169170e-02
-8.6527103e-02
-1.3883683e-01
-1.9907373e-01
-2.6385948e-01
-3.3115028e-01
-3.9407917e-01
-4.4443262e-01
-4.7302391e-01
-4.6796670e-01
-4.4167732e-01
-4.2534208e-01
-4.2980431e-01
-4.4629396e-01
-4.6796700e-01
-4.9446706e-01
-5.2401725e-01
-5.5527036e-01
-5.8642765e-01
-6.1378267e-01
-6.3599483e-01
-6.4883168e-01
-6.4785358e-01
-6.2925988e-01
-5.9185205e-01
-5.3818662e-01
-4.6812090e-01
-3.8564720e-01
-2.9451149e-01
-1.9522477e-01
-9.1161491e-02
1.6351297e-02
1.2373057e-01
2.2981223e-01
3.3684238e-01
4.4360855e-01
5.5119835e-01
6.5769179e-01
7.6085933e-01
8.5986403e-01
9.4980887e-01
1.0274022e+00
1.0854979e+00
1.1172274e+00
1.1202965e+00
1.0914425e+00
1.0304811e+00
9.3585385e-01
8.0885914e-01
6.5569943e-01
4.8238396e-01
3.0019007e-01
1.2022707e-01
-4.6729014e-02
-1.9299288e-01
-3.1749141e-01
-4.1855706e-01
-5.0065786e-01
-5.7076000e-01
-6.3574788e-01
-6.9445255e-01
-7.3034191e-01
-7.3751433e-01
-7.1949169e-01
-6.8029567e-01
-6.2597422e-01
-5.5801837e-01
-4.8077817e-01
-3.9805570e-01
-3.1386921e-01
-2.3489715e-01
-1.6155037e-01
-9.4250813e-02
-3.2422177e-02
2.3321865e-02
7.0106463e-02
1.1140564e-01
1.4883915e-01
1.8468191e-01
2.2023305e-01
2.5241151e-01
2.8406647e-01
3.1803415e-01
3.5799307e-01
4.0772584e-01
4.5559324e-01
4.8360387e-01
4.8742494e-01
4.7545196e-01
4.5354885e-01
4.2328950e-01
3.9026672e-01
3.5845406e-01
3.3162268e-01
3.1085599e-01
2.9156473e-01
2.7142047e-01
2.4928276e-01
2.2823467e-01
2.0945721e-01
1.8957060e-01
1.6816102e-01
1.4487966e-01
1.2392321e-01
1.0830453e-01
9.5296297e-02
8.4364305e-02
7.3908719e-02
6.6229421e-02
6.3426615e-02
6.1077138e-02
5.6298542e-02
4.6639710e-02
3.4525652e-02
2.3228082e-02
1.2647247e-02
3.4288242e-03
-8.6510836e-03
-2.5017994e-02
-4.7107285e-02
-8.1285144e-02
-1.3116492e-01
-1.9904012e-01
-2.7885395e-01
-3.5907353e-01
-4.2976984e-01
-4.8148946e-01
-5.1093860e-01
-5.1569028e-01
-4.9633895e-01
-4.5918208e-01
-4.0792784e-01
-3.4664070e-01
-2.7707690e-01
-1.9970825e-01
-1.2076451e-01
-4.9547714e-02
8.8845754e-03
5.7922883e-02
1.0074297e-01
1.3996148e-01
1.8043850e-01
2.2307822e-01
2.6973055e-01
3.1963591e-01
3.6782463e-01
4.1151083e-01
4.4736817e-01
4.7480896e-01
4.9167562e-01
4.9539769e-01
4.8799690e-01
4.7038920e-01
4.4606469e-01
4.1566809e-01
3.7763706e-01
3.3301471e-01
2.7748843e-01
2.0589952e-01
1.0985327e-01
-5.5526787e-03
-1.1550769e-01
-2.0995143e-01
-2.8824475e-01
-3.5115983e-01
-4.0281435e-01
-4.4242370e-01
-4.6959210e-01
-4.8171352e-01
-4.7885928e-01
-4.6589783e-01
-4.4586656e-01
-4.2202121e-01
-3.9355478e-01
-3.6167590e-01
-3.3147819e-01
-3.0364592e-01
-2.7654644e-01
-2.4614957e-01
-2.1208638e-01
-1.7770609e-01
-1.4547621e-01
-1.1871863e-01
