-4.1526613e-03
1.8976036e-03
6.2194491e-03
9.0978360e-03
1.0494765e-02
1.0114774e-02
8.9397473e-03
7.3829653e-03
5.5456192e-03
4.4214965e-03
5.1194668e-03
7.4749066e-03
9.9413342e-03
1.2137449e-02
1.4676795e-02
1.8568851e-02
2.3415632e-02
2.7023127e-02
2.9500125e-02
3.1751760e-02
3.3734027e-02
3.4933189e-02
3.4155762e-02
3.1238033e-02
2.5700108e-02
1.7807629e-02
1.0049139e-02
3.2645299e-03
-2.6047261e-03
-6.8937859e-03
-9.5948489e-03
-1.1817503e-02
-1.4290845e-02
-1.6273565e-02
-1.7333680e-02
-1.7830611e-02
-1.8581098e-02
-1.9419789e-02
-1.9282036e-02
-1.8349746e-02
-1.6756667e-02
-1.5278334e-02
-1.4893077e-02
-1.4888161e-02
-1.4733388e-02
-1.3854903e-02
-1.2427887e-02
-1.1009806e-02
-9.0717416e-03
-6.6532661e-03
-3.9280562e-03
-8.0684133e-04
3.0816381e-03
7.8875782e-03
1.2623454e-02
1.7576641e-02
2.2987889e-02
2.7264143e-02
3.0654094e-02
3.4028359e-02
3.6652966e-02
3.7531847e-02
3.6779066e-02
3.5242761e-02
3.2295962e-02
2.8373580e-02
2.4643301e-02
2.0350318e-02
1.5076136e-02
8.8707660e-03
2.5348188e-03
-3.0310701e-03
-7.3907218e-03
-1.0347783e-02
-1.3054567e-02
-1.5577727e-02
-1.7020439e-02
-1.7839720e-02
-1.9206397e-02
-2.2127203e-02
-2.5409034e-02
-2.7119473e-02
-2.7663056e-02
-2.7511810e-02
-2.6483281e-02
-2.4223035e-02
-2.0681524e-02
-1.6776103e-02
-1.3051054e-02
-9.5240652e-03
-5.6583093e-03
-1.2098842e-03
3.3037139e-03
6.8951705e-03
8.8278121e-03
1.0202442e-02
1.1584853e-02
1.3250925e-02
1.6338227e-02
2.0104137e-02
2.3920355e-02
2.7841733e-02
3.0908601e-02
3.2160405e-02
3.0822192e-02
2.7689066e-02
2.3961954e-02
1.9392788e-02
1.3668329e-02
6.7729721e-03
-3.6501708e-04
-7.2005008e-03
-1.3332450e-02
-1.7527971e-02
-1.9947678e-02
-2.0769133e-02
-2.0098625e-02
-1.8871310e-02
-1.8198344e-02
-1.8934801e-02
-2.0030961e-02
-2.0408736e-02
-2.0134718e-02
-1.9218625e-02
-1.7733197e-02
-1.5963334e-02
-1.4355825e-02
-1.2669491e-02
-1.0665539e-02
-9.3854911e-03
-9.0344699e-03
-8.9501746e-03
-8.6601738e-03
-7.6196591e-03
-6.2446198e-03
-4.1399539e-03
-8.0960274e-04
3.1820692e-03
7.1437441e-03
1.0803230e-02
1.5011354e-02
1.9609153e-02
2.3866672e-02
2.7753971e-02
3.0811806e-02
3.2479484e-02
3.2381587e-02
3.0032885e-02
2.4865369e-02
1.7463374e-02
9.6302737e-03
2.0193846e-03
-5.6211602e-03
-1.3009383e-02
-1.9301415e-02
-2.3311888e-02
-2.5534477e-02
-2.7489692e-02
-2.8665802e-02
-2.8134020e-02
-2.7249005e-02
-2.8158324e-02
-2.9986411e-02
-3.0952260e-02
-3.1266874e-02
-3.1256209e-02
-3.0891734e-02
-2.9481975e-02
-2.7040167e-02
-2.4284449e-02
-2.0571808e-02
-1.5634206e-02
-1.0518185e-02
-6.2908776e-03
-2.2634190e-03
3.2134680e-03
9.6774420e-03
1.5572693e-02
2.0206487e-02
2.3991824e-02
2.7917258e-02
3.2259896e-02
3.5803026e-02
3.7178782e-02
3.7146438e-02
3.6467904e-02
3.4570070e-02
3.1725866e-02
2.7902247e-02
2.2302354e-02
1.5463426e-02
8.7950209e-03
3.1464566e-03
-1.5743846e-03
-5.3929270e-03
-7.8907523e-03
-9.5588740e-03
-1.1313358e-02
-1.4372513e-02
-1.9502273e-02
-2.5242659e-02
-3.0297927e-02
-3.4370933e-02
-3.7306429e-02
-3.9237932e-02
-4.0639346e-02
-4.2078973e-02
-4.2766205e-02
-4.1613520e-02
-3.8929771e-02
-3.5920283e-02
-3.2993686e-02
-3.0058305e-02
-2.7521223e-02
-2.5127648e-02
-2.2436357e-02
-1.9558078e-02
-1.6584964e-02
-1.3775847e-02
-1.1204009e-02
-9.0070125e-03
-6.8821189e-03
-3.1263358e-03
3.5085901e-03
1.4269969e-02
2.7561493e-02
3.7702041e-02
4.2635543e-02
4.4237605e-02
4.4486374e-02
4.3476763e-02
3.9883210e-02
3.4666351e-02
2.9560150e-02
2.5301372e-02
2.2161336e-02
1.9583823e-02
1.6752186e-02
1.3301727e-02
9.4028723e-03
4.9572437e-03
-2.8544264e-04
-5.2352802e-03
-8.8391537e-03
-1.0799448e-02
-1.0376885e-02
-7.7294755e-03
-4.2796024e-03
-9.5874468e-04
3.2916500e-03
9.0636278e-03
1.4646203e-02
1.9545131e-02
2.4084662e-02
2.8362725e-02
3.3471867e-02
3.9365528e-02
4.3654559e-02
4.4787442e-02
4.4349580e-02
4.3375839e-02
4.1487016e-02
3.8313409e-02
3.3119244e-02
2.7408826e-02
2.2207945e-02
1.6394294e-02
1.0210300e-02
4.2405383e-03
-9.3032633e-04
-5.6644855e-03
-1.0923797e-02
-1.6356917e-02
-2.2117754e-02
-2.7932346e-02
-3.2328088e-02
-3.4473105e-02
-3.4954015e-02
-3.4184968e-02
-3.1344463e-02
-2.7304269e-02
-2.3428084e-02
-1.9635866e-02
-1.6074158e-02
-1.2251516e-02
-7.6047398e-03
-2.3451806e-03
3.8639345e-03
1.1471291e-02
1.9950936e-02
2.7817859e-02
3.4659497e-02
4.1315909e-02
4.7287019e-02
5.1719952e-02
5.4358979e-02
5.5022003e-02
5.3530819e-02
4.9635730e-02
4.2624023e-02
3.1556458e-02
1.8617490e-02
6.4682776e-03
-5.4903637e-03
-1.7115362e-02
-2.6882826e-02
-3.3633374e-02
-3.7483269e-02
-3.9829844e-02
-4.0767423e-02
-3.9747310e-02
-3.7087319e-02
-3.4117762e-02
-3.1605904e-02
-2.9161857e-02
-2.7108152e-02
-2.5438727e-02
-2.3895437e-02
-2.2837262e-02
-2.2002991e-02
-2.0637415e-02
-1.8582074e-02
-1.7052698e-02
-1.6782573e-02
-1.6873786e-02
-1.6636877e-02
-1.5102251e-02
-1.2566315e-02
-1.0605759e-02
-8.6675770e-03
-5.9649164e-03
-3.0785512e-03
1.0694342e-05
4.2351267e-03
9.5779668e-03
1.5120474e-02
2.0769677e-02
2.5945914e-02
3.0271407e-02
3.3955041e-02
3.5158789e-02
3.2847509e-02
2.7965402e-02
2.1250535e-02
1.3561442e-02
5.4806253e-03
-2.2361387e-03
-9.1017231e-03
-1.5392488e-02
-2.0935856e-02
-2.4898528e-02
-2.6941181e-02
-2.9117019e-02
-3.1925077e-02
-3.3693537e-02
-3.4690101e-02
-3.5220595e-02
-3.4997552e-02
-3.4159209e-02
-3.3309147e-02
-3.2884900e-02
-3.1982638e-02
-3.0483949e-02
-2.8525467e-02
-2.5077707e-02
-2.1047086e-02
-1.7579420e-02
-1.4492922e-02
-1.2365003e-02
-1.0675796e-02
-7.7631463e-03
-3.0129683e-03
3.4893521e-03
1.1646943e-02
2.0811355e-02
2.9389631e-02
3.6613728e-02
4.1671352e-02
4.3737558e-02
4.3911511e-02
4.3336268e-02
4.2150475e-02
3.9318903e-02
3.4839846e-02
3.0005046e-02
2.4918986e-02
1.9620771e-02
1.4602695e-02
1.0285334e-02
6.1180699e-03
1.5098757e-03
-2.6891526e-03
-6.0600990e-03
-8.2472757e-03
-8.6010618e-03
-8.0451137e-03
-7.1962662e-03
-6.0285445e-03
-5.1895263e-03
-4.4579684e-03
-3.0912058e-03
-1.1748234e-03
-2.2065366e-04
-1.2350485e-03
-3.2261181e-03
-4.9445553e-03
-5.3684973e-03
-5.0497742e-03
-5.2594755e-03
-5.5221183e-03
-5.1862124e-03
-4.2706445e-03
-3.2349185e-03
-2.9365782e-03
-3.2551454e-03
-3.6987803e-03
-5.3407485e-03
-8.7733381e-03
-1.2469142e-02
-1.5975894e-02
-2.0053945e-02
-2.5427729e-02
-3.2681310e-02
-4.0210133e-02
-4.6970636e-02
-5.2954189e-02
-5.7086060e-02
-5.9776187e-02
-6.1487939e-02
-6.2920584e-02
-6.4973708e-02
-6.6902017e-02
-6.9357711e-02
-7.2449471e-02
-7.5366772e-02
-7.8508034e-02
-8.1514785e-02
-8.5039160e-02
-8.9913900e-02
-9.4965154e-02
-9.9640047e-02
-1.0410607e-01
-1.0810224e-01
-1.1109100e-01
-1.1258232e-01
-1.1174164e-01
-1.0721270e-01
-9.9041547e-02
-8.7716965e-02
-7.3225723e-02
-5.5409413e-02
-3.3878817e-02
-9.7915197e-03
1.5262046e-02
3.9353267e-02
6.0525139e-02
7.8975129e-02
9.4689433e-02
1.0777767e-01
1.1892230e-01
1.2764719e-01
1.3331078e-01
1.3543511e-01
1.3477345e-01
1.3230127e-01
1.2798519e-01
1.2197045e-01
1.1394831e-01
1.0419170e-01
9.3760203e-02
8.3559297e-02
7.3745317e-02
6.3688988e-02
5.4519178e-02
4.6925724e-02
4.0410370e-02
3.5225571e-02
3.0568623e-02
2.6293789e-02
2.2951000e-02
2.0075209e-02
1.7664993e-02
1.6335989e-02
1.6656211e-02
1.8012427e-02
1.9304238e-02
2.0188852e-02
2.0634190e-02
2.0992945e-02
2.1216844e-02
2.0699913e-02
1.9059800e-02
1.6274532e-02
1.2941911e-02
9.3670011e-03
6.0893810e-03
3.7406157e-03
1.4643678e-03
-9.9994002e-04
-3.8237439e-03
-7.3505838e-03
-1.0626485e-02
-1.3444278e-02
-1.5613994e-02
-1.6930972e-02
-1.7851242e-02
-1.8270266e-02
-1.8651673e-02
-1.9319042e-02
-2.0206034e-02
-2.1191813e-02
-2.1935562e-02
-2.3192717e-02
-2.4793712e-02
-2.5574010e-02
-2.4656867e-02
-2.2639167e-02
-2.1282306e-02
-1.9836120e-02
-1.7950627e-02
-1.5630494e-02
-1.2148793e-02
-7.9344440e-03
-2.6829918e-03
3.7051920e-03
1.1313101e-02
1.9733146e-02
2.7228897e-02
3.3165990e-02
3.7039595e-02
3.8650221e-02
3.8970024e-02
3.8643910e-02
3.7821615e-02
3.5668383e-02
3.2375104e-02
2.7940122e-02
2.1133526e-02
1.3199674e-02
5.4520539e-03
-1.3959797e-03
-6.0425372e-03
-8.7855647e-03
-1.0522035e-02
-1.1621047e-02
-1.2269289e-02
-1.2598860e-02
-1.2263762e-02
-1.1433482e-02
-1.1995007e-02
-1.3764280e-02
-1.5020997e-02
-1.5424230e-02
-1.5320149e-02
-1.5907995e-02
-1.6628529e-02
-1.6359780e-02
-1.5914459e-02
-1.5653388e-02
-1.5654164e-02
-1.5601879e-02
-1.5333038e-02
-1.4493347e-02
-1.2350308e-02
-9.8572242e-03
-7.1258999e-03
-3.6718009e-03
-9.4190503e-06
3.1768419e-03
5.3673235e-03
7.8283072e-03
1.1383276e-02
1.5498982e-02
1.9635326e-02
2.2965318e-02
2.5828384e-02
2.7944207e-02
2.8709858e-02
2.8979596e-02
2.8079361e-02
2.4745610e-02
1.9205173e-02
1.3060248e-02
7.9914289e-03
3.5506315e-03
-2.8657634e-04
-2.8249976e-03
-4.2649249e-03
-4.4342954e-03
-4.0652022e-03
-4.5162115e-03
-6.2924236e-03
-8.5894307e-03
-1.0781137e-02
-1.3294157e-02
-1.5296246e-02
-1.6520968e-02
-1.7043835e-02
-1.6987275e-02
-1.8084043e-02
-2.0596321e-02
-2.3558333e-02
-2.5418567e-02
-2.5044443e-02
-2.3377712e-02
-2.0649345e-02
-1.6953632e-02
-1.2488170e-02
-7.8179325e-03
-4.4268503e-03
-1.5238722e-03
1.5118429e-03
4.0257253e-03
5.9286252e-03
7.3042319e-03
9.4702810e-03
1.2431845e-02
1.4667276e-02
1.6088789e-02
1.7006403e-02
1.8150726e-02
1.9495838e-02
2.0576622e-02
2.0915314e-02
1.9324270e-02
1.6562524e-02
1.3628448e-02
1.0833083e-02
8.2823022e-03
4.9562600e-03
1.1729496e-03
-2.1347058e-03
-4.3012612e-03
-5.1540507e-03
-6.0265053e-03
-7.0333980e-03
-8.0728045e-03
-9.5093078e-03
-1.1083688e-02
-1.2574351e-02
-1.3656384e-02
-1.4612231e-02
-1.5221257e-02
-1.5054900e-02
-1.4774718e-02
-1.4715726e-02
-1.4228489e-02
-1.2158059e-02
-8.7260872e-03
-5.5528194e-03
-3.1289200e-03
-7.7686665e-04
2.6048239e-03
6.1398301e-03
8.4435498e-03
1.0746733e-02
1.3696541e-02
1.7053464e-02
2.0500865e-02
2.3384437e-02
2.5021475e-02
2.4615353e-02
2.2912067e-02
2.0817587e-02
1.8180053e-02
1.4785803e-02
1.0083347e-02
5.3585321e-03
1.9346143e-03
-7.4341312e-04
-2.6504728e-03
-4.6748253e-03
-7.1402773e-03
-9.0254916e-03
-1.0284484e-02
-1.0843321e-02
-1.1071219e-02
-1.1299570e-02
-1.1407194e-02
-1.1429442e-02
-1.1689107e-02
-1.2465636e-02
-1.2680378e-02
-1.2152085e-02
-1.1343439e-02
-1.0562781e-02
-1.0390713e-02
-9.7438665e-03
-8.4031535e-03
-6.5163729e-03
-3.8066481e-03
-1.3206169e-03
8.6247639e-04
2.6349767e-03
4.6160253e-03
8.1798353e-03
1.2281826e-02
1.6120894e-02
1.9647414e-02
2.2849015e-02
2.5688223e-02
2.6806396e-02
2.5616994e-02
2.2649589e-02
1.9158304e-02
1.6164735e-02
1.3276337e-02
1.0494569e-02
7.6313090e-03
4.4584798e-03
1.4266789e-03
-1.1471665e-03
-2.7379699e-03
-4.2300134e-03
-6.3486582e-03
-8.6060832e-03
-1.0961505e-02
-1.2380992e-02
-1.2439439e-02
-1.1923843e-02
-1.2040593e-02
-1.3226807e-02
-1.4766035e-02
-1.6971005e-02
-1.8754008e-02
-1.8735903e-02
-1.7504721e-02
-1.5649537e-02
-1.4156600e-02
-1.3230728e-02
-1.2972227e-02
-1.3655464e-02
-1.3404335e-02
-1.1708371e-02
-9.5047709e-03
-6.3934923e-03
-2.3788418e-03
1.6853892e-03
4.6195247e-03
6.2063754e-03
7.3042462e-03
8.4824703e-03
9.7392259e-03
1.1191445e-02
1.3852920e-02
1.6854338e-02
1.8674577e-02
2.0535609e-02
2.2525304e-02
2.3674598e-02
2.3619531e-02
2.1551431e-02
1.8371274e-02
1.5421206e-02
1.3485369e-02
1.3033643e-02
1.3097612e-02
1.2342070e-02
9.9983307e-03
7.2885534e-03
5.6849873e-03
4.7669241e-03
4.1491880e-03
3.3088795e-03
1.8350808e-03
1.8245266e-04
-1.8139089e-03
-4.9097336e-03
-9.3436153e-03
-1.4495627e-02
-1.9841750e-02
-2.5432763e-02
-3.1751756e-02
-3.8330653e-02
-4.2993068e-02
-4.5298584e-02
-4.5691862e-02
-4.3557514e-02
-3.9101394e-02
-3.2494711e-02
-2.4663066e-02
-1.6657902e-02
-7.2871825e-03
3.2128582e-03
1.2685424e-02
2.0566586e-02
2.8086488e-02
3.6091754e-02
4.3726397e-02
5.0896626e-02
5.7907555e-02
6.4147686e-02
6.9239124e-02
7.2514173e-02
7.4375228e-02
7.5403361e-02
7.5424296e-02
7.5496478e-02
7.5756577e-02
7.5458344e-02
7.4794226e-02
7.4287708e-02
7.3694518e-02
7.1901914e-02
6.8491587e-02
6.3448549e-02
5.7054746e-02
4.9284408e-02
3.9188965e-02
2.7007954e-02
1.3854334e-02
1.5536422e-03
-8.2821401e-03
-1.6346632e-02
-2.3074083e-02
-2.8908884e-02
-3.4819202e-02
-4.0115949e-02
-4.3504032e-02
-4.5406918e-02
-4.7515650e-02
-4.9219637e-02
-4.9515924e-02
-4.8997880e-02
-4.7877359e-02
-4.6606648e-02
-4.4704209e-02
-4.1667788e-02
-3.8045049e-02
-3.3902425e-02
-2.9938346e-02
-2.6453167e-02
-2.2748873e-02
-1.8632656e-02
-1.4601338e-02
-1.2456829e-02
-1.2718534e-02
-1.3948961e-02
-1.5941602e-02
-1.8792869e-02
-2.2136846e-02
-2.4664075e-02
-2.5591071e-02
-2.5814278e-02
-2.5501251e-02
-2.4487580e-02
-2.2024745e-02
-1.7979019e-02
-1.3002334e-02
-6.0834716e-03
1.5408008e-03
7.6414817e-03
1.3190722e-02
1.8703755e-02
2.4188929e-02
2.9661622e-02
3.5081940e-02
4.0721951e-02
4.5588668e-02
4.9340597e-02
5.2282263e-02
5.4605302e-02
5.6591926e-02
5.8674183e-02
6.1906695e-02
6.5314703e-02
6.7465895e-02
6.8684283e-02
6.8598618e-02
6.6961617e-02
6.4139054e-02
5.9777179e-02
5.2704881e-02
4.3245080e-02
3.2607870e-02
1.9919606e-02
5.4423844e-03
-9.6650026e-03
-2.5350066e-02
-4.0364242e-02
-5.3040347e-02
-6.2362653e-02
-6.9519483e-02
-7.6296727e-02
-8.1480956e-02
-8.3917515e-02
-8.3935191e-02
-8.2412232e-02
-7.9579441e-02
-7.4324335e-02
-6.7344263e-02
-6.0147315e-02
-5.3027448e-02
-4.6537223e-02
-4.0714343e-02
-3.5118234e-02
-3.0006386e-02
-2.5572657e-02
-2.1520152e-02
-1.8145395e-02
-1.5761928e-02
-1.2965386e-02
-8.4811829e-03
-2.6637468e-03
3.9494754e-03
1.0452458e-02
1.5865120e-02
2.0466685e-02
2.4680706e-02
2.8294852e-02
3.0266104e-02
2.9999361e-02
2.8292783e-02
2.6183643e-02
2.3685600e-02
1.9878249e-02
1.5579404e-02
1.1773420e-02
8.2671904e-03
4.4595962e-03
-8.9339779e-04
-6.4551607e-03
-9.7313548e-03
-1.1661966e-02
-1.4886511e-02
-1.9927863e-02
-2.4950287e-02
-2.9071838e-02
-3.2302691e-02
-3.4295060e-02
-3.5848974e-02
-3.7639037e-02
-3.8687981e-02
-3.8152305e-02
-3.7162722e-02
-3.6162368e-02
-3.3850891e-02
-3.0329971e-02
-2.5726069e-02
-1.9822429e-02
-1.3842903e-02
-8.6414943e-03
-4.3159148e-03
5.7810340e-05
4.6715359e-03
9.2253937e-03
1.4874901e-02
2.0637466e-02
2.4956546e-02
2.7382229e-02
2.7655888e-02
2.6193629e-02
2.2789067e-02
1.7547936e-02
1.1116210e-02
4.0139233e-03
-3.2745751e-03
-1.0779282e-02
-1.7170206e-02
-2.0806298e-02
-2.2686749e-02
-2.3371670e-02
-2.3007156e-02
-2.2534466e-02
-2.1823722e-02
-2.1422481e-02
-2.1875331e-02
-2.2824689e-02
-2.3670735e-02
-2.4422846e-02
-2.6012884e-02
-2.7493764e-02
-2.7700226e-02
-2.6085036e-02
-2.1573163e-02
-1.4951801e-02
-8.4839460e-03
-3.5883533e-03
5.3735894e-04
5.2197030e-03
1.0304824e-02
1.5396057e-02
1.9851596e-02
2.3156993e-02
2.5462178e-02
2.6750540e-02
2.6835957e-02
2.6471232e-02
2.6876240e-02
2.7755337e-02
2.8043529e-02
2.7607695e-02
2.6280381e-02
2.3555787e-02
1.9634736e-02
1.5056451e-02
1.0210033e-02
5.0264648e-03
8.6625112e-04
-8.9427435e-04
-1.2961080e-03
-1.2664306e-03
-1.3125309e-03
-1.7809675e-03
-2.9056814e-03
-4.6084397e-03
-6.3465742e-03
-8.3061581e-03
-1.0504736e-02
-1.2549263e-02
-1.3989925e-02
-1.4621734e-02
-1.5324172e-02
-1.6278840e-02
-1.6786022e-02
-1.6398923e-02
-1.5081247e-02
-1.3232333e-02
-1.0481060e-02
-6.5592743e-03
-1.6855855e-03
3.7391149e-03
9.0142737e-03
1.4002885e-02
1.8531516e-02
2.1777319e-02
2.3533594e-02
2.4220528e-02
2.3984392e-02
2.3218127e-02
2.2582605e-02
2.1736581e-02
1.8926095e-02
1.3651368e-02
6.9255592e-03
4.7189971e-05
-5.9339005e-03
-1.2128692e-02
-1.9054125e-02
-2.5026401e-02
-2.9333260e-02
-3.2326028e-02
-3.4383705e-02
-3.5532187e-02
-3.5889174e-02
-3.6483860e-02
-3.7386251e-02
-3.6955576e-02
-3.3527271e-02
-2.6607524e-02
-1.7834302e-02
-1.0233170e-02
-5.4933101e-03
-3.2581135e-03
-2.1333793e-03
-4.4928845e-04
2.3329505e-03
6.2521426e-03
1.1590987e-02
1.7060484e-02
2.1330889e-02
2.5376869e-02
2.9385050e-02
3.2082058e-02
3.3836042e-02
3.5607641e-02
3.7994155e-02
4.0651164e-02
4.2479066e-02
4.3479218e-02
4.4301126e-02
4.5424702e-02
4.5494426e-02
4.2113811e-02
3.4300141e-02
2.3477321e-02
1.2878828e-02
3.8579237e-03
-4.2322697e-03
-1.1241285e-02
-1.5740653e-02
-1.7543677e-02
-1.8862145e-02
-2.0897747e-02
-2.3314615e-02
-2.5126231e-02
-2.5604934e-02
-2.5241781e-02
-2.4464334e-02
-2.3797831e-02
-2.3266984e-02
-2.2598666e-02
-2.2436178e-02
-2.2728252e-02
-2.3087537e-02
-2.2964534e-02
-2.1592628e-02
-1.9985141e-02
-1.8906462e-02
-1.7775110e-02
-1.6269634e-02
-1.4203197e-02
-1.1071836e-02
-6.6374683e-03
-2.0724379e-03
2.2596530e-03
7.1863456e-03
1.2801245e-02
1.8477544e-02
2.3504294e-02
2.8271325e-02
3.2472865e-02
3.5431903e-02
3.8150031e-02
4.0575884e-02
4.1106930e-02
3.9501727e-02
3.6907794e-02
3.3668363e-02
2.8709132e-02
2.2136856e-02
1.5649624e-02
9.5447412e-03
2.9089077e-03
-4.1812804e-03
-9.7844139e-03
-1.2601795e-02
-1.3682231e-02
-1.4045072e-02
-1.3930201e-02
-1.3660238e-02
-1.3972728e-02
-1.5196046e-02
-1.7302121e-02
-2.0832773e-02
-2.4714913e-02
-2.6901303e-02
-2.7866776e-02
-2.8346918e-02
-2.8157032e-02
-2.7887745e-02
-2.7682132e-02
-2.6889032e-02
-2.5436625e-02
-2.3935603e-02
-2.2305201e-02
-2.0028205e-02
-1.6754385e-02
-1.2527692e-02
-7.7248175e-03
-2.3172428e-03
3.3198495e-03
8.5395447e-03
1.2764755e-02
1.5904044e-02
1.9209284e-02
2.3259183e-02
2.7246047e-02
3.0866280e-02
3.4070118e-02
3.6121421e-02
3.5748910e-02
3.2923258e-02
2.8948401e-02
2.4539685e-02
1.9951097e-02
1.4746199e-02
9.1084041e-03
4.2069970e-03
-2.9641256e-04
-4.1272037e-03
-6.5516115e-03
-8.5117191e-03
-1.0391979e-02
-1.2049101e-02
-1.3447613e-02
-1.5090880e-02
-1.7106314e-02
-1.8344334e-02
-1.8536892e-02
-1.7942963e-02
-1.6890293e-02
-1.6044143e-02
-1.5529677e-02
-1.4797124e-02
-1.2709147e-02
-8.9971455e-03
-4.6496505e-03
-4.9834801e-04
3.3234624e-03
7.2533416e-03
1.1098380e-02
1.4867351e-02
1.8758684e-02
2.2180544e-02
2.5483195e-02
2.9106567e-02
3.2233235e-02
3.3875511e-02
3.3215783e-02
3.0308080e-02
2.5897417e-02
2.0282654e-02
1.3841635e-02
7.1758861e-03
1.0861601e-03
-4.1243870e-03
-8.5962058e-03
-1.2320095e-02
-1.5922550e-02
-1.9252574e-02
-2.1575812e-02
-2.3113582e-02
-2.4397771e-02
-2.6270217e-02
-2.8888871e-02
-3.1749933e-02
-3.4532178e-02
-3.6530698e-02
-3.6814235e-02
-3.5082579e-02
-3.2402917e-02
-2.9132126e-02
-2.4671022e-02
-1.8726012e-02
-1.1082783e-02
-3.4128103e-03
2.7291296e-03
7.4697999e-03
1.0798478e-02
1.3444927e-02
1.6006144e-02
1.8851316e-02
2.2767866e-02
2.7329654e-02
3.2326656e-02
3.7178887e-02
4.0808778e-02
4.3954688e-02
4.6554177e-02
4.7760205e-02
4.7675737e-02
4.6241959e-02
4.3198356e-02
3.8412885e-02
3.2741196e-02
2.6916550e-02
2.0842217e-02
1.4243925e-02
5.8277497e-03
-3.6920091e-03
-1.2032054e-02
-1.8487862e-02
-2.2544225e-02
-2.4706848e-02
-2.6448721e-02
-2.8057396e-02
-2.8863319e-02
-2.9141574e-02
-2.9789677e-02
-3.0128569e-02
-2.9534518e-02
-2.8210321e-02
-2.6289231e-02
-2.4059692e-02
-2.1027647e-02
-1.6800030e-02
-1.1852503e-02
-6.7467619e-03
-1.5662472e-03
3.8715446e-03
9.2246403e-03
1.4179563e-02
1.7914431e-02
1.9673138e-02
2.0698872e-02
2.1676259e-02
2.2473717e-02
2.3753173e-02
2.5014964e-02
2.4880473e-02
2.1916803e-02
1.5694368e-02
7.7909954e-03
3.2654264e-04
-5.8918894e-03
-1.1175246e-02
-1.5028446e-02
-1.7396175e-02
-1.9183280e-02
-2.0748960e-02
-2.2600914e-02
-2.5301977e-02
-2.8342800e-02
-3.0766589e-02
-3.2221973e-02
-3.2628611e-02
-3.1825357e-02
-2.9664907e-02
-2.5564363e-02
-2.0255115e-02
-1.6513723e-02
-1.4220803e-02
-1.1431685e-02
-8.3827858e-03
-4.8716824e-03
-3.5420842e-04
4.4281613e-03
8.2726285e-03
1.1276049e-02
1.4852616e-02
1.9008229e-02
2.3672627e-02
2.8973469e-02
3.3188998e-02
3.6292205e-02
3.9706592e-02
4.3227488e-02
4.5939764e-02
4.6899474e-02
4.5878322e-02
4.2214488e-02
3.4637202e-02
2.3943486e-02
1.2195195e-02
3.4377571e-04
-1.1439819e-02
-2.1685167e-02
-2.8692271e-02
-3.2761861e-02
-3.4795414e-02
-3.5367289e-02
-3.5049123e-02
-3.5130134e-02
-3.6438126e-02
-3.8061194e-02
-3.9191433e-02
-3.9107208e-02
-3.8087725e-02
-3.7680175e-02
-3.7204141e-02
-3.5976298e-02
-3.4773585e-02
-3.3253451e-02
-3.0526809e-02
-2.6276068e-02
-2.0289070e-02
-1.1846179e-02
-1.1020825e-03
1.1474021e-02
2.4310639e-02
3.3811600e-02
3.9206610e-02
4.2368663e-02
4.3843870e-02
4.3223026e-02
4.0786467e-02
3.8345370e-02
3.6396575e-02
3.3325641e-02
2.8761473e-02
2.2477085e-02
1.4298384e-02
5.8702312e-03
-1.3269780e-03
-6.9672476e-03
-1.1310263e-02
-1.4447064e-02
-1.6145340e-02
-1.6849621e-02
-1.7176216e-02
-1.7266941e-02
-1.6468908e-02
-1.4400230e-02
-1.2150734e-02
-1.0011166e-02
-7.6384022e-03
-4.9370728e-03
-1.9353117e-03
5.8645006e-04
2.7344601e-03
5.3399486e-03
8.9264240e-03
1.3665349e-02
1.9522372e-02
2.5988810e-02
3.1213969e-02
3.4703722e-02
3.7162964e-02
3.9031266e-02
4.1305691e-02
4.3441116e-02
4.5339388e-02
4.7996910e-02
5.0431938e-02
5.0865364e-02
4.8520609e-02
4.3911305e-02
3.6206345e-02
2.3670392e-02
8.2354207e-03
-6.2294986e-03
-1.7581311e-02
-2.5989589e-02
-3.2654398e-02
-3.7058965e-02
-3.8892152e-02
-3.9225266e-02
-3.8827309e-02
-3.8314709e-02
-3.7884927e-02
-3.8199565e-02
-3.9254496e-02
-4.0040213e-02
-4.0511074e-02
-4.0889668e-02
-4.0678137e-02
-3.8851889e-02
-3.5914616e-02
-3.3229387e-02
-3.0682977e-02
-2.7732053e-02
-2.3865977e-02
-1.8347123e-02
-1.0548620e-02
-1.0633871e-03
7.8265490e-03
1.4737065e-02
1.9962130e-02
2.4522386e-02
2.9050791e-02
3.2861327e-02
3.6182033e-02
3.9084638e-02
4.0601720e-02
4.0913680e-02
4.0395780e-02
3.8781833e-02
3.5355975e-02
2.9705926e-02
2.1786358e-02
1.2609983e-02
4.5778265e-03
-1.5854943e-03
-6.4157369e-03
-9.8953641e-03
-1.2810347e-02
-1.5683654e-02
-1.7914447e-02
-1.9161871e-02
-1.9157839e-02
-1.8367509e-02
-1.7914584e-02
-1.8297558e-02
-1.9076653e-02
-1.9264968e-02
-1.8963624e-02
-1.8403711e-02
-1.7399120e-02
-1.5991891e-02
-1.3678833e-02
-1.0781221e-02
-8.0808663e-03
-5.9778332e-03
-4.2164450e-03
-1.9794048e-03
7.6243609e-04
4.4245943e-03
9.1252312e-03
1.3627027e-02
1.7362296e-02
2.0667252e-02
2.3867501e-02
2.6484732e-02
2.7632637e-02
2.8347735e-02
2.9886147e-02
3.1360442e-02
3.1650834e-02
3.1316889e-02
3.0754314e-02
2.8576266e-02
2.4637381e-02
1.9675034e-02
1.3682604e-02
6.2854480e-03
-2.8558180e-03
-1.2202731e-02
-2.0246616e-02
-2.6116962e-02
-2.9318656e-02
-3.0909391e-02
-3.1222426e-02
-3.0437112e-02
-2.9446889e-02
-2.8218049e-02
-2.7716990e-02
-2.9005312e-02
-3.1303284e-02
-3.3545525e-02
-3.4796856e-02
-3.5388701e-02
-3.5284215e-02
-3.4079543e-02
-3.2630757e-02
-3.1297964e-02
-3.0176347e-02
-2.9190725e-02
-2.8295545e-02
-2.7444587e-02
-2.6251050e-02
-2.4543005e-02
-2.2293791e-02
-1.9938820e-02
-1.7809277e-02
-1.6084701e-02
-1.5058212e-02
-1.4289721e-02
-1.3144539e-02
-1.0897408e-02
-7.1174118e-03
-2.4338557e-03
4.0648028e-03
1.3967309e-02
2.7417729e-02
4.2104681e-02
5.2906917e-02
5.7187665e-02
5.5417913e-02
4.9280214e-02
4.1812277e-02
3.4447496e-02
2.7155873e-02
1.9648260e-02
1.1473376e-02
3.8321365e-03
-2.5454845e-03
-8.3184615e-03
-1.4073669e-02
-2.0519855e-02
-2.7321455e-02
-3.3408958e-02
-3.7927194e-02
-4.0232381e-02
-4.0085282e-02
-3.8477557e-02
-3.6301946e-02
-3.2340204e-02
-2.6299016e-02
-1.8549691e-02
-9.2361527e-03
-4.2299146e-04
7.3329545e-03
1.4458252e-02
2.0317391e-02
2.5249543e-02
2.9513345e-02
3.2983776e-02
3.6103286e-02
3.8939338e-02
4.1331043e-02
4.4038485e-02
4.7203882e-02
4.9575806e-02
5.0482498e-02
5.0658256e-02
5.0404150e-02
4.8457918e-02
4.4599659e-02
4.0691156e-02
3.7298322e-02
3.2749573e-02
2.6607672e-02
2.0031212e-02
1.3669993e-02
7.7553352e-03
2.5071488e-03
-1.5040511e-03
-4.0340426e-03
-5.5720256e-03
-6.5139127e-03
-7.2311572e-03
-7.6238576e-03
-7.1889754e-03
-5.7743884e-03
-3.4063089e-03
-6.8866120e-04
1.8811076e-03
4.9782875e-03
8.9112953e-03
1.3216059e-02
1.7891640e-02
2.2307110e-02
2.5735602e-02
2.8651214e-02
3.0527258e-02
2.9995861e-02
2.6156352e-02
1.7449323e-02
1.4639364e-03
-1.9190996e-02
-3.6502946e-02
-4.7246231e-02
-5.3165169e-02
-5.4987507e-02
-5.3509754e-02
-5.0888288e-02
-4.7961285e-02
-4.4795030e-02
-4.2027064e-02
-4.0823344e-02
-4.2447114e-02
-4.6467459e-02
-5.2364879e-02
-5.9268436e-02
-6.5727349e-02
-7.1606760e-02
-7.6915267e-02
-8.1006744e-02
-8.2403786e-02
-7.9985271e-02
-7.4284025e-02
-6.5772191e-02
-5.3634960e-02
-3.5251808e-02
-1.2316496e-02
7.4319041e-03
2.0691314e-02
2.8656254e-02
3.2816134e-02
3.5090676e-02
3.6334107e-02
3.6989242e-02
3.7573109e-02
3.8132458e-02
3.7794380e-02
3.5719623e-02
3.3460974e-02
3.2089876e-02
3.0394920e-02
2.8296963e-02
2.6995345e-02
2.6637106e-02
2.6240422e-02
2.6024391e-02
2.7157829e-02
2.9012791e-02
3.0434342e-02
3.1486809e-02
3.2159876e-02
3.2922452e-02
3.3582001e-02
3.3382297e-02
3.2789584e-02
3.2074464e-02
3.1182076e-02
2.9518067e-02
2.6260894e-02
2.1281187e-02
1.5172586e-02
9.0839894e-03
3.7381754e-03
-1.3051662e-03
-6.1856062e-03
-9.1798553e-03
-1.0129501e-02
-1.0443324e-02
-1.0170978e-02
-9.2697617e-03
-7.7737771e-03
-6.3160124e-03
-5.9349119e-03
-6.5894909e-03
-7.6559082e-03
-7.7887176e-03
-6.3362929e-03
-3.8512713e-03
-4.7449218e-04
3.3059655e-03
7.5996059e-03
1.2551410e-02
1.6583978e-02
2.0125693e-02
2.5006716e-02
3.0831029e-02
3.7288202e-02
4.4918400e-02
5.3084555e-02
6.0623151e-02
6.7787931e-02
7.4691554e-02
8.1261214e-02
8.7680254e-02
9.2328934e-02
9.3829540e-02
9.2080075e-02
8.6678743e-02
7.6980531e-02
6.0994620e-02
3.6005959e-02
5.1972692e-03
-2.3165960e-02
-4.5627795e-02
-6.3361525e-02
-7.6732781e-02
-8.5974118e-02
-9.1662649e-02
-9.4222098e-02
-9.5614773e-02
-9.7740755e-02
-1.0042474e-01
-1.0343966e-01
-1.0672394e-01
-1.1083359e-01
-1.1662269e-01
-1.2297606e-01
-1.2833141e-01
-1.3221642e-01
-1.3412575e-01
-1.3266520e-01
-1.2641135e-01
-1.1484199e-01
-9.7182204e-02
-7.1493859e-02
-3.5101534e-02
7.2663839e-03
4.3532146e-02
6.9345308e-02
8.6418861e-02
9.6480163e-02
1.0216501e-01
1.0463617e-01
1.0442784e-01
1.0221075e-01
9.8972942e-02
9.5448352e-02
9.1556882e-02
8.7447963e-02
8.3238412e-02
7.8774248e-02
7.3877498e-02
6.8522107e-02
6.3131347e-02
5.7918369e-02
5.2763913e-02
4.7363938e-02
4.1211881e-02
3.3999914e-02
2.4756673e-02
1.2554913e-02
-1.3507094e-03
-1.3972151e-02
-2.3798172e-02
-3.1575715e-02
-3.7783741e-02
-4.3020726e-02
-4.7596159e-02
-5.0828954e-02
-5.3475202e-02
-5.6702887e-02
-5.9797783e-02
-6.2138773e-02
-6.4336254e-02
-6.6591209e-02
-6.9095705e-02
-7.2332470e-02
-7.5549787e-02
-7.7833402e-02
-7.9750904e-02
-8.0899438e-02
-7.9183992e-02
-7.2568402e-02
-6.0026954e-02
-4.0694862e-02
-1.2158426e-02
2.0981846e-02
4.7768955e-02
6.4611531e-02
7.3900573e-02
7.7843811e-02
7.7460223e-02
7.3594845e-02
6.6521760e-02
5.5954716e-02
4.3941536e-02
3.2200587e-02
2.0530944e-02
9.4916598e-03
-9.6400001e-06
-7.7708266e-03
-1.4222902e-02
-1.9360456e-02
-2.3233363e-02
-2.6770306e-02
-3.0424992e-02
-3.3821831e-02
-3.5853836e-02
-3.5847469e-02
-3.4351361e-02
-3.2021995e-02
-2.9279155e-02
-2.5959613e-02
-2.1744485e-02
-1.7270938e-02
-1.2436414e-02
-6.8379098e-03
-9.0902836e-04
5.0465964e-03
1.0923591e-02
1.6822603e-02
2.1952871e-02
2.5565510e-02
2.8629141e-02
3.2014842e-02
3.5132805e-02
3.6708704e-02
3.6548756e-02
3.5476541e-02
3.3281289e-02
2.9799703e-02
2.5447568e-02
2.0423814e-02
1.5780560e-02
1.2789437e-02
1.2774337e-02
1.5473226e-02
1.8129230e-02
1.9202967e-02
1.8561033e-02
1.6380017e-02
1.3407516e-02
1.0594606e-02
7.3337196e-03
2.2594578e-03
-3.0623264e-03
-7.2660032e-03
-1.0818225e-02
-1.3498456e-02
-1.5310832e-02
-1.6145043e-02
-1.6182297e-02
-1.6104946e-02
-1.5768867e-02
-1.5566633e-02
-1.5650176e-02
-1.5264513e-02
-1.4017768e-02
-1.2529510e-02
-1.2721236e-02
-1.5700220e-02
-2.0700632e-02
-2.4979399e-02
-2.6731763e-02
-2.7332388e-02
-2.7583779e-02
-2.7151428e-02
-2.5795290e-02
-2.3476065e-02
-2.0765725e-02
-1.7743171e-02
-1.4153162e-02
-9.9219765e-03
-5.6753665e-03
-2.6717477e-03
-9.5322495e-04
5.0173902e-05
9.9794935e-04
2.1748847e-03
2.8329603e-03
3.7966400e-03
6.2253269e-03
9.2442203e-03
1.1304840e-02
1.0339398e-02
4.6913608e-03
-3.3947501e-03
-7.6442213e-03
-5.4073836e-03
7.7769777e-04
9.1833626e-03
1.8142904e-02
2.6237522e-02
3.2766780e-02
3.5759759e-02
3.4962473e-02
3.1317405e-02
2.5238751e-02
1.6736145e-02
6.4237809e-03
-3.6199531e-03
-1.3619872e-02
-2.3838972e-02
-3.2965537e-02
-4.0761581e-02
-4.6557788e-02
-5.0121504e-02
-5.1483548e-02
-5.0518828e-02
-4.7604891e-02
-4.2100728e-02
-3.4367978e-02
-2.4875871e-02
-1.3223845e-02
-4.1532324e-04
1.2980459e-02
2.6062447e-02
3.7308200e-02
4.6532329e-02
5.4160414e-02
6.0744998e-02
6.5947637e-02
6.9889691e-02
7.3351125e-02
7.6283022e-02
7.8613920e-02
7.9237625e-02
7.7363269e-02
7.4283847e-02
7.1336191e-02
6.7797024e-02
6.1571122e-02
5.2725082e-02
4.2213301e-02
2.9152222e-02
1.2188081e-02
-6.9960984e-03
-2.2725457e-02
-3.2698302e-02
-3.8437949e-02
-4.1000015e-02
-4.2314951e-02
-4.2636382e-02
-4.0980993e-02
-3.9019516e-02
-3.8291628e-02
-3.8028037e-02
-3.6695967e-02
-3.4234910e-02
-3.1764904e-02
-2.8914869e-02
-2.5487499e-02
-2.1701519e-02
-1.7284487e-02
-1.2420539e-02
-6.6570654e-03
-3.6674018e-06
6.4047970e-03
1.2531573e-02
1.8282669e-02
2.2272933e-02
2.3971211e-02
2.4996035e-02
2.6617730e-02
2.7484461e-02
2.6504886e-02
2.3511687e-02
1.8798063e-02
1.3327431e-02
7.7483265e-03
3.2295800e-03
-3.3499011e-04
-3.3450711e-03
-4.8533582e-03
-5.2103362e-03
-5.1831250e-03
-5.0510392e-03
-5.2974609e-03
-6.3300137e-03
-8.0390561e-03
-9.8102554e-03
-1.1269966e-02
-1.1891643e-02
-1.2324112e-02
-1.4431577e-02
-1.8948767e-02
-2.5022440e-02
-2.9757577e-02
-3.1546902e-02
-3.1879603e-02
-3.2100785e-02
-3.2558611e-02
-3.2296540e-02
-3.0968660e-02
-2.9111734e-02
-2.6098928e-02
-2.3024364e-02
-2.1066176e-02
-1.9068055e-02
-1.5820177e-02
-1.1255135e-02
-7.0864207e-03
-3.5336937e-03
4.6802553e-04
4.7241526e-03
8.8388279e-03
1.2034222e-02
1.4835439e-02
1.7930158e-02
2.1389741e-02
2.6668288e-02
3.2734429e-02
3.6450318e-02
3.7405085e-02
3.6602278e-02
3.4098096e-02
2.9723161e-02
2.4542621e-02
1.9696406e-02
1.4870044e-02
9.2796832e-03
2.8244165e-03
-3.1033315e-03
-7.4381256e-03
-1.1011884e-02
-1.4654445e-02
-1.8249312e-02
-2.0742440e-02
-2.1569275e-02
-2.1617583e-02
-2.1997958e-02
-2.3268133e-02
-2.4568077e-02
-2.4902300e-02
-2.4016121e-02
-2.1750071e-02
-1.9323379e-02
-1.7069468e-02
-1.4027994e-02
-1.0557127e-02
-6.8386425e-03
-3.3828876e-03
-4.3774661e-04
1.9894989e-03
3.4746506e-03
4.9294103e-03
6.2502575e-03
7.2182497e-03
8.2678847e-03
9.0445474e-03
1.0067154e-02
1.1297158e-02
1.2345590e-02
1.3034325e-02
1.2836930e-02
1.1738603e-02
1.0039877e-02
9.0176976e-03
8.8120868e-03
8.2478644e-03
7.5454409e-03
6.8361050e-03
5.4949923e-03
3.1806328e-03
4.3860107e-04
-1.6079625e-03
-2.7453072e-03
-2.7943834e-03
-2.1427433e-03
-2.2482702e-03
-3.5538590e-03
-5.3114855e-03
-6.1108267e-03
-6.4178281e-03
-7.9091074e-03
-9.3114793e-03
-9.5337784e-03
-9.9600361e-03
-1.1144531e-02
-1.2010542e-02
-1.2030661e-02
-1.2121721e-02
-1.2518344e-02
-1.2629205e-02
-1.1585659e-02
-9.7586975e-03
-8.4436170e-03
-6.7917559e-03
-3.8416029e-03
5.1456223e-04
5.7999939e-03
1.0411759e-02
1.4641346e-02
1.9462596e-02
2.4011195e-02
2.8013553e-02
3.1176246e-02
3.2847017e-02
3.3289633e-02
3.2824437e-02
3.1838361e-02
2.9969065e-02
2.7227368e-02
2.3857736e-02
1.9584279e-02
1.5217184e-02
1.1132308e-02
7.8454997e-03
5.3518950e-03
2.8796275e-03
2.8511942e-04
-3.3766617e-03
-8.0117198e-03
-1.2515616e-02
-1.6219649e-02
-1.8931706e-02
-2.1255912e-02
-2.3446217e-02
-2.5476195e-02
-2.6868892e-02
-2.7395272e-02
-2.7493449e-02
-2.7008175e-02
-2.6544743e-02
-2.6532905e-02
-2.6430686e-02
-2.6391860e-02
-2.6118559e-02
-2.5282867e-02
-2.3491103e-02
-2.0071607e-02
-1.5939063e-02
-1.2418197e-02
-9.7373518e-03
-6.5962875e-03
-2.0674062e-03
2.4135924e-03
6.3357843e-03
9.9133808e-03
1.3111790e-02
1.6419194e-02
1.9621401e-02
2.3223668e-02
2.7397601e-02
3.1411393e-02
3.5072265e-02
3.7755013e-02
3.9204012e-02
3.9816061e-02
3.9796313e-02
3.8811306e-02
3.5787357e-02
3.0809806e-02
2.4783603e-02
1.8481480e-02
1.2749530e-02
7.2280690e-03
1.7312909e-03
-3.3696796e-03
-8.0553914e-03
-1.1966135e-02
-1.5303880e-02
-1.7720830e-02
-1.8653769e-02
-1.8691174e-02
-1.8263466e-02
-1.8044537e-02
-1.7910514e-02
-1.8070143e-02
-1.9084349e-02
-1.9876356e-02
-2.0210115e-02
-1.9820226e-02
-1.8429659e-02
-1.6615916e-02
-1.5051991e-02
-1.4336879e-02
-1.3428688e-02
-1.1954976e-02
-9.9181826e-03
-6.9179945e-03
-4.0895549e-03
-2.0297169e-03
-4.1004492e-04
1.6931513e-03
4.4352330e-03
6.1628849e-03
7.0770624e-03
8.2156905e-03
9.8485118e-03
1.2720824e-02
1.5991090e-02
1.8025314e-02
1.8640170e-02
1.8986285e-02
1.9582131e-02
1.9874202e-02
2.0769109e-02
2.2279262e-02
2.2703088e-02
2.1187906e-02
1.6742958e-02
1.0375710e-02
4.5721617e-03
2.3107473e-04
-2.7534537e-03
-5.4539767e-03
-8.3506556e-03
-1.1146109e-02
-1.2885583e-02
-1.3730619e-02
-1.5483964e-02
-1.7888404e-02
-1.9945145e-02
-2.1056326e-02
-2.1531772e-02
-2.2778824e-02
-2.4148007e-02
-2.4591921e-02
-2.4073352e-02
-2.2045092e-02
-1.9129187e-02
-1.6570629e-02
-1.4628269e-02
-1.2160130e-02
-8.4178904e-03
-5.0279814e-03
-2.3102938e-03
5.1788094e-04
3.4620316e-03
6.5850769e-03
9.1763929e-03
1.1275787e-02
1.3042305e-02
1.4024945e-02
1.4718055e-02
1.5811515e-02
1.7724947e-02
2.0075380e-02
2.2440735e-02
2.4666512e-02
2.6423097e-02
2.7528218e-02
2.7773612e-02
2.6596602e-02
2.3617913e-02
1.9481831e-02
1.4867279e-02
1.0235770e-02
6.3829058e-03
3.5624897e-03
1.5349494e-03
6.2584434e-04
4.9354660e-04
5.9694019e-04
3.3711563e-04
-1.4520745e-03
-3.9240234e-03
-5.8167107e-03
-7.6321512e-03
-1.0080448e-02
-1.3411166e-02
-1.6637927e-02
-1.8600686e-02
-1.9271105e-02
-1.9627340e-02
-2.0435446e-02
-2.0410528e-02
-1.8759322e-02
-1.5741656e-02
-1.1637842e-02
-7.5688244e-03
-3.2765504e-03
1.7964397e-03
7.3621444e-03
1.3550166e-02
1.9218652e-02
2.3940602e-02
2.8506893e-02
3.3115178e-02
3.7659953e-02
4.1365322e-02
4.3948092e-02
4.4564632e-02
4.1896677e-02
3.6316212e-02
2.8699538e-02
2.0115145e-02
1.1323102e-02
2.4878846e-03
-6.1692899e-03
-1.3450192e-02
-1.7597585e-02
-1.9874918e-02
-2.1609638e-02
-2.1892939e-02
-2.1310656e-02
-2.0783232e-02
-2.0188695e-02
-1.9743450e-02
-1.9771303e-02
-1.9947367e-02
-1.9775587e-02
-1.9314613e-02
-1.8655603e-02
-1.8094789e-02
-1.7658303e-02
-1.6564934e-02
-1.5381070e-02
-1.4952383e-02
-1.4858217e-02
-1.4528547e-02
-1.3978905e-02
-1.3783953e-02
-1.3005892e-02
-1.0925632e-02
-8.8697517e-03
-7.3527266e-03
-6.4782385e-03
-5.1804466e-03
-1.8481047e-03
3.0102907e-03
8.5235776e-03
1.3270663e-02
1.7085539e-02
2.1044162e-02
2.4036358e-02
2.5718802e-02
2.6238241e-02
2.4941416e-02
2.2333765e-02
1.8342014e-02
1.3253363e-02
7.5527967e-03
1.7730865e-03
-2.4733520e-03
-4.2885626e-03
-4.4074777e-03
-5.0848024e-03
-6.4798401e-03
-7.4943873e-03
-8.1754798e-03
-8.7782731e-03
-1.0256084e-02
-1.2670960e-02
-1.5097714e-02
-1.7375085e-02
-1.9758317e-02
-2.2562430e-02
-2.5513886e-02
-2.8190531e-02
-3.0366302e-02
-3.0905536e-02
-2.9696749e-02
-2.7490946e-02
-2.4509498e-02
-2.1313454e-02
-1.8079325e-02
-1.3967880e-02
-7.9935021e-03
-1.4842245e-03
3.6397384e-03
8.2699766e-03
1.3146299e-02
1.8596932e-02
2.4963650e-02
3.0145022e-02
3.3133714e-02
3.5228684e-02
3.7143142e-02
3.9451266e-02
4.2130595e-02
4.3528536e-02
4.2179458e-02
3.8736427e-02
3.4605308e-02
3.0596165e-02
2.6625175e-02
2.1684487e-02
1.6384078e-02
1.1898825e-02
8.3278530e-03
6.0639780e-03
4.3001419e-03
2.4661597e-03
1.6528366e-03
2.2216274e-03
3.8259699e-03
5.4978407e-03
6.8304879e-03
8.3268438e-03
9.4397223e-03
9.5755818e-03
9.0232714e-03
9.0570675e-03
1.0634083e-02
1.3273635e-02
1.6831815e-02
2.0889575e-02
2.5626958e-02
3.1245404e-02
3.6216119e-02
4.0469705e-02
4.4738274e-02
4.9487998e-02
5.4283884e-02
5.8032905e-02
6.0415396e-02
6.0891797e-02
6.0463245e-02
6.0089606e-02
5.8816457e-02
5.6563598e-02
5.3082861e-02
4.7901249e-02
4.1464910e-02
3.3872576e-02
2.5175762e-02
1.5231068e-02
4.6545198e-03
-5.9740142e-03
-1.6484805e-02
-2.5808167e-02
-3.4095603e-02
-4.2063475e-02
-4.9850011e-02
-5.7653150e-02
-6.4862571e-02
-7.0531198e-02
-7.4059976e-02
-7.5582902e-02
-7.6789371e-02
-7.9064437e-02
-8.2066826e-02
-8.4573328e-02
-8.5669574e-02
-8.4953931e-02
-8.2974630e-02
-8.0860790e-02
-7.7669039e-02
-7.2696985e-02
-6.6544586e-02
-5.9657322e-02
-5.2971775e-02
-4.6726497e-02
-4.1285890e-02
-3.6857287e-02
-3.2629406e-02
-2.8288437e-02
-2.3358458e-02
-1.7599889e-02
-1.1577941e-02
-5.5367176e-03
7.2708374e-05
5.7186941e-03
1.1823624e-02
1.7183991e-02
2.1232955e-02
2.4363594e-02
2.7431453e-02
3.0915446e-02
3.4049067e-02
3.5851736e-02
3.5988650e-02
3.4515740e-02
3.1764512e-02
2.8864608e-02
2.6038089e-02
2.2758805e-02
2.0204613e-02
1.7964180e-02
1.4811477e-02
1.1732814e-02
8.5985015e-03
4.6273309e-03
1.2973290e-04
-3.3774387e-03
-4.6463654e-03
-4.9441863e-03
-4.9167243e-03
-4.2207263e-03
-2.9507045e-03
-1.5382431e-03
-9.1626794e-04
-5.1800377e-04
4.2363534e-04
1.5162236e-03
2.5076921e-03
3.6296734e-03
5.8511527e-03
9.4296199e-03
1.4244255e-02
2.0233030e-02
2.5887846e-02
3.0350554e-02
3.3270574e-02
3.4655796e-02
3.5487760e-02
3.5224351e-02
3.3013947e-02
2.8943806e-02
2.3796187e-02
1.8673298e-02
1.3015889e-02
6.8337532e-03
7.8376223e-04
-4.7989814e-03
-9.4641819e-03
-1.4173058e-02
-1.8923752e-02
-2.3959013e-02
-2.9931738e-02
-3.5413940e-02
-4.0023818e-02
-4.3885394e-02
-4.6137483e-02
-4.6761921e-02
-4.6334735e-02
-4.6102513e-02
-4.6787245e-02
-4.7013888e-02
-4.5142597e-02
-4.1313455e-02
-3.7201763e-02
-3.2857628e-02
-2.7474979e-02
-2.1610778e-02
-1.5689340e-02
-9.6187698e-03
-3.3400131e-03
2.4160508e-03
7.8995872e-03
1.3894827e-02
1.9942332e-02
2.5805080e-02
3.0405515e-02
3.3161373e-02
3.4520520e-02
3.3737599e-02
3.1480260e-02
2.8878616e-02
2.5633941e-02
2.1332441e-02
1.5591074e-02
1.0091214e-02
5.9075724e-03
2.0095994e-03
-1.6664780e-03
-4.9358670e-03
-7.2956934e-03
-9.3670445e-03
-1.2125231e-02
-1.4582772e-02
-1.7029170e-02
-1.9925123e-02
-2.2492150e-02
-2.4443119e-02
-2.5714899e-02
-2.6185966e-02
-2.4875110e-02
-2.1117544e-02
-1.5483559e-02
-9.5685843e-03
-5.1197852e-03
-2.2234487e-03
4.3937896e-04
3.8961939e-03
7.2867868e-03
9.9574675e-03
1.2796369e-02
1.5616454e-02
1.8453670e-02
2.2002804e-02
2.5339235e-02
2.7702059e-02
2.9291684e-02
3.1585888e-02
3.5317218e-02
3.8057946e-02
3.8595753e-02
3.8229799e-02
3.7391807e-02
3.5326174e-02
3.2124351e-02
2.8524220e-02
2.4102506e-02
1.8741111e-02
1.3004113e-02
6.7792707e-03
1.1392929e-03
-2.6060844e-03
-4.7098944e-03
-6.1593240e-03
-7.4571538e-03
-8.0222195e-03
-7.9963830e-03
-7.2853476e-03
-5.5201505e-03
-4.4553039e-03
-4.7508133e-03
-4.9479353e-03
-4.2711035e-03
-2.8801474e-03
-2.0729431e-03
-2.5163622e-03
-3.4620605e-03
-4.1959905e-03
-4.4803684e-03
-5.5361020e-03
-8.3017151e-03
-1.2220412e-02
-1.5601742e-02
-1.6689149e-02
-1.5821723e-02
-1.3450262e-02
-9.4619334e-03
-3.8919160e-03
2.1780680e-03
6.6876408e-03
9.7846541e-03
1.1835147e-02
1.2108995e-02
1.0560785e-02
7.3548643e-03
3.3190282e-03
-8.8049474e-04
-6.1042618e-03
-1.2671683e-02
-1.8943368e-02
-2.3658877e-02
-2.7024306e-02
-2.8762563e-02
-2.9336936e-02
-3.0242293e-02
-3.0678313e-02
-2.9427810e-02
-2.6772979e-02
-2.3651425e-02
-2.1356448e-02
-2.0340509e-02
-2.0004985e-02
-1.9066687e-02
-1.6890288e-02
-1.4500380e-02
-1.2474869e-02
-1.0723231e-02
-8.6521860e-03
-5.8168105e-03
-3.4879328e-03
-1.4251763e-03
1.0904680e-03
3.8226377e-03
7.6829309e-03
1.2215758e-02
1.6247513e-02
1.9533970e-02
2.2064292e-02
2.4211930e-02
2.5902413e-02
2.7494132e-02
2.9521436e-02
3.2242116e-02
3.4962646e-02
3.5166101e-02
3.2214695e-02
2.7730094e-02
2.3021201e-02
1.8913225e-02
1.5154318e-02
1.1521505e-02
8.8384661e-03
7.8164320e-03
8.1617584e-03
7.8808403e-03
5.7042109e-03
2.6607272e-03
-6.2409256e-04
-3.9195339e-03
-6.5550939e-03
-8.2770351e-03
-9.3839462e-03
-9.6221158e-03
-9.0580708e-03
-9.1255096e-03
-1.0449701e-02
-1.3741015e-02
-1.8321057e-02
-2.1855969e-02
-2.3752456e-02
-2.3347887e-02
-2.0921814e-02
-1.8080408e-02
-1.5278234e-02
-1.1994918e-02
-8.0711162e-03
-4.5418207e-03
-1.5080868e-03
1.7672143e-03
4.8500828e-03
7.3436735e-03
9.3232726e-03
1.1104814e-02
1.2508973e-02
1.2644333e-02
1.1893806e-02
9.8468219e-03
5.7631958e-03
6.0286095e-04
-4.9355327e-03
-1.0524095e-02
-1.6542035e-02
-2.2429194e-02
-2.6899696e-02
-2.9912009e-02
-3.0876065e-02
-2.9648108e-02
-2.6991816e-02
-2.3772288e-02
-2.0906164e-02
-1.8123926e-02
-1.5467629e-02
-1.3696857e-02
-1.2778930e-02
-1.2422111e-02
-1.2192346e-02
-1.2184828e-02
-1.2741581e-02
-1.3418529e-02
-1.3907877e-02
-1.3554300e-02
-1.2038157e-02
-9.8363020e-03
-6.5848318e-03
-2.9232170e-03
-5.6449843e-05
2.1956588e-03
4.5548228e-03
7.3035235e-03
9.7930540e-03
1.2254313e-02
1.5475506e-02
1.9580387e-02
2.3549376e-02
2.5424628e-02
2.5503672e-02
2.5160427e-02
2.4514872e-02
2.3039804e-02
1.9880374e-02
1.5205618e-02
9.3623906e-03
2.7105383e-03
-3.9969468e-03
-1.0793661e-02
-1.7188866e-02
-2.1883774e-02
-2.3983209e-02
-2.4096562e-02
-2.3198045e-02
-2.0888370e-02
-1.7264914e-02
-1.3039145e-02
-8.6283758e-03
-5.5058702e-03
-4.8911207e-03
-6.0366983e-03
-7.4689834e-03
-8.2642477e-03
-8.8877413e-03
-9.5468885e-03
-9.4296943e-03
-8.1438566e-03
-5.7645390e-03
-2.2323880e-03
2.4473152e-03
7.0225734e-03
1.0926145e-02
1.4830186e-02
1.8300802e-02
2.0525031e-02
2.1553731e-02
2.2756689e-02
2.4776418e-02
2.6369288e-02
2.6662940e-02
2.4718291e-02
2.1791413e-02
2.0772047e-02
2.0940624e-02
2.1293739e-02
2.2305016e-02
2.3937348e-02
2.6092330e-02
2.7950271e-02
2.9101491e-02
2.9239149e-02
2.7124113e-02
2.2806877e-02
1.7303312e-02
1.1910729e-02
6.9294198e-03
2.3140514e-03
-6.6942159e-04
-2.6570627e-03
-4.6238196e-03
-6.5085466e-03
-8.9348900e-03
-1.1975288e-02
-1.5241279e-02
-1.8128137e-02
-1.9872963e-02
-1.9955935e-02
-1.8521021e-02
-1.6663413e-02
-1.4678945e-02
-1.3067554e-02
-1.2766159e-02
-1.3053244e-02
-1.3503524e-02
-1.4340334e-02
-1.5529470e-02
-1.6549120e-02
-1.6524394e-02
-1.5512929e-02
-1.3106269e-02
-9.2794115e-03
-4.8890732e-03
2.0649965e-04
4.9959351e-03
8.4938731e-03
1.2131632e-02
1.7104935e-02
2.2563260e-02
2.6820780e-02
2.9279439e-02
2.9788288e-02
2.9767466e-02
3.0882233e-02
3.2030357e-02
3.2476484e-02
3.2503890e-02
3.2374086e-02
3.0950168e-02
2.6214243e-02
1.9171828e-02
1.2066049e-02
5.2107366e-03
-7.1343691e-04
-4.6829966e-03
-7.6011096e-03
-1.0320937e-02
-1.2275366e-02
-1.3310913e-02
-1.3902231e-02
-1.4211123e-02
-1.5348887e-02
-1.7152286e-02
-1.8046920e-02
-1.8793642e-02
-1.9703626e-02
-2.0699270e-02
-2.2266266e-02
-2.3457914e-02
-2.3602610e-02
-2.2499012e-02
-2.1015654e-02
-2.0332011e-02
-1.9910746e-02
-1.9144993e-02
-1.8344066e-02
-1.7814672e-02
-1.6679188e-02
-1.4035595e-02
-1.0653829e-02
-7.7283850e-03
-5.8358792e-03
-4.4225545e-03
-2.5067494e-03
-3.5563074e-04
1.7951687e-03
4.1346253e-03
6.7053046e-03
9.3641456e-03
1.1745935e-02
1.3853609e-02
1.5156434e-02
1.5668006e-02
1.5564858e-02
1.3252411e-02
8.4672633e-03
2.5269336e-03
-4.0300335e-03
-1.0361491e-02
-1.5906551e-02
-2.0856041e-02
-2.5095031e-02
-2.8019458e-02
-2.9410085e-02
-2.9999805e-02
-3.0214603e-02
-3.0882941e-02
-3.2276239e-02
-3.3653811e-02
-3.4870172e-02
-3.5712787e-02
-3.6373606e-02
-3.7146277e-02
-3.7604583e-02
-3.7638341e-02
-3.6495608e-02
-3.3566018e-02
-3.0023478e-02
-2.5875174e-02
-2.0715772e-02
-1.5152178e-02
-9.5842462e-03
-3.7743812e-03
2.2253950e-03
7.4193447e-03
1.2448174e-02
1.7266780e-02
2.0983668e-02
2.4731414e-02
2.8385093e-02
3.1629140e-02
3.5064376e-02
3.8945992e-02
4.3284988e-02
4.6351791e-02
4.7157022e-02
4.6384976e-02
4.5286826e-02
4.4526755e-02
4.3337857e-02
4.2386241e-02
4.3067216e-02
4.5119939e-02
4.6521531e-02
4.6229309e-02
4.5696425e-02
4.5758979e-02
4.6464603e-02
4.7597516e-02
4.8430188e-02
4.9422147e-02
5.0654224e-02
5.1174989e-02
5.0671346e-02
4.8847804e-02
4.5851947e-02
4.2556454e-02
3.9914096e-02
3.8172446e-02
3.6929889e-02
3.6332303e-02
3.6245524e-02
3.5470149e-02
3.3248419e-02
2.9452589e-02
2.3714632e-02
1.5120180e-02
4.1035087e-03
-6.6667343e-03
-1.5894837e-02
-2.2484837e-02
-2.5586827e-02
-2.6966618e-02
-2.8670844e-02
-3.1358737e-02
-3.4057069e-02
-3.6066089e-02
-3.7908643e-02
-4.0937979e-02
-4.6093910e-02
-5.2110293e-02
-5.7705082e-02
-6.2077756e-02
-6.4114197e-02
-6.4264700e-02
-6.2507313e-02
-5.8619219e-02
-5.4452864e-02
-5.0935648e-02
-4.7993394e-02
-4.5698582e-02
-4.4273603e-02
-4.4000113e-02
-4.3992366e-02
-4.3481770e-02
-4.2512629e-02
-4.1433733e-02
-4.0179186e-02
-3.7658315e-02
-3.3488182e-02
-2.8098342e-02
-2.3025010e-02
-1.9656544e-02
-1.6740044e-02
-1.3281936e-02
-8.6005485e-03
-2.3853316e-03
4.1370034e-03
1.0307543e-02
1.5316470e-02
1.9189530e-02
2.3061489e-02
2.7565971e-02
3.2961416e-02
3.8189829e-02
4.2263991e-02
4.5561397e-02
4.8539767e-02
5.1171529e-02
5.2207898e-02
5.0488257e-02
4.6970833e-02
4.2856575e-02
3.8046225e-02
3.2349886e-02
2.6715910e-02
2.2053514e-02
1.7816415e-02
1.2992186e-02
7.5522441e-03
3.5464502e-03
1.5975547e-03
7.0892062e-05
-1.7057952e-03
-4.3585022e-03
-6.8789778e-03
-7.7580773e-03
-7.8301383e-03
-8.3374481e-03
-9.8903004e-03
-1.2176913e-02
-1.5095815e-02
-1.8394198e-02
-2.0755011e-02
-2.1713407e-02
-2.1550818e-02
-2.0710264e-02
-1.8992663e-02
-1.5542027e-02
-1.1092423e-02
-6.9084234e-03
-3.0668589e-03
8.5571578e-04
4.9104819e-03
8.9942843e-03
1.3582798e-02
1.8173787e-02
2.1718345e-02
2.4888912e-02
2.8511351e-02
3.2850370e-02
3.7415974e-02
4.0916881e-02
4.2740877e-02
4.2383117e-02
3.9803231e-02
3.5296069e-02
2.9193464e-02
2.3033202e-02
1.7393514e-02
1.1772092e-02
6.6226052e-03
2.0103295e-03
-2.3039750e-03
-6.1057659e-03
-8.7122212e-03
-1.0480571e-02
-1.3457201e-02
-1.7375443e-02
-2.0462544e-02
-2.2464162e-02
-2.4012672e-02
-2.5596761e-02
-2.7195268e-02
-2.8997402e-02
-3.0210224e-02
-3.0615194e-02
-3.1351334e-02
-3.1747287e-02
-3.0867774e-02
-2.8194193e-02
-2.3504775e-02
-1.8085929e-02
-1.2749268e-02
-7.9974605e-03
-4.5046771e-03
-1.8374793e-03
1.0435971e-03
4.2107250e-03
6.6813776e-03
8.5895926e-03
1.0233404e-02
1.1440948e-02
1.2813557e-02
1.4232287e-02
1.5576359e-02
1.6687224e-02
1.5983068e-02
1.2403921e-02
6.2205998e-03
-1.1414448e-03
-8.4941663e-03
-1.5286973e-02
-2.0443399e-02
-2.3270394e-02
-2.2907436e-02
-1.8698264e-02
-1.2132452e-02
-5.5230829e-03
-5.5170811e-04
1.5458767e-03
1.0514373e-03
-5.7892790e-04
-2.2144032e-03
-3.3532102e-03
-4.1034880e-03
-4.9511973e-03
-6.0731513e-03
-6.7497341e-03
-6.6076267e-03
-6.1036838e-03
-4.9989872e-03
-2.5309464e-03
7.8590243e-04
4.0871845e-03
7.6004858e-03
1.1006224e-02
1.4240575e-02
1.8024783e-02
2.1437183e-02
2.3717394e-02
2.4228243e-02
2.2519721e-02
2.0823275e-02
2.0025175e-02
1.9682526e-02
2.0032278e-02
2.0267693e-02
2.0161996e-02
1.8643212e-02
1.4637266e-02
9.1551114e-03
2.5383573e-03
-5.1061670e-03
-1.2768798e-02
-1.8651990e-02
-2.2763739e-02
-2.7163761e-02
-3.2338567e-02
-3.7213312e-02
-4.0646670e-02
-4.2384578e-02
-4.1995848e-02
-3.9435119e-02
-3.6340849e-02
-3.2504262e-02
-2.6571242e-02
-1.9687086e-02
-1.3542561e-02
-9.0437035e-03
-6.2067641e-03
-3.6459568e-03
-8.9616739e-04
1.5963377e-03
3.6069257e-03
4.9761514e-03
6.0645132e-03
6.7143778e-03
7.3405018e-03
8.9815401e-03
1.1256697e-02
1.3166568e-02
1.4181777e-02
1.4875124e-02
1.6311702e-02
1.8940000e-02
2.1915421e-02
2.4119575e-02
2.5423394e-02
2.5511423e-02
2.4826454e-02
2.4480987e-02
2.4073907e-02
2.2472452e-02
1.9569920e-02
1.6351343e-02
1.3505733e-02
1.0932791e-02
8.8332418e-03
7.3298255e-03
5.7760750e-03
4.3954363e-03
3.4279118e-03
2.6371572e-03
2.7021183e-03
3.7227755e-03
4.4668324e-03
4.5889387e-03
4.9364836e-03
5.5412370e-03
6.3197492e-03
7.3840872e-03
7.7817918e-03
6.6993563e-03
4.3361780e-03
1.0188340e-03
-4.0223821e-03
-1.0753578e-02
-1.5788627e-02
-1.7533387e-02
-1.7198164e-02
-1.5301857e-02
-1.2835294e-02
-1.0442002e-02
-7.8311540e-03
-4.4337319e-03
-5.0706448e-04
2.2438297e-03
3.8725006e-03
5.8961044e-03
7.9969085e-03
9.0665428e-03
7.9926944e-03
4.6193627e-03
-2.7502685e-04
-6.3060343e-03
-1.2285175e-02
-1.6718428e-02
-1.8778667e-02
-1.9110441e-02
-1.8723545e-02
-1.7565839e-02
-1.5816133e-02
-1.4113223e-02
-1.3288720e-02
-1.3769167e-02
-1.4547019e-02
-1.4822309e-02
-1.4554278e-02
-1.3489147e-02
-1.1722839e-02
-9.3581860e-03
-7.2726444e-03
-5.9369978e-03
-4.5877446e-03
-3.5887447e-03
-3.2193295e-03
-2.4497968e-03
-8.6926308e-04
1.0992074e-03
3.2651245e-03
5.4116994e-03
8.0415084e-03
1.1844138e-02
1.5682498e-02
1.8501692e-02
2.0032500e-02
2.0896066e-02
2.1985733e-02
2.2702112e-02
2.3450713e-02
2.4838328e-02
2.6228917e-02
2.6696651e-02
2.4629240e-02
2.0156365e-02
1.4714570e-02
7.8472781e-03
2.8906775e-04
-6.0588791e-03
-1.0967199e-02
-1.4582728e-02
-1.7433373e-02
-1.9542652e-02
-2.1117763e-02
-2.2597660e-02
-2.3634388e-02
-2.4691432e-02
-2.5698076e-02
-2.6945487e-02
-2.9192751e-02
-3.1336156e-02
-3.2511212e-02
-3.2685784e-02
-3.1922888e-02
-3.0356644e-02
-2.7126523e-02
-2.1941060e-02
-1.6615979e-02
-1.2552556e-02
-8.9300798e-03
-4.5898203e-03
-6.1800549e-06
3.8772980e-03
6.7193647e-03
8.5162773e-03
9.3019678e-03
9.3437906e-03
9.7609993e-03
1.1003662e-02
1.2836008e-02
1.5592575e-02
1.9047481e-02
2.2210348e-02
2.4273988e-02
2.5267617e-02
2.5147388e-02
2.3322709e-02
2.0391243e-02
1.6846980e-02
1.2697767e-02
8.8406261e-03
5.8526149e-03
4.4758655e-03
5.1093149e-03
7.2118475e-03
9.5431621e-03
9.9978714e-03
8.0172435e-03
4.3588278e-03
3.2105777e-05
-3.4210390e-03
-5.4215851e-03
-6.4879911e-03
-7.1751009e-03
-7.5042664e-03
-7.3337917e-03
-6.7857118e-03
-4.9947955e-03
-2.4381470e-03
-1.3574719e-03
-1.7103098e-03
-2.5874093e-03
-3.1800541e-03
-2.5669793e-03
-1.0010429e-03
1.2357966e-03
4.1171637e-03
7.0815902e-03
9.9494365e-03
1.3590898e-02
1.8043663e-02
2.1346666e-02
2.2214652e-02
2.0528558e-02
1.6460561e-02
1.1510698e-02
6.2957522e-03
2.7837972e-04
-5.7751935e-03
-1.0345665e-02
-1.3495913e-02
-1.6719145e-02
-2.0035488e-02
-2.2601187e-02
-2.3371631e-02
-2.1571335e-02
-1.8635723e-02
-1.6746567e-02
-1.6836531e-02
-1.7585227e-02
-1.7866824e-02
-1.8396584e-02
-1.9616033e-02
-2.1339852e-02
-2.2044788e-02
-2.0233567e-02
-1.6689739e-02
-1.2200211e-02
-7.5894852e-03
-3.7565703e-03
-3.8304824e-05
3.8005615e-03
7.6973605e-03
1.1307923e-02
1.4383974e-02
1.7815900e-02
2.2417554e-02
2.8609592e-02
3.4418313e-02
3.7437381e-02
3.8247942e-02
3.7007910e-02
3.4105952e-02
3.1087425e-02
2.7360429e-02
2.2649413e-02
1.7258101e-02
1.0620455e-02
3.1424455e-03
-4.2512558e-03
-1.0908516e-02
-1.6798204e-02
-2.1830579e-02
-2.6106959e-02
-3.0000811e-02
-3.3389233e-02
-3.6285788e-02
-3.8426672e-02
-3.9921198e-02
-4.1293439e-02
-4.2658698e-02
-4.3903766e-02
-4.4097101e-02
-4.2862376e-02
-4.0831682e-02
-3.8421523e-02
-3.5366633e-02
-3.1068776e-02
-2.6094807e-02
-2.1078596e-02
-1.6243402e-02
-1.1883465e-02
-7.2240226e-03
-2.0873394e-03
2.6018864e-03
7.2431978e-03
1.2222012e-02
1.7149371e-02
2.1685863e-02
2.6014195e-02
3.0266414e-02
3.3835359e-02
3.6990493e-02
3.9814104e-02
4.1689380e-02
4.1447165e-02
3.8204196e-02
3.4054547e-02
3.0459742e-02
2.6611469e-02
2.2111179e-02
1.6762304e-02
1.1634250e-02
7.2465238e-03
3.0770009e-03
-4.2064053e-04
-3.2114979e-03
-5.6571438e-03
-7.6562157e-03
-9.5820302e-03
-1.2590700e-02
-1.6577296e-02
-2.0551290e-02
-2.4665563e-02
-2.8497343e-02
-3.0883787e-02
-3.2433063e-02
-3.3669562e-02
-3.3710566e-02
-3.2340680e-02
-3.0243145e-02
-2.8162232e-02
-2.5911246e-02
-2.3324340e-02
-2.0942462e-02
-1.7927901e-02
-1.3550304e-02
-8.0927142e-03
-1.7677620e-03
4.4281372e-03
9.8379513e-03
1.4190983e-02
1.8033994e-02
2.2348086e-02
2.6433712e-02
2.9504544e-02
3.1395486e-02
3.2955539e-02
3.4893311e-02
3.5888114e-02
3.5172705e-02
3.3141489e-02
3.0096148e-02
2.5903614e-02
2.0427470e-02
1.4499842e-02
8.8932601e-03
4.5898384e-03
1.8172024e-03
-1.3207669e-03
-5.6364042e-03
-9.7720329e-03
-1.2650709e-02
-1.5014742e-02
-1.7740585e-02
-1.9962199e-02
-2.0840407e-02
-1.9846621e-02
-1.6764759e-02
-1.2850306e-02
-9.5542195e-03
-7.1459923e-03
-4.7565410e-03
-1.8817667e-03
1.1220080e-03
3.4979037e-03
4.8030067e-03
5.7690130e-03
6.8755823e-03
7.7659280e-03
9.3132852e-03
1.2164996e-02
1.5147477e-02
1.7525747e-02
1.9378072e-02
2.0949987e-02
2.2281300e-02
2.3628273e-02
2.5095450e-02
2.5805591e-02
2.5730218e-02
2.5248301e-02
2.3938017e-02
2.1493503e-02
1.7904096e-02
1.4238383e-02
1.1482742e-02
9.8335365e-03
9.2853009e-03
9.5533938e-03
1.0341268e-02
1.0530214e-02
9.1758437e-03
6.3714772e-03
2.6773522e-03
-1.6404388e-03
-6.4689022e-03
-1.0615165e-02
-1.3198467e-02
-1.4694296e-02
-1.5541658e-02
-1.6091316e-02
-1.6281802e-02
-1.5323524e-02
-1.3343012e-02
-1.0832210e-02
-7.3470737e-03
-3.1495943e-03
3.6700911e-04
3.0786756e-03
6.2344960e-03
9.9499406e-03
1.3458354e-02
1.6432195e-02
1.8865555e-02
2.0990517e-02
2.2875579e-02
2.4371195e-02
2.5055633e-02
2.4998220e-02
2.4776249e-02
2.3567222e-02
2.1214178e-02
1.8445345e-02
1.5065552e-02
1.2618549e-02
1.1363190e-02
9.2959085e-03
6.3165529e-03
2.3986428e-03
-2.5523331e-03
-8.3495388e-03
-1.5079866e-02
-2.2403044e-02
-2.9911847e-02
-3.6845224e-02
-4.2454622e-02
-4.5983867e-02
-4.8077054e-02
-5.0028774e-02
-5.0837946e-02
-4.9742276e-02
-4.6764389e-02
-4.2054476e-02
-3.7085452e-02
-3.2397696e-02
-2.7956673e-02
-2.4206041e-02
-2.0634276e-02
-1.7070347e-02
-1.4434956e-02
-1.2611820e-02
-9.5361652e-03
-4.1144401e-03
3.0258513e-03
1.1190233e-02
1.9190242e-02
2.7085572e-02
3.5395382e-02
4.2771845e-02
4.8843229e-02
5.3642665e-02
5.6494732e-02
5.7561789e-02
5.7286850e-02
5.6532912e-02
5.5017742e-02
5.1299591e-02
4.5233938e-02
3.7441359e-02
2.9150984e-02
2.0597910e-02
1.0784560e-02
1.8390953e-04
-9.9833203e-03
-1.7718753e-02
-2.2082925e-02
-2.4568650e-02
-2.6589376e-02
-2.9321817e-02
-3.1898133e-02
-3.3117431e-02
-3.3935737e-02
-3.4880294e-02
-3.5578763e-02
-3.5091682e-02
-3.3726753e-02
-3.2446782e-02
-3.0957761e-02
-2.9114893e-02
-2.7118813e-02
-2.5646866e-02
-2.4322915e-02
-2.1644171e-02
-1.8187749e-02
-1.4554333e-02
-1.0506738e-02
-6.1876262e-03
-1.6451096e-03
3.0594627e-03
8.8156983e-03
1.5794750e-02
2.3128097e-02
2.9984839e-02
3.5662331e-02
3.9741665e-02
4.1210593e-02
3.9864645e-02
3.6946463e-02
3.3457941e-02
2.9931908e-02
2.6229884e-02
2.2278194e-02
1.8690589e-02
1.4797902e-02
1.0233208e-02
5.9106268e-03
2.2030471e-03
-9.6190883e-04
-3.6604558e-03
-5.7767141e-03
-7.7438190e-03
-9.1671743e-03
-1.0002594e-02
-1.2657880e-02
-1.7676681e-02
-2.2666701e-02
-2.5828807e-02
-2.6757666e-02
-2.6110409e-02
-2.4866426e-02
-2.3597011e-02
-2.2267006e-02
-2.0290052e-02
-1.7500615e-02
-1.3716802e-02
-9.4513604e-03
-5.6958284e-03
-2.2102194e-03
1.1280621e-03
5.1730041e-03
1.0941928e-02
1.7816642e-02
2.4357838e-02
2.8910914e-02
3.1633578e-02
3.2720686e-02
3.1702396e-02
2.9156821e-02
2.4901509e-02
1.9714302e-02
1.4801401e-02
9.7244335e-03
4.7105121e-03
2.4320331e-04
-3.5904376e-03
-7.3040435e-03
-1.1218489e-02
-1.4213424e-02
-1.5484426e-02
-1.4773244e-02
-1.3193420e-02
-1.2944523e-02
-1.4265149e-02
-1.6284546e-02
-1.8727035e-02
-2.2135588e-02
-2.6157833e-02
-2.9305706e-02
-3.1071775e-02
-3.1113891e-02
-2.9417933e-02
-2.7041843e-02
-2.4049232e-02
-1.9234127e-02
-1.2772987e-02
-6.2575671e-03
-1.9124048e-04
5.6478172e-03
1.0844671e-02
1.5937697e-02
2.0800370e-02
2.4265803e-02
2.6931175e-02
2.9004987e-02
3.0166064e-02
3.0751660e-02
3.0492344e-02
2.8927641e-02
2.5759207e-02
2.1556739e-02
1.6609632e-02
1.0167888e-02
2.6172883e-03
-5.1297441e-03
-1.1566274e-02
-1.5791959e-02
-1.7916065e-02
-1.8244370e-02
-1.8487683e-02
-1.8787466e-02
-1.8405383e-02
-1.7876143e-02
-1.6996413e-02
-1.6160046e-02
-1.6171918e-02
-1.6140258e-02
-1.5691518e-02
-1.5501753e-02
-1.5601879e-02
-1.4922794e-02
-1.2688010e-02
-1.0155666e-02
-8.4764008e-03
-8.0599456e-03
-8.6868357e-03
-8.9964010e-03
-8.5077783e-03
-6.8020063e-03
-4.0514935e-03
-1.0178300e-03
2.9375241e-03
7.9674906e-03
1.4088297e-02
2.0589806e-02
2.6540321e-02
3.1753526e-02
3.5453950e-02
3.7684669e-02
3.9063050e-02
4.0195226e-02
4.1077163e-02
4.0765971e-02
3.9068350e-02
3.6138243e-02
3.2165428e-02
2.7670798e-02
2.2203898e-02
1.5817824e-02
9.3419527e-03
3.0959318e-03
-2.2340582e-03
-6.0532980e-03
-8.6273848e-03
-1.1000553e-02
-1.3692877e-02
-1.6695092e-02
-2.0273554e-02
-2.3686250e-02
-2.6738751e-02
-3.0140750e-02
-3.3443966e-02
-3.6417913e-02
-3.9029566e-02
-4.0599343e-02
-4.0239173e-02
-3.7920480e-02
-3.4813918e-02
-3.2100138e-02
-3.0482121e-02
-2.9035014e-02
-2.7045572e-02
-2.5583318e-02
-2.4192887e-02
-2.1731784e-02
-1.7932635e-02
-1.2977479e-02
-8.7787321e-03
-6.2895901e-03
-4.5144597e-03
-1.7763883e-03
2.9549338e-03
8.5074646e-03
1.3966779e-02
1.9288903e-02
2.5385273e-02
3.2260349e-02
3.7741522e-02
4.1184886e-02
4.2135306e-02
3.9665152e-02
3.4793541e-02
2.8743037e-02
2.2626305e-02
1.7311187e-02
1.2929657e-02
9.6450835e-03
6.4678459e-03
2.6939007e-03
-1.1081722e-03
-4.2551704e-03
-6.6989221e-03
-9.3329157e-03
-1.1855865e-02
-1.3806831e-02
-1.5644396e-02
-1.6938711e-02
-1.6993670e-02
-1.6238503e-02
-1.5771180e-02
-1.5242796e-02
-1.4116938e-02
-1.2668196e-02
-1.0371248e-02
-7.7035057e-03
-5.1637756e-03
-2.0437482e-03
1.5504968e-03
5.5625638e-03
1.0173854e-02
1.5236769e-02
2.0590593e-02
2.5119946e-02
2.7980826e-02
2.9314693e-02
2.9474338e-02
3.0145613e-02
3.2275969e-02
3.5086197e-02
3.7312188e-02
3.7910279e-02
3.6990333e-02
3.3952579e-02
2.8203159e-02
2.0457333e-02
1.1311741e-02
1.7697601e-03
-7.2181436e-03
-1.5268619e-02
-2.2360749e-02
-2.8240623e-02
-3.2459165e-02
-3.6007594e-02
-3.9062082e-02
-4.1338453e-02
-4.4019723e-02
-4.7615293e-02
-5.0960477e-02
-5.2438928e-02
-5.2288427e-02
-5.1167805e-02
-4.8745642e-02
-4.5692072e-02
-4.2816233e-02
-4.0083988e-02
-3.7096953e-02
-3.3064839e-02
-2.8088399e-02
-2.2387452e-02
-1.5027020e-02
-5.2713536e-03
6.0738558e-03
1.6553041e-02
2.5016440e-02
3.1635353e-02
3.6581745e-02
4.0617323e-02
4.3614374e-02
4.6188572e-02
4.9209077e-02
5.1882453e-02
5.3658209e-02
5.3807763e-02
5.2328584e-02
4.9428650e-02
4.4659711e-02
3.8374449e-02
3.0341164e-02
2.1068648e-02
1.2229284e-02
5.2023000e-03
4.0290831e-04
-3.5323267e-03
-6.6028142e-03
-8.6259473e-03
-1.1031786e-02
-1.3829251e-02
-1.6687512e-02
-1.9301578e-02
-2.0958533e-02
-2.1922916e-02
-2.3537829e-02
-2.6193954e-02
-2.8287641e-02
-2.9112512e-02
-2.8638226e-02
-2.6571878e-02
-2.4050634e-02
-2.1950742e-02
-1.9656708e-02
-1.6897345e-02
-1.3784119e-02
-1.0164097e-02
-6.0727782e-03
-2.2179465e-03
1.0742385e-03
4.6981573e-03
8.7133937e-03
1.2809646e-02
1.7949117e-02
2.4478446e-02
3.0591625e-02
3.4507641e-02
3.6499296e-02
3.7160061e-02
3.6288765e-02
3.4005731e-02
3.1121158e-02
2.7871966e-02
2.3518283e-02
1.7896907e-02
1.1691829e-02
5.3525690e-03
-5.6401146e-04
-5.6569921e-03
-9.3971598e-03
-1.0916272e-02
-1.1203037e-02
-1.1664736e-02
-1.2182706e-02
-1.2898095e-02
-1.4144614e-02
-1.4990022e-02
-1.4963636e-02
-1.5125009e-02
-1.5773689e-02
-1.6245648e-02
-1.6896120e-02
-1.8215429e-02
-1.8951933e-02
-1.8128125e-02
-1.6187507e-02
-1.3205093e-02
-9.0341451e-03
-4.3044838e-03
1.4654752e-03
9.5099524e-03
1.8697862e-02
2.7912795e-02
3.7042918e-02
4.5827992e-02
5.4361034e-02
6.1871331e-02
6.7554762e-02
7.2168948e-02
7.7196413e-02
8.1655166e-02
8.2337071e-02
7.7856213e-02
6.7602335e-02
4.9727902e-02
2.6521787e-02
4.1465693e-03
-1.4304853e-02
-2.8477655e-02
-3.8455695e-02
-4.4649340e-02
-4.8750723e-02
-5.1764797e-02
-5.3353804e-02
-5.3035809e-02
-5.0410067e-02
-4.7238533e-02
-4.5008693e-02
-4.4008155e-02
-4.4726659e-02
-4.6509819e-02
-4.9409709e-02
-5.4206437e-02
-6.1005807e-02
-6.9929752e-02
-7.8872432e-02
-8.4638662e-02
-8.5610240e-02
-8.0272237e-02
-6.7078692e-02
-4.9456767e-02
-3.4060418e-02
-2.1730360e-02
-1.1081081e-02
-2.4952245e-03
4.1478703e-03
9.3135551e-03
1.4239514e-02
1.9304490e-02
2.3345135e-02
2.6132225e-02
2.8875525e-02
3.2076498e-02
3.4683735e-02
3.6706534e-02
3.9374533e-02
4.1928497e-02
4.3097928e-02
4.2490685e-02
3.9727037e-02
3.5691379e-02
3.1180040e-02
2.6251600e-02
2.1295749e-02
1.5740905e-02
9.6102317e-03
4.5743916e-03
1.6483179e-03
4.5161475e-04
-1.2760804e-04
-1.0033540e-03
-2.6241979e-03
-4.3668380e-03
-4.7495562e-03
-3.2119887e-03
-4.5731907e-04
2.7667635e-03
6.6729102e-03
1.1331489e-02
1.5810140e-02
1.9141059e-02
2.1068278e-02
2.2737780e-02
2.5057987e-02
2.7904158e-02
3.1364655e-02
3.4724778e-02
3.6903318e-02
3.6467541e-02
3.1678273e-02
2.4492276e-02
1.8534551e-02
1.3676946e-02
8.5781225e-03
2.9377079e-03
-3.5503195e-03
-1.0704665e-02
-1.7025142e-02
-2.2104138e-02
-2.6881319e-02
-3.0578745e-02
-3.2924031e-02
-3.4335470e-02
-3.4302929e-02
-3.3115688e-02
-3.1439328e-02
-2.9716143e-02
-2.8154425e-02
-2.7135988e-02
-2.7090928e-02
-2.7474739e-02
-2.8352915e-02
-2.9338357e-02
-2.8908540e-02
-2.6960796e-02
-2.4254509e-02
-2.1045358e-02
-1.7402809e-02
-1.3947550e-02
-1.0528044e-02
-6.3025395e-03
-2.0465632e-03
1.3636446e-03
4.2740927e-03
7.6303579e-03
1.2276738e-02
1.6705693e-02
1.9673365e-02
2.2453153e-02
2.5231298e-02
2.7432565e-02
2.8307602e-02
2.7406572e-02
2.5250324e-02
2.1726094e-02
1.6992320e-02
1.1169551e-02
4.9625252e-03
-9.6015786e-04
-6.5341147e-03
-1.0423012e-02
-1.2926523e-02
-1.4480222e-02
-1.4301507e-02
-1.3792329e-02
-1.3747816e-02
-1.3563932e-02
-1.3474352e-02
-1.3728288e-02
-1.4314775e-02
-1.4856471e-02
-1.5198067e-02
-1.4844091e-02
-1.2947258e-02
-1.0114540e-02
-7.5575998e-03
-5.9629233e-03
-4.6657108e-03
-2.8790277e-03
-5.3618148e-04
2.9591380e-03
6.7551918e-03
9.7887496e-03
1.2133804e-02
1.3316348e-02
1.4122213e-02
1.5675198e-02
1.7612141e-02
1.9503750e-02
2.0877160e-02
2.1895371e-02
2.3524415e-02
2.5682515e-02
2.6642100e-02
2.5161544e-02
2.2806176e-02
2.0268418e-02
1.6281437e-02
1.1574583e-02
6.9657541e-03
2.1632518e-03
-3.0587085e-03
-8.2989600e-03
-1.2743072e-02
-1.6815958e-02
-1.9982958e-02
-2.1589127e-02
-2.2510042e-02
-2.2745469e-02
-2.2222102e-02
-2.1249406e-02
-2.0211912e-02
-1.9699724e-02
-1.9280652e-02
-1.8149446e-02
-1.6088668e-02
-1.3476152e-02
-1.0684549e-02
-7.8434091e-03
-5.6928554e-03
-4.0120723e-03
-2.1212819e-03
2.0245905e-04
3.4517493e-03
7.1742783e-03
1.1041298e-02
1.5104966e-02
1.8882358e-02
2.2238836e-02
2.4681242e-02
2.5928421e-02
2.6753055e-02
2.6844509e-02
2.5178090e-02
2.1469750e-02
1.6603213e-02
1.0511627e-02
2.9870526e-03
-3.4867325e-03
-8.2700776e-03
-1.2305559e-02
-1.5031240e-02
-1.6224469e-02
-1.6514191e-02
-1.7086750e-02
-1.7703210e-02
-1.7024018e-02
-1.4656686e-02
-1.1136923e-02
-8.8543658e-03
-8.6839852e-03
-8.6684780e-03
-8.2963697e-03
-8.1563327e-03
-8.8800502e-03
-1.0927087e-02
-1.3369189e-02
-1.5298509e-02
-1.6295391e-02
-1.6337079e-02
-1.5349537e-02
-1.3016509e-02
-1.0299201e-02
-8.1806432e-03
-6.4629817e-03
-3.9764999e-03
-7.2470310e-04
2.8100630e-03
7.7175291e-03
1.3529738e-02
1.8616928e-02
2.2174428e-02
2.4038719e-02
2.4741028e-02
2.4434702e-02
2.3214077e-02
2.1023805e-02
1.7570278e-02
1.3028990e-02
7.4356563e-03
1.8645148e-03
-2.2877083e-03
-4.7249916e-03
-5.4204785e-03
-4.7872738e-03
-3.0174874e-03
-3.3841534e-04
1.8785511e-03
2.5995092e-03
1.8032939e-03
-2.6798353e-05
-2.2433004e-03
-4.5780632e-03
-6.6821798e-03
-9.6637645e-03
-1.4172475e-02
-1.8622004e-02
-2.2024589e-02
-2.3625660e-02
-2.3854844e-02
-2.2948852e-02
-2.0299583e-02
-1.7434319e-02
-1.5230290e-02
-1.3143387e-02
-1.1056865e-02
-8.4585522e-03
-4.3206252e-03
1.1199619e-03
6.1820728e-03
1.0814036e-02
1.5842059e-02
2.0798878e-02
2.5420125e-02
2.9132137e-02
3.1466432e-02
3.3249117e-02
3.4230450e-02
3.3630458e-02
3.1481706e-02
2.8039846e-02
2.3588730e-02
1.8138518e-02
1.2521191e-02
7.8881266e-03
4.7836247e-03
2.9813172e-03
1.2347867e-03
-1.2765158e-03
-4.5177887e-03
-7.2619745e-03
-8.7090404e-03
-9.3549542e-03
-1.0035710e-02
-1.2430178e-02
-1.5588645e-02
-1.7767460e-02
-2.0188808e-02
-2.2675368e-02
-2.3980639e-02
-2.3711787e-02
-2.2071066e-02
-2.0034717e-02
-1.8082722e-02
-1.6675733e-02
-1.5562835e-02
-1.4008214e-02
-1.2331296e-02
-1.1177534e-02
-1.0481782e-02
-8.8200596e-03
-5.8273817e-03
-2.8898583e-03
-5.9557837e-04
1.2960739e-03
3.3404893e-03
5.6970030e-03
8.6740953e-03
1.2865242e-02
1.7136511e-02
2.1279180e-02
2.5990567e-02
2.9495091e-02
3.1156744e-02
3.1681276e-02
3.1191770e-02
2.9921130e-02
2.7328195e-02
2.3140349e-02
1.7929928e-02
1.2872333e-02
8.0333051e-03
2.7898876e-03
-1.2428002e-03
-3.3871768e-03
-4.9989440e-03
-6.6801214e-03
-8.3249590e-03
-9.4730516e-03
-1.0381684e-02
-1.0811718e-02
-1.0391900e-02
-1.0471400e-02
-1.1163554e-02
-1.1844633e-02
-1.2537336e-02
-1.2607902e-02
-1.1983028e-02
-1.0595737e-02
-8.6186442e-03
-6.8187446e-03
-4.8814068e-03
-2.4925238e-03
-1.0452338e-04
1.3549155e-03
1.9545786e-03
2.3679742e-03
2.7408857e-03
3.3628444e-03
4.4461045e-03
7.0813585e-03
1.1577885e-02
1.6232286e-02
2.0281986e-02
2.4221296e-02
2.8477196e-02
3.2481199e-02
3.4021400e-02
3.1454898e-02
2.4891485e-02
1.5384980e-02
4.9111044e-03
-5.3768179e-03
-1.4289369e-02
-2.0862522e-02
-2.5829693e-02
-2.9244862e-02
-3.1191469e-02
-3.2243547e-02
-3.3275070e-02
-3.4439651e-02
-3.4778012e-02
-3.4661930e-02
-3.4111331e-02
-3.2830103e-02
-3.1529100e-02
-3.0470481e-02
-2.9254729e-02
-2.7131015e-02
-2.4451976e-02
-2.2072528e-02
-1.9046587e-02
-1.4366053e-02
-8.6016477e-03
-2.1303359e-03
5.2613049e-03
1.2939157e-02
1.9985287e-02
2.6678437e-02
3.2984615e-02
3.8955019e-02
4.5135545e-02
5.0169596e-02
5.3322387e-02
5.5208586e-02
5.6590178e-02
5.8029830e-02
5.8312176e-02
5.6761173e-02
5.3536070e-02
4.8763880e-02
4.3530132e-02
3.7942698e-02
3.1881167e-02
2.5230192e-02
1.7505425e-02
1.0301458e-02
4.9693621e-03
1.2815337e-03
-1.0364069e-03
-2.3318783e-03
-3.2758855e-03
-4.6103755e-03
-6.6050193e-03
-9.6548503e-03
-1.3244090e-02
-1.6066821e-02
-1.8769062e-02
-2.2656912e-02
-2.7695190e-02
-3.3147567e-02
-3.7589074e-02
-4.0275896e-02
-4.1610201e-02
-4.2146874e-02
-4.2133218e-02
-4.0986896e-02
-3.8223024e-02
-3.4120380e-02
-2.9450360e-02
-2.3684145e-02
-1.6054768e-02
-7.9174116e-03
2.1239650e-04
9.1828119e-03
1.8074261e-02
2.4980405e-02
2.8815701e-02
2.9521049e-02
2.7956589e-02
2.5281118e-02
2.2078441e-02
1.7225602e-02
1.0450280e-02
3.6173694e-03
-2.4219438e-03
-8.0379395e-03
-1.3595834e-02
-1.8174424e-02
-2.0717191e-02
-2.1656526e-02
-2.2017615e-02
-2.3199683e-02
-2.5228254e-02
-2.6844336e-02
-2.7431083e-02
-2.6850106e-02
-2.5494156e-02
-2.3546662e-02
-2.1254521e-02
-1.9153928e-02
-1.6823407e-02
-1.3740576e-02
-9.6780881e-03
-5.2315323e-03
-1.5399097e-03
1.4652260e-03
4.2846201e-03
7.3007990e-03
1.1252700e-02
1.6383517e-02
2.1655898e-02
2.6397891e-02
3.1269047e-02
3.6199046e-02
4.0110444e-02
4.2554790e-02
4.3874195e-02
4.4520627e-02
4.4328973e-02
4.3322093e-02
4.2012013e-02
3.9848440e-02
3.6243595e-02
3.0538186e-02
2.2333686e-02
1.2976887e-02
3.4485705e-03
-5.3589116e-03
-1.2788247e-02
-1.8831450e-02
-2.2989503e-02
-2.5712165e-02
-2.7564293e-02
-2.9226395e-02
-3.1375270e-02
-3.3346642e-02
-3.4807801e-02
-3.5466551e-02
-3.5504374e-02
-3.6328175e-02
-3.7808334e-02
-3.8387365e-02
-3.7649319e-02
-3.6561034e-02
-3.5302392e-02
-3.2898709e-02
-2.9620076e-02
-2.6040138e-02
-2.1833190e-02
-1.6726301e-02
-1.0536092e-02
-3.9635282e-03
2.0666294e-03
7.4987832e-03
1.2249827e-02
1.6645601e-02
2.1034926e-02
2.5566979e-02
3.0361561e-02
3.4300954e-02
3.6828970e-02
3.8808996e-02
4.1286936e-02
4.4525578e-02
4.7588823e-02
4.9444264e-02
4.9335007e-02
4.7258916e-02
4.3123172e-02
3.6679842e-02
2.9162011e-02
2.1059092e-02
1.1568663e-02
8.1218456e-04
-9.9386573e-03
-1.8774673e-02
-2.5425573e-02
-3.0625458e-02
-3.4589641e-02
-3.7152698e-02
-3.7658390e-02
-3.7248875e-02
-3.6505712e-02
-3.5033551e-02
-3.4401706e-02
-3.4460660e-02
-3.3994475e-02
-3.3306648e-02
-3.2541172e-02
-3.1428006e-02
-2.9425237e-02
-2.6763824e-02
-2.3478289e-02
-1.9350643e-02
-1.5298179e-02
-1.1255622e-02
-6.7271455e-03
-7.2624339e-04
8.1256591e-03
1.8176246e-02
2.6678658e-02
3.2570897e-02
3.6438429e-02
3.9298426e-02
4.0924504e-02
4.0768319e-02
3.8528925e-02
3.4272227e-02
2.8013078e-02
2.0390054e-02
1.3370046e-02
7.8671780e-03
4.0002962e-03
1.4298413e-03
-7.3722234e-04
-2.7349330e-03
-4.8193527e-03
-6.9705743e-03
-8.9517152e-03
-1.1294557e-02
-1.3839819e-02
-1.5872156e-02
-1.7092825e-02
-1.7084296e-02
-1.6263690e-02
-1.5670393e-02
-1.5511824e-02
-1.4541246e-02
-1.2660854e-02
-1.1046817e-02
-9.0672542e-03
-6.2194150e-03
-2.5550416e-03
1.7092868e-03
5.1709677e-03
7.9056319e-03
1.0900667e-02
1.4140275e-02
1.7389076e-02
2.0296820e-02
2.2976210e-02
2.5011620e-02
2.6554326e-02
2.8417630e-02
2.9281542e-02
2.7810231e-02
2.4536819e-02
2.1154959e-02
1.7882873e-02
1.3443980e-02
8.1035280e-03
2.6955318e-03
-2.0123451e-03
-6.2523544e-03
-1.0276636e-02
-1.3186097e-02
-1.5541433e-02
-1.7632703e-02
-1.8897444e-02
-2.0264763e-02
-2.2215558e-02
-2.4545668e-02
-2.7247981e-02
-2.9546985e-02
-3.1094545e-02
-3.2113978e-02
-3.2650771e-02
-3.1841813e-02
-2.8761724e-02
-2.4738741e-02
-2.0698117e-02
-1.6325151e-02
-1.1608210e-02
-6.3545528e-03
-1.0618716e-03
4.5000407e-03
1.0372024e-02
1.6121633e-02
2.2299846e-02
2.8842220e-02
3.5736692e-02
4.2005917e-02
4.6749127e-02
5.0341506e-02
5.2290333e-02
5.2263579e-02
5.0820345e-02
4.8529576e-02
4.5006715e-02
3.9577288e-02
3.2058875e-02
2.2817060e-02
1.3552906e-02
5.5751284e-03
-1.3437294e-03
-7.3699745e-03
-1.2782030e-02
-1.7834044e-02
-2.2639017e-02
-2.7555164e-02
-3.1524061e-02
-3.3856065e-02
-3.5402535e-02
-3.6670621e-02
-3.7893535e-02
-3.8864351e-02
-3.9569600e-02
-3.9700273e-02
-3.8159647e-02
-3.4595912e-02
-2.9181196e-02
-2.2634493e-02
-1.6453681e-02
-1.1768053e-02
-8.9003911e-03
-6.0456134e-03
-1.3835357e-03
3.5100540e-03
7.5015485e-03
1.1101918e-02
1.4582092e-02
1.8278073e-02
2.2831575e-02
2.7743740e-02
3.1081797e-02
3.2713800e-02
3.3231268e-02
3.2490961e-02
3.0366639e-02
2.6604928e-02
2.1615894e-02
1.5435761e-02
8.1585621e-03
8.2464549e-04
-6.2976064e-03
-1.2772385e-02
-1.8615269e-02
-2.4475045e-02
-2.9329949e-02
-3.2686012e-02
-3.5466446e-02
-3.8091125e-02
-4.0501085e-02
-4.2512471e-02
-4.3545753e-02
-4.2917703e-02
-4.1271873e-02
-3.9694792e-02
-3.8157934e-02
-3.6767712e-02
-3.5373721e-02
-3.3308863e-02
-2.9861336e-02
-2.4740758e-02
-1.8603506e-02
-1.1855131e-02
-5.4406528e-03
-7.8142022e-05
4.8525702e-03
9.6537470e-03
1.4513660e-02
1.9334399e-02
2.4530993e-02
3.1017717e-02
3.7427877e-02
4.2247270e-02
4.5877948e-02
4.8802592e-02
5.0369706e-02
4.9625469e-02
4.6957932e-02
4.2481193e-02
3.6261229e-02
2.9075957e-02
2.1590176e-02
1.5328954e-02
1.0882905e-02
8.3571609e-03
8.1854154e-03
9.4704529e-03
1.1853003e-02
1.4948194e-02
1.7852324e-02
2.0385372e-02
2.2025156e-02
2.2905263e-02
2.3593979e-02
2.4662795e-02
2.6812048e-02
2.9615264e-02
3.3189617e-02
3.7313326e-02
4.1524551e-02
4.5972146e-02
4.8622112e-02
4.8106806e-02
4.5279111e-02
3.9141417e-02
2.6843424e-02
1.0691261e-02
-2.1242829e-03
-9.6624684e-03
-1.3736024e-02
-1.4847161e-02
-1.4310645e-02
-1.3420363e-02
-1.3161998e-02
-1.4034036e-02
-1.5754499e-02
-1.9076939e-02
-2.4432507e-02
-3.1845827e-02
-4.1770047e-02
-5.2830160e-02
-6.2694682e-02
-7.1072301e-02
-7.9009140e-02
-8.6211347e-02
-9.1720451e-02
-9.5168107e-02
-9.5400065e-02
-9.2564911e-02
-8.7698563e-02
-7.9545249e-02
-6.9438354e-02
-6.0760041e-02
-5.3851969e-02
-4.8840275e-02
-4.5482445e-02
-4.2423777e-02
-3.9257997e-02
-3.6030516e-02
-3.2123455e-02
-2.7092524e-02
-2.1251282e-02
-1.4169976e-02
-5.6292619e-03
3.8903289e-03
1.3949396e-02
2.3810472e-02
3.3552751e-02
4.2898712e-02
5.1260760e-02
5.9252684e-02
6.5337512e-02
6.8060916e-02
6.9000621e-02
6.8466567e-02
6.4754381e-02
5.7609195e-02
4.9880688e-02
4.4029368e-02
3.9575568e-02
3.4822978e-02
2.8860121e-02
2.2573791e-02
1.6886944e-02
1.1202190e-02
5.1573646e-03
-3.3232579e-04
-4.5170898e-03
-7.7471091e-03
-9.9258597e-03
-1.1079224e-02
-1.2746986e-02
-1.4883357e-02
-1.6794246e-02
-1.8906210e-02
-2.0730235e-02
-2.2026796e-02
-2.2572501e-02
-2.2831342e-02
-2.2929465e-02
-2.1160892e-02
-1.8361666e-02
-1.5662631e-02
-1.3319234e-02
-1.1534091e-02
-9.5398807e-03
-8.3712989e-03
-8.1889889e-03
-7.5761150e-03
-6.1111866e-03
-4.1607958e-03
-2.8140178e-03
-1.8704007e-03
-1.1714747e-03
-4.2999891e-04
1.5198928e-03
3.6729929e-03
4.8954734e-03
4.8388322e-03
3.9085867e-03
3.6642607e-03
4.5232970e-03
5.9630843e-03
6.9689102e-03
7.2909460e-03
7.8726241e-03
8.0728451e-03
7.7684464e-03
7.8970519e-03
8.8818320e-03
1.1501592e-02
1.4681320e-02
1.7482376e-02
2.0622657e-02
2.4400969e-02
2.8567063e-02
3.2068756e-02
3.4832727e-02
3.7351484e-02
3.9601917e-02
4.2138320e-02
4.4807921e-02
4.7273811e-02
4.9326130e-02
5.0320073e-02
5.0421363e-02
4.8988295e-02
4.5147092e-02
3.8276939e-02
2.6869403e-02
1.0173599e-02
-8.0964068e-03
-2.1274894e-02
-2.8437644e-02
-3.1508060e-02
-3.1100754e-02
-2.9808174e-02
-2.8909843e-02
-2.7678015e-02
-2.6087699e-02
-2.4533260e-02
-2.3307898e-02
-2.1896252e-02
-2.1171507e-02
-2.2805487e-02
-2.6908008e-02
-3.2613225e-02
-3.7654889e-02
-4.1081657e-02
-4.3053007e-02
-4.3266711e-02
-4.2590405e-02
-4.0574424e-02
-3.6085288e-02
-2.9628648e-02
-2.1101554e-02
-1.1621838e-02
-3.9597189e-03
1.0135709e-03
4.1898714e-03
6.8599846e-03
8.5344641e-03
8.9432518e-03
9.4244639e-03
9.8774793e-03
9.9296225e-03
9.8160050e-03
9.7911940e-03
1.0128041e-02
1.0701937e-02
1.1354966e-02
1.1883697e-02
1.2791310e-02
1.4026117e-02
1.4639987e-02
1.5566452e-02
1.7708267e-02
2.0970882e-02
2.4658880e-02
2.7633095e-02
2.9130273e-02
2.8968600e-02
2.9471428e-02
3.1156233e-02
3.1874790e-02
3.1843114e-02
3.0898669e-02
2.8406493e-02
2.4859095e-02
2.0244793e-02
1.4807751e-02
9.2028624e-03
4.4706535e-03
1.2759550e-03
-8.1768414e-04
-2.1212349e-03
-3.1163303e-03
-4.2336433e-03
-5.3838508e-03
-5.6693982e-03
-4.5646835e-03
-3.9384566e-03
-4.9394507e-03
-7.6520419e-03
-1.1793228e-02
-1.6429881e-02
-2.1906119e-02
-2.6603553e-02
-2.8580862e-02
-2.9127962e-02
-2.9288569e-02
-2.9134728e-02
-2.8163067e-02
-2.6433662e-02
-2.4398796e-02
-2.1385992e-02
-1.7844497e-02
-1.3856258e-02
-9.4141664e-03
-5.6882577e-03
-2.3501983e-03
2.5268385e-04
2.2913157e-03
5.3235928e-03
9.5426333e-03
1.4430403e-02
1.8487998e-02
2.1650268e-02
2.4872432e-02
2.7338507e-02
2.8096138e-02
2.6378206e-02
2.2657656e-02
1.7977324e-02
1.2190125e-02
5.8570428e-03
1.8071937e-04
-3.6753977e-03
-5.6006982e-03
-6.9569587e-03
-8.1986029e-03
-9.0685818e-03
-9.2198546e-03
-8.6206689e-03
-7.8232365e-03
-6.9639362e-03
-6.3259892e-03
-6.3830392e-03
-7.3984685e-03
-8.6592581e-03
-9.4019666e-03
-1.0045121e-02
-9.8488330e-03
-7.5942588e-03
-2.8287224e-03
4.3261759e-03
1.2256691e-02
1.9667036e-02
2.5524200e-02
2.8758415e-02
3.0280134e-02
3.1587180e-02
3.3361748e-02
3.5717218e-02
3.8916457e-02
4.2648736e-02
4.5460667e-02
4.7334305e-02
4.9081545e-02
5.0934622e-02
5.3134384e-02
5.5035156e-02
5.6305593e-02
5.6746980e-02
5.5951798e-02
5.4256507e-02
5.0635220e-02
4.4836530e-02
3.8173281e-02
3.0934491e-02
2.3305288e-02
1.5165181e-02
6.9780408e-03
-1.7007264e-04
-6.3919559e-03
-1.1615726e-02
-1.5836332e-02
-1.9580044e-02
-2.3470911e-02
-2.7544773e-02
-3.1325434e-02
-3.5375294e-02
-3.9643736e-02
-4.4085879e-02
-4.9236906e-02
-5.4445930e-02
-5.8871646e-02
-6.1670367e-02
-6.2660005e-02
-6.2381678e-02
-6.0490041e-02
-5.6555768e-02
-5.0904662e-02
-4.5123888e-02
-3.9735861e-02
-3.2708159e-02
-2.4227246e-02
-1.6193500e-02
-9.2674258e-03
-3.2256709e-03
2.5043912e-03
7.7027479e-03
1.2619516e-02
1.7264183e-02
2.0566411e-02
2.2152447e-02
2.2472121e-02
2.1478447e-02
1.8683289e-02
1.4941344e-02
1.1237694e-02
7.5003610e-03
3.5995781e-03
-1.9023346e-04
-3.2381547e-03
-5.8092357e-03
-8.1415801e-03
-9.7369050e-03
-1.1131624e-02
-1.2350075e-02
-1.3054832e-02
-1.4235197e-02
-1.6269905e-02
-1.8398132e-02
-1.9550745e-02
-1.9173126e-02
-1.7748721e-02
-1.5828042e-02
-1.3789057e-02
-1.1219592e-02
-7.4579585e-03
-3.4083067e-03
4.2521343e-04
5.1197928e-03
1.1454355e-02
1.8706294e-02
2.5127808e-02
3.0653393e-02
3.6188817e-02
4.1308407e-02
4.5890814e-02
4.9539278e-02
5.1281569e-02
5.0785659e-02
4.7619026e-02
4.0960467e-02
3.0941929e-02
1.9782980e-02
8.7518140e-03
-2.5841324e-03
-1.4003476e-02
-2.5751834e-02
-3.7445873e-02
-4.7312973e-02
-5.4520229e-02
-5.9742026e-02
-6.4389610e-02
-6.8210037e-02
-7.0605507e-02
-7.2190523e-02
-7.3177409e-02
-7.3413434e-02
-7.2836293e-02
-7.1933398e-02
-7.0599681e-02
-6.8122149e-02
-6.4305645e-02
-5.9410644e-02
-5.3561472e-02
-4.4722762e-02
-3.0682422e-02
-1.3477993e-02
3.2234760e-03
1.7840076e-02
3.0099790e-02
4.0525369e-02
4.9760612e-02
5.8335906e-02
6.6238250e-02
7.3253172e-02
7.9853700e-02
8.5989815e-02
9.1869796e-02
9.7621594e-02
1.0247355e-01
1.0555090e-01
1.0637245e-01
1.0479820e-01
9.9736605e-02
9.1845510e-02
8.3042391e-02
7.2130028e-02
5.8410449e-02
4.2477681e-02
2.3879336e-02
2.2564388e-03
-2.0010176e-02
-3.7715438e-02
-4.9810454e-02
-5.8067878e-02
-6.3372689e-02
-6.7142139e-02
-6.9512829e-02
-7.0697284e-02
-7.1726541e-02
-7.3273489e-02
-7.6025090e-02
-7.8854278e-02
-7.9679556e-02
-7.7874555e-02
-7.4544293e-02
-7.1637075e-02
-6.9204988e-02
-6.6384295e-02
-6.2350682e-02
-5.6516370e-02
-5.0153026e-02
-4.3116187e-02
-3.3755894e-02
-2.1322530e-02
-5.5332550e-03
1.1478516e-02
2.6560283e-02
3.9104538e-02
4.9427223e-02
5.7119867e-02
6.1664777e-02
6.3190177e-02
6.1839164e-02
5.7556806e-02
5.1358920e-02
4.4584224e-02
3.7602328e-02
3.0621482e-02
2.4719830e-02
1.9541349e-02
1.4464414e-02
1.0564419e-02
7.2847169e-03
3.8651783e-03
6.9691210e-04
-2.3618895e-03
-5.1055221e-03
-7.7729947e-03
-1.0501172e-02
-1.3324211e-02
-1.6781855e-02
-2.0282941e-02
-2.3119613e-02
-2.4870391e-02
-2.5906415e-02
-2.6452795e-02
-2.5888444e-02
-2.4950900e-02
-2.3857564e-02
-2.1872808e-02
-1.9028108e-02
-1.5618017e-02
-1.1496480e-02
-6.2655679e-03
-1.1992192e-03
2.9609548e-03
7.0428016e-03
1.0583208e-02
1.4239960e-02
1.8841371e-02
2.2789618e-02
2.5307307e-02
2.6660552e-02
2.7770911e-02
2.9417912e-02
3.0111457e-02
2.8630739e-02
2.5099337e-02
2.0152544e-02
1.4671662e-02
9.4106104e-03
5.2528808e-03
1.5150430e-03
-2.3620807e-03
-5.4120853e-03
-7.2379652e-03
-8.2507213e-03
-1.0453155e-02
-1.4185555e-02
-1.7584071e-02
-2.0522069e-02
-2.2763988e-02
-2.4012152e-02
-2.5120519e-02
-2.6156127e-02
-2.6492896e-02
-2.6366323e-02
-2.6331602e-02
-2.5488075e-02
-2.2782779e-02
-1.8873422e-02
-1.4939952e-02
-1.1219400e-02
-7.4750436e-03
-3.3631417e-03
1.2165429e-03
5.7996802e-03
1.0320324e-02
1.4473915e-02
1.7888156e-02
2.1275579e-02
2.5060140e-02
2.8091184e-02
3.0079790e-02
3.1958225e-02
3.3087018e-02
3.2251589e-02
2.9022945e-02
2.4425576e-02
1.9239914e-02
1.2713423e-02
5.4191541e-03
-1.5154888e-03
-7.1221539e-03
-1.1145347e-02
-1.4497533e-02
-1.6889873e-02
-1.8534988e-02
-1.9822779e-02
-2.0048294e-02
-1.9344876e-02
-1.8079861e-02
-1.7016443e-02
-1.6497016e-02
-1.5705095e-02
-1.4346754e-02
-1.3001410e-02
-1.2302615e-02
-1.1943435e-02
-1.1635001e-02
-1.0053253e-02
-6.1699596e-03
-2.4378784e-03
-4.8638122e-05
2.5109534e-03
5.5781373e-03
9.0941669e-03
1.3125952e-02
1.7223962e-02
2.0769292e-02
2.3464495e-02
2.4997286e-02
2.4540683e-02
2.2543614e-02
2.0029036e-02
1.7300858e-02
1.4625252e-02
1.0935485e-02
5.2597443e-03
-1.2214399e-03
-7.4598324e-03
-1.3383686e-02
-2.0126498e-02
-2.7401598e-02
-3.3095628e-02
-3.7097888e-02
-3.9759738e-02
-4.1348536e-02
-4.2117737e-02
-4.1925393e-02
-4.1528963e-02
-4.1216704e-02
-3.9886445e-02
-3.6354388e-02
-3.0037606e-02
-2.0988976e-02
-1.1341008e-02
-3.2265334e-03
4.6138726e-03
1.2772197e-02
2.0220010e-02
2.7040815e-02
3.2564520e-02
3.6951713e-02
4.1355680e-02
4.5347079e-02
4.8873146e-02
5.2574478e-02
5.7564575e-02
6.4471496e-02
7.1440661e-02
7.6594062e-02
7.9488030e-02
8.0079617e-02
7.7896043e-02
7.2169424e-02
6.3015763e-02
4.9836126e-02
3.1842575e-02
9.3720583e-03
-1.5200265e-02
-3.7262423e-02
-5.5143976e-02
-6.9757565e-02
-8.1015182e-02
-8.8323183e-02
-9.2082099e-02
-9.4056968e-02
-9.5188974e-02
-9.6236370e-02
-9.8204492e-02
-1.0037193e-01
-1.0184244e-01
-1.0218281e-01
-1.0139067e-01
-1.0038895e-01
-9.9032180e-02
-9.6029713e-02
-9.0308178e-02
-8.1816420e-02
-7.1055324e-02
-5.8491990e-02
-4.4965012e-02
-3.0606274e-02
-1.4955515e-02
1.6428298e-03
1.7350319e-02
3.0690408e-02
4.2065867e-02
5.1465193e-02
5.9260404e-02
6.5959313e-02
7.0211562e-02
7.2524060e-02
7.4399084e-02
7.5118477e-02
7.4490906e-02
7.3015850e-02
7.0919765e-02
6.7366045e-02
6.1708058e-02
5.5237045e-02
4.8056942e-02
4.0056975e-02
3.2270156e-02
2.5426492e-02
2.0203360e-02
1.6728560e-02
1.4922540e-02
1.5241279e-02
1.7180772e-02
1.8793233e-02
1.8476555e-02
1.6556274e-02
1.4056697e-02
1.1918038e-02
1.0679968e-02
9.3970712e-03
8.1011049e-03
7.2351881e-03
6.9920075e-03
8.0777254e-03
9.4555973e-03
1.0252129e-02
1.0837278e-02
1.1548906e-02
1.2838551e-02
1.4337236e-02
1.5636484e-02
1.6794534e-02
1.7771403e-02
1.8445356e-02
1.8866071e-02
1.9254980e-02
1.8906829e-02
1.8244239e-02
1.8062322e-02
1.7749580e-02
1.7770123e-02
1.8109805e-02
1.7916032e-02
1.6556452e-02
1.2897063e-02
6.7546060e-03
-8.0587670e-04
-8.1899017e-03
-1.4218539e-02
-1.8871280e-02
-2.2159979e-02
-2.4183091e-02
-2.4604509e-02
-2.3302629e-02
-2.2001880e-02
-2.1644978e-02
-2.1852320e-02
-2.2282803e-02
-2.2894441e-02
-2.3864725e-02
-2.4320450e-02
-2.4566901e-02
-2.5776146e-02
-2.7485210e-02
-2.9674222e-02
-3.1699074e-02
-3.2647862e-02
-3.3060504e-02
-3.3163556e-02
-3.2756934e-02
-3.1512192e-02
-2.9897764e-02
-2.8168377e-02
-2.6297098e-02
-2.4823372e-02
-2.2818964e-02
-2.0258181e-02
-1.7491279e-02
-1.4235987e-02
-1.2031883e-02
-1.1304918e-02
-1.1242407e-02
-1.0748820e-02
-9.4022752e-03
-7.9290799e-03
-5.6977172e-03
-2.8261211e-03
2.9459368e-04
3.6636665e-03
6.2034135e-03
7.4911758e-03
7.7876007e-03
7.8062960e-03
7.7205449e-03
7.0526511e-03
6.5937113e-03
6.7042816e-03
6.8969322e-03
6.7091013e-03
6.0598544e-03
5.8758975e-03
6.1363291e-03
6.6798104e-03
7.4458807e-03
8.4825642e-03
1.0496101e-02
1.2410718e-02
1.3161106e-02
1.2986241e-02
1.2013286e-02
9.9349408e-03
5.1073371e-03
-1.8517241e-03
-7.1624196e-03
-9.1035044e-03
-8.1390301e-03
-5.5520336e-03
-1.3485630e-03
5.0787971e-03
1.2341384e-02
1.9402994e-02
2.5721415e-02
3.1573798e-02
3.6967351e-02
4.0693222e-02
4.2393270e-02
4.1350155e-02
3.7874838e-02
3.3503916e-02
2.9010704e-02
2.5109528e-02
2.1852979e-02
1.8580636e-02
1.5057937e-02
1.2304477e-02
1.1010381e-02
1.0391456e-02
9.9264788e-03
8.3658107e-03
4.5111461e-03
-1.0833764e-03
-8.0161535e-03
-1.4828922e-02
-2.0149481e-02
-2.4539605e-02
-2.7841684e-02
-2.9356979e-02
-2.9168325e-02
-2.8607271e-02
-2.8079261e-02
-2.6894239e-02
-2.5591683e-02
-2.4150937e-02
-2.2091920e-02
-1.8497920e-02
-1.2876536e-02
-6.8143177e-03
-1.2286748e-03
3.7171427e-03
8.0319917e-03
1.2468990e-02
1.7304218e-02
2.2768245e-02
2.8778585e-02
3.4473995e-02
3.9055513e-02
4.1535904e-02
4.1283078e-02
3.7631554e-02
3.1505344e-02
2.4873118e-02
1.7283409e-02
9.3248078e-03
2.2836355e-03
-4.1047948e-03
-1.0118475e-02
-1.6199112e-02
-2.1448148e-02
-2.5205983e-02
-2.8604038e-02
-3.1963539e-02
-3.4269778e-02
-3.5045873e-02
-3.5464852e-02
-3.5680180e-02
-3.4480476e-02
-3.1979594e-02
-2.9259307e-02
-2.7805707e-02
-2.7635309e-02
-2.6881346e-02
-2.5071097e-02
-2.2333840e-02
-1.8702037e-02
-1.5202075e-02
-1.2346885e-02
-9.6240908e-03
-6.2809805e-03
-2.4943542e-03
1.3176335e-03
5.2237001e-03
8.3680794e-03
1.0508108e-02
1.2486884e-02
1.4574994e-02
1.6483025e-02
1.7490862e-02
1.7087890e-02
1.5298786e-02
1.1992858e-02
6.8869011e-03
4.7041114e-04
-6.8658884e-03
-1.5201446e-02
-2.3139770e-02
-2.9496788e-02
-3.4955647e-02
-3.9494621e-02
-4.2203475e-02
-4.2255635e-02
-3.9723704e-02
-3.5959734e-02
-3.1757692e-02
-2.6884742e-02
-2.0524243e-02
-1.3112565e-02
-5.8793275e-03
9.0274847e-04
6.9966364e-03
1.2408040e-02
1.6225374e-02
1.8134935e-02
2.0116846e-02
2.2219065e-02
2.3387839e-02
2.3465683e-02
2.1558035e-02
1.8141639e-02
1.5482077e-02
1.5070026e-02
1.6096505e-02
1.7149612e-02
1.8459078e-02
1.9936130e-02
2.2188386e-02
2.6013955e-02
2.9318438e-02
3.0673655e-02
3.0200599e-02
2.8428389e-02
2.6670650e-02
2.5123425e-02
2.2774209e-02
1.8495651e-02
1.2756060e-02
6.5564996e-03
3.6433518e-04
-4.6853866e-03
-8.5965690e-03
-1.1172735e-02
-1.1339069e-02
-8.8079222e-03
-4.4846665e-03
-7.8836672e-04
1.1689992e-03
1.5708079e-03
1.2396533e-03
1.3477502e-03
1.5346481e-03
1.7753156e-03
2.5724266e-03
3.5634192e-03
4.5822536e-03
6.0095512e-03
8.6506347e-03
1.2275846e-02
1.5620318e-02
1.8186636e-02
2.0054468e-02
2.2086953e-02
2.4129579e-02
2.5494699e-02
2.6882595e-02
2.8228762e-02
2.9037686e-02
2.8692554e-02
2.6703371e-02
2.4113767e-02
2.1364185e-02
1.8131470e-02
1.4616001e-02
1.0909225e-02
6.6125107e-03
1.4499806e-03
-3.5564104e-03
-8.3079992e-03
-1.3094874e-02
-1.7389699e-02
-2.1266674e-02
-2.4122349e-02
-2.5671690e-02
-2.6093075e-02
-2.5642814e-02
-2.5370004e-02
-2.5650422e-02
-2.6074395e-02
-2.5726072e-02
-2.4231492e-02
-2.2261103e-02
-1.9478984e-02
-1.6007138e-02
-1.2951366e-02
-1.0839587e-02
-9.8415814e-03
-9.2413173e-03
-8.0992731e-03
-5.8187527e-03
-2.6828403e-03
7.5485097e-04
5.1012760e-03
1.0895128e-02
1.8179025e-02
2.5576997e-02
3.1044430e-02
3.5086845e-02
3.8486373e-02
4.1122761e-02
4.2800455e-02
4.2702472e-02
4.1558008e-02
4.0140216e-02
3.8220866e-02
3.5830389e-02
3.2409362e-02
2.8334271e-02
2.4235697e-02
2.0430979e-02
1.7444249e-02
1.4584693e-02
1.1963768e-02
9.8216646e-03
7.5261475e-03
4.8391107e-03
1.2184431e-03
-2.6715628e-03
-5.6592063e-03
-7.4157303e-03
-8.7092348e-03
-1.0594100e-02
-1.1839559e-02
-1.2339733e-02
-1.3729957e-02
-1.5710700e-02
-1.7797891e-02
-1.9672235e-02
-2.0656286e-02
-2.0498555e-02
-1.9063702e-02
-1.6922692e-02
-1.4691747e-02
-1.3434006e-02
-1.4322323e-02
-1.6182228e-02
-1.7202479e-02
-1.6595930e-02
-1.4813178e-02
-1.2646671e-02
-1.0716766e-02
-1.0754763e-02
-1.3456589e-02
-1.7949401e-02
-2.2966286e-02
-2.6585050e-02
-2.8146713e-02
-2.8390061e-02
-2.7533367e-02
-2.5234591e-02
-2.1465051e-02
-1.7240316e-02
-1.3028307e-02
-8.5975429e-03
-4.4561160e-03
-1.0673167e-03
1.3367592e-03
3.1288688e-03
5.5734431e-03
9.9281780e-03
1.5269106e-02
1.9259924e-02
2.1258682e-02
2.1384518e-02
2.0291775e-02
1.8981761e-02
1.7536875e-02
1.5837274e-02
1.3888794e-02
1.2334393e-02
1.1745419e-02
1.1674276e-02
1.2120124e-02
1.3631826e-02
1.6557624e-02
2.0296843e-02
2.3582413e-02
2.6189440e-02
2.8002223e-02
2.8766328e-02
2.8488774e-02
2.6904156e-02
2.3903735e-02
1.8822192e-02
1.0189318e-02
-1.3288720e-03
-1.1864627e-02
-1.9419747e-02
-2.5380361e-02
-3.0045061e-02
-3.2691566e-02
-3.3570490e-02
-3.3316630e-02
-3.3356704e-02
-3.3783318e-02
-3.3344677e-02
-3.2374243e-02
-3.0797330e-02
-2.8226858e-02
-2.4883595e-02
-2.1270830e-02
-1.8291779e-02
-1.5988515e-02
-1.3854975e-02
-1.1337007e-02
-8.6227325e-03
-6.4286255e-03
-5.3009799e-03
-5.7627176e-03
-7.0702853e-03
-8.3080959e-03
-8.1508092e-03
-5.7562075e-03
-2.7332487e-03
8.9426415e-04
6.4071225e-03
1.2542991e-02
1.7060346e-02
1.9118724e-02
1.9143293e-02
1.7975443e-02
1.6552459e-02
1.5887732e-02
1.5746156e-02
1.5555110e-02
1.5088778e-02
1.4042523e-02
1.2703039e-02
1.1407803e-02
1.0824585e-02
1.0005746e-02
7.2315430e-03
3.0651724e-03
-2.0814404e-03
-7.3406141e-03
-1.1528585e-02
-1.5269452e-02
-1.8568606e-02
-2.1942060e-02
-2.6536205e-02
-3.1756423e-02
-3.6422879e-02
-3.9592416e-02
-4.1274407e-02
-4.2073186e-02
-4.2807180e-02
-4.3459225e-02
-4.3132006e-02
-4.2468493e-02
-4.0975721e-02
-3.7872451e-02
-3.4414141e-02
-3.0759864e-02
-2.7259125e-02
-2.4696650e-02
-2.2308949e-02
-1.8730293e-02
-1.3606207e-02
-7.2757446e-03
1.2803419e-03
1.1624932e-02
2.0023611e-02
2.4797177e-02
2.7677230e-02
2.9942893e-02
3.1067038e-02
3.0975201e-02
3.0713388e-02
3.0297837e-02
2.9632543e-02
2.9247311e-02
2.9146522e-02
2.8389552e-02
2.6341077e-02
2.3993743e-02
2.1594169e-02
1.8943835e-02
1.6621265e-02
1.3828491e-02
1.0500157e-02
7.9017352e-03
6.7381043e-03
7.2556376e-03
