4.7914764e-03
6.0369464e-04
-2.6997495e-03
-5.4712691e-03
-7.3816313e-03
-8.1226884e-03
-8.1560701e-03
-7.7329756e-03
-6.5520804e-03
-4.9417595e-03
-4.6884453e-03
-6.0734885e-03
-7.4344936e-03
-7.9674845e-03
-7.9006576e-03
-8.5508696e-03
-1.0260090e-02
-1.1701039e-02
-1.2824859e-02
-1.4253009e-02
-1.5862623e-02
-1.7194478e-02
-1.7827331e-02
-1.7405884e-02
-1.5017757e-02
-1.0782303e-02
-6.4891309e-03
-3.0011190e-03
-6.6287370e-05
2.0149778e-03
2.6083403e-03
2.4727349e-03
2.6287177e-03
3.2547498e-03
4.3580574e-03
5.6722923e-03
7.2857788e-03
8.4674090e-03
8.7201055e-03
8.9042681e-03
8.7407421e-03
8.4914639e-03
8.5382115e-03
8.5454335e-03
8.7824797e-03
8.7739294e-03
8.4979722e-03
7.7655101e-03
6.2101892e-03
4.5062625e-03
2.9850478e-03
1.6688461e-03
-1.8987186e-04
-2.7160326e-03
-4.5716593e-03
-5.9175043e-03
-7.4343282e-03
-8.8125050e-03
-1.0217151e-02
-1.1582023e-02
-1.2146719e-02
-1.1451197e-02
-1.0339839e-02
-9.4694642e-03
-8.0739129e-03
-6.4204235e-03
-5.2791545e-03
-4.6050951e-03
-4.1457395e-03
-3.2594247e-03
-1.9695101e-03
-9.9515151e-04
-1.0295433e-03
-1.4916508e-03
-8.1986184e-04
1.0168913e-03
3.1560501e-03
4.8010774e-03
6.2783626e-03
8.7395726e-03
1.1649305e-02
1.3821323e-02
1.4949112e-02
1.5072060e-02
1.4117139e-02
1.2072707e-02
9.5981548e-03
7.0687747e-03
4.5340079e-03
2.3048478e-03
2.8146315e-04
-1.5154722e-03
-3.1707733e-03
-4.4084705e-03
-4.8634590e-03
-5.2883942e-03
-5.7596275e-03
-6.5494870e-03
-8.2584513e-03
-1.0549330e-02
-1.3257330e-02
-1.5669906e-02
-1.6906702e-02
-1.6580123e-02
-1.4915497e-02
-1.2918480e-02
-1.0843220e-02
-8.5303415e-03
-5.6815959e-03
-2.2026289e-03
1.2172467e-03
4.7171260e-03
8.1588746e-03
1.0552805e-02
1.1549768e-02
1.1170097e-02
9.8645938e-03
8.3373508e-03
7.6164257e-03
7.8920860e-03
8.0936425e-03
7.9011687e-03
7.1965215e-03
6.0116862e-03
4.3024141e-03
2.2516408e-03
9.0235262e-04
9.7490577e-05
-4.7800813e-04
1.2585436e-05
1.6669429e-03
3.4340640e-03
4.4581114e-03
5.0029411e-03
5.1590431e-03
4.0675668e-03
2.1492306e-03
5.2900678e-04
-1.7278198e-04
-4.5594380e-04
-1.7742981e-03
-3.9960497e-03
-5.8921173e-03
-7.2149751e-03
-8.5850323e-03
-9.7356263e-03
-1.0172303e-02
-9.8803246e-03
-8.0280449e-03
-4.9892978e-03
-2.0783201e-03
6.5982370e-04
3.6340032e-03
7.0163945e-03
9.9057103e-03
1.1661480e-02
1.3158790e-02
1.5031912e-02
1.6489659e-02
1.6295721e-02
1.5469486e-02
1.5880148e-02
1.6692331e-02
1.6834501e-02
1.6424733e-02
1.5628867e-02
1.4542274e-02
1.2809288e-02
1.0697560e-02
8.5849089e-03
6.1492369e-03
2.9367104e-03
-5.6130688e-04
-2.9611966e-03
-4.6500981e-03
-6.9902318e-03
-9.8523665e-03
-1.2030047e-02
-1.2971596e-02
-1.3666517e-02
-1.4898685e-02
-1.6716533e-02
-1.8187931e-02
-1.7983834e-02
-1.7057125e-02
-1.6216299e-02
-1.5176108e-02
-1.4130641e-02
-1.2683787e-02
-1.0538010e-02
-7.7380165e-03
-4.7857002e-03
-2.3100041e-03
-3.7278383e-04
6.5764850e-04
9.9525902e-04
1.4905861e-03
2.7438646e-03
5.5178657e-03
9.2505905e-03
1.2212677e-02
1.4053284e-02
1.5590310e-02
1.7059068e-02
1.8093667e-02
1.9211721e-02
2.0802801e-02
2.1862986e-02
2.1475376e-02
1.9581374e-02
1.7174023e-02
1.4790462e-02
1.2292472e-02
1.0383330e-02
9.1622274e-03
7.9858797e-03
6.3446802e-03
4.4843821e-03
3.4911937e-03
3.5560602e-03
4.2313801e-03
4.7309673e-03
3.9703484e-03
1.8121863e-03
-2.0689750e-03
-7.4169763e-03
-1.2340368e-02
-1.5615038e-02
-1.7413523e-02
-1.8904047e-02
-1.9732802e-02
-1.8472733e-02
-1.5739606e-02
-1.2725026e-02
-1.0182796e-02
-8.5983382e-03
-7.7366712e-03
-6.7860929e-03
-5.2306500e-03
-2.9971596e-03
7.0111521e-05
3.4800430e-03
6.2569242e-03
8.2586969e-03
9.5558463e-03
9.3846317e-03
7.1959362e-03
4.1119559e-03
1.1613639e-03
-2.3230318e-03
-6.1248641e-03
-9.2249083e-03
-1.1950197e-02
-1.4599216e-02
-1.6735782e-02
-1.8910854e-02
-2.1899734e-02
-2.4269237e-02
-2.4791120e-02
-2.4594621e-02
-2.3981407e-02
-2.2623415e-02
-2.0450230e-02
-1.7439355e-02
-1.4768002e-02
-1.2324517e-02
-9.1041963e-03
-5.2482978e-03
-1.5621816e-03
9.8235703e-04
3.2716675e-03
6.0031663e-03
8.4716587e-03
1.0879350e-02
1.3304860e-02
1.5448421e-02
1.6966430e-02
1.7852694e-02
1.7819025e-02
1.6023318e-02
1.3136073e-02
9.9096332e-03
6.7341246e-03
3.8634661e-03
9.5699106e-04
-1.6358791e-03
-4.2957295e-03
-7.7995409e-03
-1.2203527e-02
-1.7038432e-02
-2.1396036e-02
-2.5722072e-02
-3.0393761e-02
-3.4256945e-02
-3.6326069e-02
-3.6248169e-02
-3.4542357e-02
-3.1689032e-02
-2.7868006e-02
-2.2525242e-02
-1.4426111e-02
-5.2168535e-03
3.2311068e-03
1.1620395e-02
2.0014735e-02
2.7269564e-02
3.2242590e-02
3.5500192e-02
3.8162964e-02
3.9869353e-02
4.0052574e-02
3.8517572e-02
3.6018559e-02
3.3261571e-02
3.0220843e-02
2.6543921e-02
2.1840831e-02
1.6994745e-02
1.2754085e-02
9.2425510e-03
6.3117152e-03
3.1330045e-03
6.1460536e-04
-4.1499600e-04
-7.8721370e-04
-8.2809791e-04
-1.5198020e-03
-2.5716249e-03
-2.9954727e-03
-3.4174704e-03
-3.7946759e-03
-3.7409035e-03
-3.7018951e-03
-4.7830468e-03
-7.0753019e-03
-9.6544566e-03
-1.2348205e-02
-1.4728055e-02
-1.6843223e-02
-1.8884360e-02
-1.9354970e-02
-1.7489072e-02
-1.3836117e-02
-9.5582250e-03
-5.7939190e-03
-2.1952018e-03
1.5464569e-03
5.0853658e-03
8.0886911e-03
1.0367203e-02
1.1668982e-02
1.2398535e-02
1.4195509e-02
1.6225636e-02
1.6618944e-02
1.6075431e-02
1.5629860e-02
1.5255360e-02
1.4331030e-02
1.3074785e-02
1.1981615e-02
1.0781680e-02
9.8815839e-03
9.0112863e-03
7.2092063e-03
5.2668114e-03
3.9838224e-03
3.3893371e-03
3.9632750e-03
5.4391566e-03
6.1741291e-03
5.3149395e-03
3.2711952e-03
-3.0009839e-04
-5.1420789e-03
-9.8663531e-03
-1.3863872e-02
-1.6044661e-02
-1.6018151e-02
-1.5135399e-02
-1.4531838e-02
-1.4143277e-02
-1.2613240e-02
-1.0156955e-02
-7.7749523e-03
-5.4376866e-03
-3.1059356e-03
-5.8552731e-04
1.9551942e-03
4.9105096e-03
8.3938103e-03
1.1602011e-02
1.4729139e-02
1.7489655e-02
1.9165653e-02
1.9749959e-02
1.9214486e-02
1.8403628e-02
1.8290778e-02
1.8606747e-02
1.8400525e-02
1.7461316e-02
1.7298590e-02
1.8559863e-02
2.0189684e-02
2.0975120e-02
2.0506597e-02
2.0519157e-02
2.2434758e-02
2.5228824e-02
2.7143608e-02
2.7377541e-02
2.6513169e-02
2.5301507e-02
2.3564882e-02
2.0739430e-02
1.7807276e-02
1.5872297e-02
1.3771438e-02
1.0982040e-02
7.8261367e-03
4.9372691e-03
3.7291840e-03
3.6524984e-03
3.7939500e-03
3.9338592e-03
3.2552404e-03
1.9174072e-03
5.8555020e-04
-1.3527714e-05
2.3233687e-04
6.1334081e-04
1.8678826e-03
4.7023282e-03
8.6343827e-03
1.2384663e-02
1.5011359e-02
1.8031137e-02
2.2376475e-02
2.6966181e-02
3.1447077e-02
3.6573255e-02
4.2556263e-02
4.8805105e-02
5.4883460e-02
5.9643904e-02
6.2098501e-02
6.2505223e-02
6.0804959e-02
5.7216609e-02
5.1771934e-02
4.3642810e-02
3.2976761e-02
2.0447687e-02
7.4941849e-03
-4.4943576e-03
-1.5718682e-02
-2.6459970e-02
-3.6763617e-02
-4.6478839e-02
-5.5472381e-02
-6.3369023e-02
-6.9327624e-02
-7.3510396e-02
-7.6424838e-02
-7.8228132e-02
-7.8750633e-02
-7.7608871e-02
-7.4932548e-02
-7.0716789e-02
-6.5743941e-02
-6.0707391e-02
-5.5048146e-02
-4.9589259e-02
-4.5205012e-02
-4.1830115e-02
-3.9163226e-02
-3.6377483e-02
-3.3115265e-02
-2.9332979e-02
-2.5595495e-02
-2.2331910e-02
-1.9759824e-02
-1.8246841e-02
-1.7021275e-02
-1.5852230e-02
-1.5020707e-02
-1.4275089e-02
-1.3580229e-02
-1.2722616e-02
-1.1560509e-02
-9.6401532e-03
-6.9621053e-03
-4.3058641e-03
-1.7091916e-03
1.2160839e-04
8.7732713e-04
1.4091166e-03
1.8163230e-03
3.0293541e-03
5.4963439e-03
7.8364472e-03
9.1434373e-03
9.4145035e-03
9.4157755e-03
9.4612865e-03
8.9982256e-03
8.1665855e-03
7.5353959e-03
7.5500058e-03
7.7988482e-03
7.6605592e-03
7.5871478e-03
7.7617481e-03
7.7128689e-03
6.4943238e-03
4.9004284e-03
4.2927558e-03
3.7474415e-03
3.5024965e-03
3.7433295e-03
3.4487958e-03
2.2751153e-03
2.9530911e-04
-2.1533051e-03
-5.5410598e-03
-9.6081714e-03
-1.3332421e-02
-1.6086225e-02
-1.6731648e-02
-1.5161814e-02
-1.2750919e-02
-1.1061120e-02
-1.0679648e-02
-1.0485279e-02
-9.9846807e-03
-8.6952228e-03
-5.9085175e-03
-2.5645161e-03
7.0089885e-04
3.7454926e-03
6.0657471e-03
7.3849768e-03
8.0521625e-03
8.4383033e-03
8.8734576e-03
9.6517213e-03
9.7417464e-03
8.9456651e-03
8.8204223e-03
9.3946311e-03
9.8600800e-03
9.7659703e-03
9.2433148e-03
9.0569655e-03
8.7748555e-03
8.1986080e-03
7.6416633e-03
6.9640142e-03
6.5172691e-03
6.5589251e-03
7.3503188e-03
8.1638879e-03
7.7573016e-03
6.5159877e-03
5.0039921e-03
3.3229073e-03
1.5324133e-03
1.0667201e-04
-8.4124188e-04
-2.1100180e-03
-3.6013531e-03
-5.4158337e-03
-7.6074081e-03
-9.6306726e-03
-1.1801275e-02
-1.3685150e-02
-1.4698722e-02
-1.5140463e-02
-1.4987193e-02
-1.3820752e-02
-1.1247879e-02
-8.2226641e-03
-5.9308426e-03
-4.0155658e-03
-2.1862759e-03
-7.0479447e-04
9.2089918e-05
-6.5035132e-05
-6.0470047e-04
-2.8752088e-04
1.3667029e-03
3.2229732e-03
4.5398761e-03
5.4957111e-03
6.1617323e-03
6.6859938e-03
6.4902399e-03
5.9790707e-03
6.5071723e-03
8.2542690e-03
1.0639277e-02
1.1979151e-02
1.1784166e-02
1.1167522e-02
9.9885956e-03
8.3821001e-03
6.5334796e-03
4.6939001e-03
3.4511279e-03
2.1929093e-03
8.4947945e-04
-4.4433259e-04
-1.8382711e-03
-3.3881400e-03
-5.3277153e-03
-7.0314386e-03
-7.8236735e-03
-7.9871409e-03
-8.0566049e-03
-8.2724911e-03
-7.9802259e-03
-7.1280736e-03
-6.3651123e-03
-5.5618407e-03
-4.6820036e-03
-3.6284693e-03
-2.7633190e-03
-2.4203143e-03
-2.0490898e-03
-1.5455759e-03
-8.3082351e-04
-7.2416223e-05
4.9087375e-04
1.1850014e-03
1.8692701e-03
2.6647705e-03
3.7109247e-03
4.7115333e-03
5.1787850e-03
5.3085564e-03
5.9072045e-03
6.8543314e-03
7.7741538e-03
8.0796270e-03
8.0880107e-03
7.9194662e-03
6.5755126e-03
4.6154281e-03
2.6824896e-03
9.9464650e-04
-1.4467472e-04
-1.3624618e-03
-1.9993817e-03
-1.9346435e-03
-2.9191148e-03
-5.1319226e-03
-7.7214681e-03
-1.0101858e-02
-1.2287523e-02
-1.3815202e-02
-1.3923213e-02
-1.2905123e-02
-1.0979001e-02
-8.6790627e-03
-6.5096296e-03
-4.2858664e-03
-2.6532687e-03
-2.0290395e-03
-2.0894782e-03
-2.5514173e-03
-2.5172739e-03
-1.2863071e-03
9.1033764e-04
3.0974092e-03
4.5546368e-03
5.4334807e-03
5.9846781e-03
6.5228576e-03
7.0529919e-03
7.6295181e-03
8.0181985e-03
7.3718985e-03
6.1269137e-03
4.7265079e-03
3.5288375e-03
2.9144737e-03
2.4205847e-03
2.7641466e-03
3.4925221e-03
3.4672377e-03
2.9302411e-03
1.8847858e-03
1.0120499e-03
1.6868347e-04
-1.5360818e-03
-4.1578232e-03
-7.4696688e-03
-1.0308675e-02
-1.2244700e-02
-1.3566811e-02
-1.3956976e-02
-1.3282101e-02
-1.1450046e-02
-9.3755341e-03
-7.8731322e-03
-6.9720216e-03
-6.4460726e-03
-5.5485071e-03
-4.5602750e-03
-3.5320282e-03
-2.4601152e-03
-1.8909829e-03
-9.7288826e-04
6.4207211e-04
2.7090867e-03
5.0493035e-03
6.5632594e-03
6.8198049e-03
6.3466768e-03
6.2455157e-03
6.3891539e-03
6.2612280e-03
6.6642191e-03
6.9479738e-03
6.4790881e-03
5.5722642e-03
4.6413665e-03
4.5615215e-03
5.0612021e-03
6.0225730e-03
7.5035319e-03
8.4224679e-03
8.7136021e-03
8.5646640e-03
7.4469532e-03
5.5762574e-03
3.8319203e-03
2.7909189e-03
2.2435575e-03
2.0108185e-03
1.9025820e-03
1.9118669e-03
1.8351323e-03
4.6025064e-04
-1.6077605e-03
-2.9995702e-03
-4.2905615e-03
-5.9153085e-03
-7.7511116e-03
-9.1051224e-03
-9.2309342e-03
-8.7759621e-03
-8.5931187e-03
-9.2232501e-03
-1.0613885e-02
-1.2297120e-02
-1.3486537e-02
-1.3072792e-02
-1.1655432e-02
-1.0671127e-02
-1.0730215e-02
-1.1483553e-02
-1.1871425e-02
-1.1403098e-02
-1.0486339e-02
-9.5677604e-03
-8.0577667e-03
-5.5126241e-03
-1.7349948e-03
3.7887492e-03
1.0159853e-02
1.6858537e-02
2.3512299e-02
2.8506496e-02
3.1956450e-02
3.3844077e-02
3.3221669e-02
3.0371309e-02
2.5873119e-02
2.1172559e-02
1.6890372e-02
1.1664377e-02
5.3572688e-03
-6.4362177e-04
-5.6214558e-03
-1.0555008e-02
-1.6495723e-02
-2.3022440e-02
-2.9438022e-02
-3.5037388e-02
-3.9432392e-02
-4.2996003e-02
-4.5790635e-02
-4.7644159e-02
-4.8166902e-02
-4.7482117e-02
-4.6895794e-02
-4.6826228e-02
-4.6393440e-02
-4.5257511e-02
-4.3953199e-02
-4.2428106e-02
-4.0440277e-02
-3.7679625e-02
-3.3340068e-02
-2.7620062e-02
-2.1062280e-02
-1.4097740e-02
-7.0577619e-03
4.0948705e-04
7.3023037e-03
1.2299499e-02
1.5756452e-02
1.7821503e-02
1.9169577e-02
2.1031777e-02
2.3150051e-02
2.4015108e-02
2.3675770e-02
2.3930832e-02
2.4272248e-02
2.4052258e-02
2.3665343e-02
2.2921239e-02
2.2388475e-02
2.1937782e-02
2.1349654e-02
2.0239421e-02
1.8025246e-02
1.5757535e-02
1.3973899e-02
1.2208085e-02
9.9966018e-03
7.5745089e-03
6.4795078e-03
6.8805807e-03
7.6202952e-03
8.6636457e-03
1.0387702e-02
1.3033780e-02
1.5821666e-02
1.7718998e-02
1.8784692e-02
1.9472738e-02
1.9913001e-02
1.9199118e-02
1.7338865e-02
1.4519231e-02
9.7806734e-03
4.1451551e-03
-9.3866101e-04
-5.6922038e-03
-1.0542365e-02
-1.5609863e-02
-2.0320143e-02
-2.4725288e-02
-2.8974531e-02
-3.2244785e-02
-3.4340975e-02
-3.5777170e-02
-3.7011164e-02
-3.7753823e-02
-3.8145025e-02
-3.9199299e-02
-4.0587244e-02
-4.1689982e-02
-4.2573697e-02
-4.2863004e-02
-4.2322854e-02
-4.1112865e-02
-3.9098410e-02
-3.5368354e-02
-3.0422122e-02
-2.5449310e-02
-1.9595478e-02
-1.2596531e-02
-4.9302620e-03
3.2311596e-03
1.1037405e-02
1.7280512e-02
2.1292631e-02
2.4431776e-02
2.7648550e-02
2.9885104e-02
3.0793685e-02
3.0776922e-02
3.0281499e-02
2.9090165e-02
2.6474671e-02
2.3247017e-02
2.1043460e-02
2.0233115e-02
2.0080724e-02
2.0106018e-02
2.0253376e-02
2.0756589e-02
2.1573706e-02
2.1572112e-02
2.0976856e-02
2.1010407e-02
2.1072875e-02
2.0432951e-02
1.8740853e-02
1.5748390e-02
1.2294955e-02
9.5533932e-03
7.9295337e-03
6.7818033e-03
5.4924370e-03
4.4032446e-03
3.9118066e-03
3.7180260e-03
2.9493318e-03
1.4551865e-03
-1.8112998e-04
-1.7899686e-03
-2.9713294e-03
-3.8261854e-03
-4.5986328e-03
-4.5679555e-03
-3.8268978e-03
-3.6809102e-03
-4.2007462e-03
-3.8453832e-03
-2.5887442e-03
-1.4707671e-03
-5.2177804e-04
-7.5335693e-05
-4.7899661e-05
1.5107340e-04
6.7962706e-04
1.4811509e-03
1.6950189e-03
1.4965417e-03
1.3225318e-03
6.0255216e-04
-2.0205811e-04
-1.3122704e-03
-3.1723045e-03
-5.0796747e-03
-6.5574672e-03
-7.0043096e-03
-7.1534522e-03
-7.5235662e-03
-7.8732495e-03
-8.6451547e-03
-9.1229953e-03
-8.9559887e-03
-7.6879199e-03
-5.2645222e-03
-2.7571719e-03
2.0176627e-04
3.6080122e-03
6.9458208e-03
9.8668373e-03
1.1877969e-02
1.3370891e-02
1.4069567e-02
1.3565170e-02
1.2839772e-02
1.2521483e-02
1.2802199e-02
1.3657430e-02
1.4831471e-02
1.6425458e-02
1.8316235e-02
2.0071076e-02
2.1179334e-02
2.2203346e-02
2.3565448e-02
2.4372806e-02
2.4382943e-02
2.3259941e-02
2.0591716e-02
1.6772274e-02
1.2980295e-02
1.0264378e-02
7.8478347e-03
5.1565361e-03
2.1325693e-03
-1.1823238e-03
-3.8917588e-03
-6.0088137e-03
-7.5373177e-03
-8.0352901e-03
-7.5741500e-03
-6.9263446e-03
-6.9614494e-03
-6.9982418e-03
-6.5059318e-03
-6.0667272e-03
-5.4013346e-03
-3.9620974e-03
-2.3552509e-03
-1.1268305e-03
2.7951389e-04
2.3476452e-03
3.7175133e-03
3.6300677e-03
3.1236341e-03
2.6645946e-03
2.2795461e-03
2.1202688e-03
2.7948724e-03
4.1014494e-03
5.4464930e-03
6.9876239e-03
8.5151778e-03
9.8666889e-03
1.0613019e-02
1.0419745e-02
1.0031846e-02
9.9337139e-03
1.0116255e-02
9.8588024e-03
8.7154201e-03
6.9226719e-03
4.5005732e-03
2.0900443e-03
-3.3325938e-04
-2.7687135e-03
-4.9969276e-03
-7.5690973e-03
-1.0099430e-02
-1.1742941e-02
-1.2419127e-02
-1.2382753e-02
-1.1637829e-02
-1.0531069e-02
-1.0225679e-02
-1.0680729e-02
-1.0433958e-02
-8.9784330e-03
-6.5448384e-03
-4.1624484e-03
-2.5802973e-03
-6.1762414e-04
2.2896406e-03
5.2431345e-03
7.4762011e-03
9.2122616e-03
1.0644628e-02
1.1302991e-02
1.1786694e-02
1.2928569e-02
1.4183648e-02
1.4171864e-02
1.2186509e-02
8.7443463e-03
4.7103179e-03
1.2650832e-03
-9.7191658e-04
-1.8507113e-03
-1.6458817e-03
-1.7566322e-03
-2.4611017e-03
-3.5627171e-03
-5.6400250e-03
-8.0910766e-03
-1.0103930e-02
-1.2147430e-02
-1.4363221e-02
-1.5850150e-02
-1.6323920e-02
-1.6539871e-02
-1.7337007e-02
-1.8465244e-02
-1.8966425e-02
-1.8568041e-02
-1.7814444e-02
-1.7391403e-02
-1.6931651e-02
-1.5201414e-02
-1.1126401e-02
-5.4755203e-03
-4.4969285e-04
3.1655921e-03
5.9623282e-03
8.2166549e-03
8.9116935e-03
7.8280495e-03
6.5409599e-03
6.3776383e-03
7.5086547e-03
8.3678165e-03
8.2053132e-03
7.6880875e-03
7.0728437e-03
7.0214236e-03
7.4829553e-03
7.8704062e-03
8.1658141e-03
8.1857008e-03
8.2520291e-03
8.5129483e-03
8.4513048e-03
8.3720788e-03
8.8249580e-03
9.5511282e-03
9.6980710e-03
8.8198257e-03
6.7101371e-03
3.7487690e-03
1.2475310e-03
-9.3353227e-04
-3.4109713e-03
-6.2780522e-03
-8.9864058e-03
-1.0699780e-02
-1.2095872e-02
-1.3199500e-02
-1.3791826e-02
-1.4629424e-02
-1.5307440e-02
-1.4624537e-02
-1.2695700e-02
-1.0991190e-02
-9.6723446e-03
-7.3497614e-03
-4.1585363e-03
-1.7882330e-03
-9.6795665e-04
-2.5077527e-04
1.6081503e-03
3.0619542e-03
3.1613324e-03
2.7447106e-03
2.5023572e-03
2.7654522e-03
3.2817137e-03
4.2925813e-03
5.5578194e-03
6.7521567e-03
8.8653262e-03
1.1358488e-02
1.2602353e-02
1.2676961e-02
1.2264915e-02
1.1692169e-02
1.1519298e-02
1.1789103e-02
1.1399592e-02
1.0072562e-02
8.8201352e-03
7.8856896e-03
7.1732691e-03
6.2109973e-03
4.7556069e-03
3.5025677e-03
2.0988913e-03
1.2072500e-04
-2.1799206e-03
-4.0929830e-03
-5.1246242e-03
-6.0762614e-03
-7.3301877e-03
-8.9059296e-03
-1.0899112e-02
-1.2703587e-02
-1.3299057e-02
-1.1874991e-02
-9.4280900e-03
-7.3047910e-03
-5.3801466e-03
-3.5868921e-03
-1.7041037e-03
-6.2406527e-06
9.0664679e-04
1.8960140e-03
3.1103117e-03
3.9393177e-03
4.3845489e-03
3.8628327e-03
2.0857098e-03
2.8263125e-04
1.8846040e-04
1.3431639e-03
2.3768262e-03
3.5624232e-03
4.8499121e-03
6.0530097e-03
7.2826571e-03
8.2705664e-03
8.3745868e-03
6.7982098e-03
4.0161961e-03
8.2016110e-04
-2.3273581e-03
-5.1613200e-03
-8.0041388e-03
-1.0426556e-02
-1.2321497e-02
-1.3961001e-02
-1.5335195e-02
-1.6874071e-02
-1.8558234e-02
-2.0207764e-02
-2.0790894e-02
-1.9207992e-02
-1.5982353e-02
-1.1851453e-02
-7.4603147e-03
-3.3281295e-03
4.6739725e-04
3.7245785e-03
6.3503332e-03
7.8426466e-03
8.0593850e-03
8.0805489e-03
8.1663352e-03
7.9367404e-03
7.4974080e-03
7.6030341e-03
8.9430954e-03
1.1234545e-02
1.3721572e-02
1.5586780e-02
1.6638205e-02
1.6487950e-02
1.4992204e-02
1.3571736e-02
1.2591496e-02
1.1552139e-02
1.0076901e-02
7.4832269e-03
4.7013708e-03
2.2640315e-03
-5.9454486e-06
-1.2638624e-03
-1.6819409e-03
-1.8814089e-03
-2.8450474e-03
-5.4824425e-03
-9.1215558e-03
-1.2705229e-02
-1.4912317e-02
-1.5869008e-02
-1.7098945e-02
-1.8377339e-02
-1.8938245e-02
-1.8936458e-02
-1.8704280e-02
-1.8166438e-02
-1.6947482e-02
-1.4994953e-02
-1.2266690e-02
-9.0773697e-03
-5.7952492e-03
-1.9918498e-03
2.1317658e-03
5.9195005e-03
8.8536812e-03
1.0343327e-02
1.0490921e-02
1.0390269e-02
1.0937267e-02
1.1495768e-02
1.1816614e-02
1.2210748e-02
1.2136041e-02
1.1657846e-02
1.1131271e-02
1.0794705e-02
1.0553498e-02
9.8407925e-03
8.7569088e-03
7.1844200e-03
5.0158944e-03
2.2647568e-03
-8.3378242e-04
-3.3095304e-03
-5.0767750e-03
-6.0953137e-03
-6.2080099e-03
-6.1203815e-03
-6.0214467e-03
-6.2649937e-03
-7.3117665e-03
-8.7929267e-03
-1.0198565e-02
-1.0275332e-02
-7.8555241e-03
-3.5337228e-03
5.0606522e-04
3.1373286e-03
5.0463665e-03
6.2558244e-03
6.8336201e-03
7.2144565e-03
7.5311479e-03
8.4707239e-03
1.0744020e-02
1.3630852e-02
1.5455905e-02
1.5914375e-02
1.5587430e-02
1.4715307e-02
1.3518213e-02
1.1118657e-02
7.7570799e-03
5.9008994e-03
5.2954893e-03
4.2055806e-03
2.4594439e-03
-2.1120823e-04
-3.5583235e-03
-6.5166658e-03
-8.2339243e-03
-9.2049468e-03
-1.0557624e-02
-1.2189795e-02
-1.4393163e-02
-1.7128817e-02
-1.8816284e-02
-1.9408034e-02
-1.9827155e-02
-2.0357816e-02
-2.0954742e-02
-2.1400049e-02
-2.1566854e-02
-2.0577156e-02
-1.7481266e-02
-1.2527203e-02
-6.8956500e-03
-1.0901436e-03
5.0217638e-03
1.0383839e-02
1.4044235e-02
1.6169177e-02
1.7159484e-02
1.6946501e-02
1.5468764e-02
1.4175638e-02
1.4014266e-02
1.4287706e-02
1.4448212e-02
1.4085256e-02
1.3508579e-02
1.3282176e-02
1.2759635e-02
1.2046005e-02
1.1851897e-02
1.1497503e-02
1.0035739e-02
7.8419061e-03
5.3261584e-03
1.9891701e-03
-1.8810990e-03
-6.0599241e-03
-1.0209700e-02
-1.2662718e-02
-1.3080516e-02
-1.2557550e-02
-1.1551943e-02
-9.9000956e-03
-7.8597350e-03
-6.6967504e-03
-6.3512365e-03
-5.6897500e-03
-4.5554830e-03
-2.5061831e-03
6.6850874e-04
3.9220858e-03
6.2916379e-03
8.1906799e-03
1.0416101e-02
1.2794405e-02
1.4782046e-02
1.5928672e-02
1.6462733e-02
1.6581273e-02
1.5617045e-02
1.3487944e-02
1.0184832e-02
5.7739980e-03
1.2862399e-03
-2.7926945e-03
-6.0200820e-03
-8.0595388e-03
-9.8704747e-03
-1.2239584e-02
-1.5193232e-02
-1.8510683e-02
-2.2321750e-02
-2.6210319e-02
-2.8613237e-02
-2.9225001e-02
-2.8691992e-02
-2.7948085e-02
-2.7837244e-02
-2.7591425e-02
-2.7247055e-02
-2.7794808e-02
-2.8696748e-02
-2.8353576e-02
-2.6266971e-02
-2.3404998e-02
-1.9101411e-02
-1.2028685e-02
-3.3436466e-03
4.8745585e-03
1.1219540e-02
1.5593638e-02
1.8762836e-02
2.0553124e-02
2.0798491e-02
2.0385218e-02
2.0189777e-02
2.0099666e-02
1.9963538e-02
2.0306385e-02
2.0814785e-02
2.0940550e-02
2.0687368e-02
2.0400852e-02
2.0164382e-02
1.9203330e-02
1.7634654e-02
1.6128313e-02
1.4905228e-02
1.3777301e-02
1.2396883e-02
1.0496720e-02
6.9798371e-03
1.7680472e-03
-3.2638105e-03
-6.9040985e-03
-9.5157515e-03
-1.2175876e-02
-1.4964843e-02
-1.6975231e-02
-1.8303042e-02
-1.9296193e-02
-2.0060745e-02
-2.0569317e-02
-2.0670563e-02
-1.9906048e-02
-1.7345063e-02
-1.3499249e-02
-9.1418866e-03
-4.7707394e-03
-1.3143871e-03
1.3769420e-03
3.5982940e-03
5.2815076e-03
6.7754825e-03
8.1841977e-03
9.5475003e-03
1.0440680e-02
9.9582075e-03
8.7763503e-03
8.4276438e-03
9.0726006e-03
9.3568889e-03
8.5052373e-03
7.4554653e-03
6.8453315e-03
6.6207469e-03
6.3086073e-03
5.3386572e-03
3.9417537e-03
2.6315134e-03
1.8153445e-03
9.8988429e-04
-1.1847630e-04
-1.2196397e-03
-2.7361418e-03
-4.5280797e-03
-6.0003788e-03
-7.0341170e-03
-8.1051746e-03
-9.5627986e-03
-1.0497938e-02
-1.0412157e-02
-1.0409569e-02
-1.1551765e-02
-1.2923976e-02
-1.3058244e-02
-1.2707282e-02
-1.2441215e-02
-1.1409786e-02
-9.7313532e-03
-7.8242163e-03
-5.5900154e-03
-2.6313979e-03
1.1285986e-03
5.1048720e-03
9.0291080e-03
1.2099391e-02
1.3982056e-02
1.5126116e-02
1.5208748e-02
1.4424563e-02
1.3454940e-02
1.2530793e-02
1.1831249e-02
1.1655276e-02
1.2124800e-02
1.2648583e-02
1.2689674e-02
1.2786617e-02
1.3146960e-02
1.3576954e-02
1.3968773e-02
1.4330527e-02
1.4787209e-02
1.4849213e-02
1.4512372e-02
1.3801497e-02
1.2262024e-02
9.8245253e-03
7.1316448e-03
5.2440373e-03
4.3414452e-03
4.2209557e-03
4.3610837e-03
4.2166504e-03
3.8319471e-03
2.6694499e-03
9.6379131e-04
-4.2633573e-04
-2.5285463e-03
-6.4943168e-03
-1.2302076e-02
-1.8728959e-02
-2.3281733e-02
-2.4490842e-02
-2.2480394e-02
-1.8638404e-02
-1.5014104e-02
-1.2397097e-02
-1.0179939e-02
-7.5516865e-03
-4.5976659e-03
-2.3704175e-03
-1.0832644e-03
2.8072282e-04
2.9013838e-03
6.9712808e-03
1.1429410e-02
1.5121722e-02
1.7567438e-02
1.8771039e-02
1.8508834e-02
1.7520580e-02
1.6654353e-02
1.5261810e-02
1.3274942e-02
1.0642799e-02
7.1600930e-03
3.4121565e-03
-6.3400949e-04
-4.5497819e-03
-7.6462805e-03
-1.0083189e-02
-1.2064111e-02
-1.3458032e-02
-1.4399872e-02
-1.5559581e-02
-1.6933475e-02
-1.8775754e-02
-2.0922052e-02
-2.2001761e-02
-2.1656354e-02
-2.0626710e-02
-1.9853196e-02
-1.8903965e-02
-1.7101540e-02
-1.5650399e-02
-1.5147863e-02
-1.4733684e-02
-1.3910692e-02
-1.2979640e-02
-1.2097061e-02
-1.0568426e-02
-8.3889153e-03
-6.5813101e-03
-5.4453070e-03
-4.4487474e-03
-3.2906466e-03
-2.2871580e-03
-1.6435734e-03
-1.3557693e-03
-1.7291991e-03
-3.0610320e-03
-5.1971960e-03
-7.7661051e-03
-1.0636045e-02
-1.3295397e-02
-1.4998170e-02
-1.6374529e-02
-1.7887696e-02
-1.9211001e-02
-2.0424268e-02
-2.0634073e-02
-1.9255979e-02
-1.6076331e-02
-9.6214213e-03
1.4242880e-03
1.5168863e-02
2.6552804e-02
3.3699005e-02
3.8082872e-02
3.9907753e-02
3.9794318e-02
3.9109282e-02
3.7717950e-02
3.5696044e-02
3.3902763e-02
3.3370218e-02
3.4510543e-02
3.6661317e-02
3.9658268e-02
4.2914994e-02
4.5753537e-02
4.8046577e-02
4.9478657e-02
4.9737973e-02
4.7889983e-02
4.3459237e-02
3.7217562e-02
2.9966379e-02
2.1554545e-02
9.9876489e-03
-3.8792667e-03
-1.5287955e-02
-2.2514678e-02
-2.6274082e-02
-2.7684154e-02
-2.7987883e-02
-2.7514191e-02
-2.6725345e-02
-2.6061671e-02
-2.5664272e-02
-2.4955013e-02
-2.3542130e-02
-2.2613966e-02
-2.2308473e-02
-2.1146935e-02
-1.9278580e-02
-1.8145482e-02
-1.7776124e-02
-1.7211127e-02
-1.6856293e-02
-1.7471898e-02
-1.8481053e-02
-1.9225636e-02
-1.9760376e-02
-1.9863506e-02
-1.9505160e-02
-1.9286525e-02
-1.8975213e-02
-1.7952432e-02
-1.6401822e-02
-1.4984136e-02
-1.3977373e-02
-1.2529790e-02
-9.6452562e-03
-5.5371292e-03
-1.2451435e-03
2.1670694e-03
4.9157639e-03
7.6270651e-03
9.5915777e-03
1.1221768e-02
1.2836166e-02
1.3153441e-02
1.2328871e-02
1.1458363e-02
1.1079721e-02
1.0834319e-02
1.0598664e-02
1.0740242e-02
1.0386875e-02
9.0521331e-03
6.9309840e-03
3.7153276e-03
-2.9631470e-04
-4.7522054e-03
-9.1261661e-03
-1.2479578e-02
-1.5325281e-02
-1.8759832e-02
-2.2522506e-02
-2.6321171e-02
-3.0726135e-02
-3.5219408e-02
-3.8765767e-02
-4.2009001e-02
-4.5172488e-02
-4.7900490e-02
-5.0166418e-02
-5.1216766e-02
-5.0424618e-02
-4.7647013e-02
-4.3108493e-02
-3.6595184e-02
-2.6834626e-02
-1.2913278e-02
3.3874248e-03
1.7808112e-02
2.8327252e-02
3.5889459e-02
4.1059553e-02
4.4202263e-02
4.5375593e-02
4.4944033e-02
4.4612282e-02
4.5564432e-02
4.7915064e-02
5.0924139e-02
5.3818061e-02
5.7053015e-02
6.1180085e-02
6.5589611e-02
6.9227693e-02
7.2109599e-02
7.4485609e-02
7.5336050e-02
7.3479244e-02
6.8441715e-02
6.0137503e-02
4.7714459e-02
2.9093042e-02
6.5496006e-03
-1.3477758e-02
-2.8798276e-02
-3.9991905e-02
-4.7640206e-02
-5.2903113e-02
-5.6354309e-02
-5.8124744e-02
-5.8531463e-02
-5.8226100e-02
-5.7376746e-02
-5.6269394e-02
-5.5087725e-02
-5.3333301e-02
-5.0655497e-02
-4.7428369e-02
-4.4644079e-02
-4.2639534e-02
-4.1233632e-02
-4.0654135e-02
-4.0866334e-02
-4.1894440e-02
-4.3458397e-02
-4.3943290e-02
-4.2358441e-02
-3.9322039e-02
-3.6261512e-02
-3.3909051e-02
-3.1732687e-02
-2.9252335e-02
-2.5744413e-02
-2.0900219e-02
-1.5116561e-02
-8.0526702e-03
8.3111934e-04
1.0790617e-02
2.0548156e-02
2.9931527e-02
3.9113527e-02
4.8553266e-02
5.8714280e-02
6.8173324e-02
7.5340075e-02
8.0828312e-02
8.5200668e-02
8.7330976e-02
8.5382512e-02
7.8819196e-02
6.7843932e-02
5.1440629e-02
3.2368424e-02
1.6142749e-02
4.4081801e-03
-3.7483002e-03
-9.1397607e-03
-1.1877627e-02
-1.2829761e-02
-1.2505052e-02
-1.0542270e-02
-8.1418657e-03
-6.0318700e-03
-3.9609581e-03
-2.1156973e-03
-1.0057561e-03
-6.2600940e-04
1.4069424e-04
1.0777526e-03
1.6106828e-03
2.0799832e-03
2.6687207e-03
3.5896373e-03
4.0843941e-03
3.9392910e-03
3.8868306e-03
4.4100067e-03
5.7782008e-03
7.0430589e-03
7.6147779e-03
7.6969537e-03
6.8438131e-03
5.2267104e-03
3.3634890e-03
1.6445918e-03
9.0430748e-05
-1.7525539e-03
-3.5660640e-03
-5.0415298e-03
-6.2279045e-03
-7.3891155e-03
-8.6869575e-03
-9.4067576e-03
-9.5042089e-03
-9.4965946e-03
-9.1849743e-03
-8.4305855e-03
-7.1666242e-03
-5.6690323e-03
-4.3819140e-03
-3.5319777e-03
-3.6808509e-03
-4.9713559e-03
-6.6445643e-03
-7.5114127e-03
-7.0685904e-03
-5.5538490e-03
-3.6525737e-03
-2.9232182e-03
-2.7037997e-03
-1.1467671e-03
8.3111583e-04
2.5104300e-03
4.1014869e-03
5.4543573e-03
6.6223604e-03
7.3862417e-03
8.1775952e-03
9.3687865e-03
1.0350090e-02
1.1370576e-02
1.3101408e-02
1.5204311e-02
1.6898968e-02
1.8582002e-02
2.1514470e-02
2.6480418e-02
3.3281192e-02
3.9582899e-02
4.3929005e-02
4.7218540e-02
5.0005453e-02
5.2347824e-02
5.3455499e-02
5.3011725e-02
5.1623660e-02
4.9571210e-02
4.7053891e-02
4.3342474e-02
3.8708914e-02
3.4005038e-02
2.8614555e-02
2.2493945e-02
1.5627805e-02
7.7981612e-03
-8.2797203e-04
-1.0064161e-02
-1.9388792e-02
-2.7961460e-02
-3.4494040e-02
-3.8053778e-02
-3.7824412e-02
-3.4475963e-02
-3.1945596e-02
-3.2207613e-02
-3.4173674e-02
-3.7292886e-02
-4.0393795e-02
-4.2800625e-02
-4.3966243e-02
-4.2352983e-02
-3.8224268e-02
-3.2468458e-02
-2.5251193e-02
-1.6120670e-02
-5.5810638e-03
4.6211956e-03
1.4712743e-02
2.4647714e-02
3.3478237e-02
4.0650015e-02
4.4913026e-02
4.6292970e-02
4.5288778e-02
4.1826755e-02
3.6105988e-02
2.8478969e-02
1.9923984e-02
1.0671444e-02
6.0450038e-04
-9.6956825e-03
-1.9508816e-02
-2.7571677e-02
-3.3324075e-02
-3.7208102e-02
-3.9763687e-02
-4.1571675e-02
-4.2955984e-02
-4.4560354e-02
-4.6360576e-02
-4.8024625e-02
-4.9585259e-02
-4.9887858e-02
-4.8416827e-02
-4.6248428e-02
-4.4679278e-02
-4.3262061e-02
-4.0083460e-02
-3.5464939e-02
-3.0488635e-02
-2.4894872e-02
-1.7881693e-02
-9.6722899e-03
-2.8244061e-03
1.7877012e-03
4.7098136e-03
6.2646706e-03
8.0717637e-03
9.8848118e-03
1.0423391e-02
1.0547368e-02
1.1719927e-02
1.3680336e-02
1.4717198e-02
1.4618803e-02
1.4287213e-02
1.3992488e-02
1.4003803e-02
1.3979866e-02
1.3114828e-02
1.1105577e-02
7.8800731e-03
4.1004702e-03
9.9579631e-04
-1.7594459e-03
-5.1035173e-03
-7.8927419e-03
-9.0249283e-03
-9.4667841e-03
-1.0042757e-02
-1.0630344e-02
-1.1286506e-02
-1.1187813e-02
-9.6911669e-03
-7.5507426e-03
-5.5264392e-03
-4.1812230e-03
-3.1321307e-03
-2.1568446e-03
-1.8026327e-03
-2.0604056e-03
-2.6586517e-03
-3.4905642e-03
-4.0661897e-03
-3.4843710e-03
-1.9947301e-03
-3.4772655e-04
1.0545735e-03
1.5809954e-03
1.8675143e-03
3.0501612e-03
5.5872894e-03
9.3603564e-03
1.2571079e-02
1.4083003e-02
1.4308163e-02
1.3901609e-02
1.3636679e-02
1.3236510e-02
1.2848192e-02
1.2544156e-02
1.1199474e-02
9.3562970e-03
8.0827827e-03
7.0690314e-03
5.2578859e-03
2.4532178e-03
-1.6314940e-04
-2.3781534e-03
-4.4254143e-03
-6.5870500e-03
-8.9597256e-03
-1.1069024e-02
-1.2871702e-02
-1.3908473e-02
-1.4502285e-02
-1.5848951e-02
-1.7387232e-02
-1.7530324e-02
-1.6171552e-02
-1.4374358e-02
-1.2045878e-02
-8.9743177e-03
-6.4164423e-03
-4.6807548e-03
-2.9423955e-03
-6.5884908e-04
2.1396856e-03
4.3977471e-03
5.6938505e-03
6.6247602e-03
7.9519534e-03
9.9675176e-03
1.1640577e-02
1.2171968e-02
1.1896042e-02
1.1831153e-02
1.2602000e-02
1.3549733e-02
1.3886169e-02
1.3410895e-02
1.2631445e-02
1.1854337e-02
1.0514796e-02
8.4585688e-03
5.8493168e-03
2.8667627e-03
3.4655960e-04
-1.4009213e-03
-2.3159550e-03
-2.3182161e-03
-2.4001330e-03
-2.9587908e-03
-3.4285689e-03
-3.3786432e-03
-3.2210574e-03
-3.6378046e-03
-4.2726463e-03
-4.6248389e-03
-4.3016852e-03
-3.2369807e-03
-1.6084160e-03
-1.2927091e-05
3.2377575e-04
-3.2216667e-04
-9.4798714e-04
-1.4105984e-03
-1.8591692e-03
-1.7865760e-03
-2.5519982e-04
1.7695802e-03
2.8702010e-03
3.1942952e-03
2.9189657e-03
2.7236992e-03
3.1545797e-03
3.5778028e-03
3.3885174e-03
2.5437036e-03
2.2641362e-03
3.4451072e-03
4.7194276e-03
4.9314526e-03
4.9940576e-03
5.7267500e-03
6.5025366e-03
6.8329499e-03
6.9808301e-03
7.3278509e-03
7.8317599e-03
7.4541370e-03
6.3316806e-03
5.1989984e-03
3.4702002e-03
1.3567133e-03
-1.1959460e-03
-4.4580620e-03
-7.5025830e-03
-1.0554199e-02
-1.3757034e-02
-1.6104741e-02
-1.7747706e-02
-1.9330068e-02
-2.0429071e-02
-2.0589237e-02
-2.0014702e-02
-1.8676389e-02
-1.6648804e-02
-1.4678729e-02
-1.2719022e-02
-1.0554869e-02
-8.6423115e-03
-7.3019034e-03
-6.9044107e-03
-6.4687619e-03
-5.2668634e-03
-3.7345520e-03
-1.4486291e-03
1.6715039e-03
4.9021144e-03
7.5019540e-03
9.5137124e-03
1.1017252e-02
1.1711818e-02
1.1901638e-02
1.1472655e-02
1.0644832e-02
9.9244361e-03
9.2151485e-03
9.3322019e-03
1.0170395e-02
1.0678844e-02
1.0960835e-02
1.0916365e-02
1.0199301e-02
8.2453829e-03
4.7824030e-03
8.9930845e-04
-2.1275270e-03
-4.0108152e-03
-6.0590648e-03
-9.0775259e-03
-1.2092976e-02
-1.4549275e-02
-1.6018106e-02
-1.6540047e-02
-1.6327362e-02
-1.4986393e-02
-1.3200283e-02
-1.1479976e-02
-9.8680324e-03
-8.5072642e-03
-7.1974671e-03
-5.8069866e-03
-4.4492849e-03
-3.7685230e-03
-3.7372777e-03
-3.3264487e-03
-2.0152139e-03
1.0085479e-04
2.2744382e-03
3.8281739e-03
5.0715570e-03
6.4661146e-03
8.4188049e-03
1.0793806e-02
1.3016017e-02
1.5176235e-02
1.7114684e-02
1.8369501e-02
1.8725557e-02
1.8207231e-02
1.7191337e-02
1.5989564e-02
1.5641651e-02
1.6420351e-02
1.6912445e-02
1.6494643e-02
1.5148993e-02
1.3270966e-02
1.0931051e-02
7.7987375e-03
3.9840242e-03
-3.2874023e-04
-3.9624817e-03
-6.8093129e-03
-9.5901764e-03
-1.1958353e-02
-1.3321065e-02
-1.3388654e-02
-1.3232070e-02
-1.3281818e-02
-1.2688458e-02
-1.1537051e-02
-1.0186832e-02
-9.2382022e-03
-9.4358045e-03
-1.0355092e-02
-1.0774573e-02
-1.0035709e-02
-8.8093492e-03
-7.4579291e-03
-6.3851459e-03
-6.9173954e-03
-8.4375246e-03
-9.0658247e-03
-8.1640868e-03
-5.5723789e-03
-2.0317221e-03
9.6090828e-04
2.5429968e-03
3.1041619e-03
3.7057270e-03
4.8032703e-03
6.5018427e-03
7.7614509e-03
8.3733812e-03
9.5395268e-03
1.1250289e-02
1.2972033e-02
1.3707732e-02
1.3684742e-02
1.4071087e-02
1.4284035e-02
1.3780548e-02
1.2829658e-02
1.1323024e-02
9.3998231e-03
7.9812676e-03
7.3693571e-03
6.2602298e-03
4.1356708e-03
2.3048949e-03
1.0905979e-03
-1.4310861e-05
-1.3206203e-03
-2.7683093e-03
-3.8749891e-03
-4.8207357e-03
-5.1191766e-03
-4.3718811e-03
-3.6059983e-03
-3.8657614e-03
-4.9213785e-03
-5.6621414e-03
-6.3905083e-03
-7.5011602e-03
-8.7902019e-03
-9.8643407e-03
-9.9351734e-03
-8.9699747e-03
-7.3423867e-03
-5.8972058e-03
-4.9012810e-03
-3.7094308e-03
-2.4577480e-03
-1.6714210e-03
-1.7556143e-03
-2.6741837e-03
-3.5312522e-03
-4.2444188e-03
-4.7095003e-03
-3.9667650e-03
-2.6531920e-03
-2.0195950e-03
-1.5182314e-03
9.6637124e-05
2.5877743e-03
4.7551658e-03
6.1395109e-03
6.5774676e-03
6.8181687e-03
7.4294099e-03
7.3542677e-03
6.5838743e-03
5.3854370e-03
3.5725308e-03
1.4287334e-03
-1.3067836e-03
-4.4699900e-03
-7.5088449e-03
-1.0479804e-02
-1.3385577e-02
-1.6424495e-02
-1.9501650e-02
-2.2348273e-02
-2.4951219e-02
-2.7039089e-02
-2.8196756e-02
-2.7690666e-02
-2.5005487e-02
-2.0583668e-02
-1.5625278e-02
-1.0785045e-02
-6.1032265e-03
-1.4717348e-03
3.4528622e-03
7.2401510e-03
8.3267629e-03
8.2317814e-03
8.2611179e-03
8.0176853e-03
7.6091556e-03
7.1826823e-03
6.6189611e-03
6.2920649e-03
6.9200655e-03
8.3420145e-03
9.6154680e-03
1.0266460e-02
1.0303376e-02
1.0740550e-02
1.1561761e-02
1.1433967e-02
1.0707407e-02
9.9413214e-03
9.2477746e-03
8.4245520e-03
7.6104891e-03
7.6643840e-03
7.4272169e-03
5.9472190e-03
4.1751516e-03
3.0159062e-03
3.3011584e-03
3.7621979e-03
2.4301458e-03
-3.1549636e-04
-3.3668327e-03
-5.7290097e-03
-7.4602594e-03
-9.0010741e-03
-9.8160861e-03
-9.9653006e-03
-9.7033836e-03
-8.7861467e-03
-7.3284786e-03
-5.3630484e-03
-2.7963208e-03
3.7043931e-04
3.5341148e-03
5.6003411e-03
5.4461516e-03
3.8287322e-03
3.1363402e-03
3.1364102e-03
2.9016499e-03
2.4688120e-03
2.0940478e-03
2.4987457e-03
3.5958903e-03
4.9451353e-03
6.0855110e-03
7.0704373e-03
8.6311450e-03
1.0999766e-02
1.4139998e-02
1.7025501e-02
1.8127391e-02
1.7896507e-02
1.7361673e-02
1.6440744e-02
1.4808887e-02
1.2853683e-02
1.0443409e-02
6.7517249e-03
2.8960423e-03
-2.0783475e-05
-2.6678642e-03
-5.4102233e-03
-8.4573579e-03
-1.1589390e-02
-1.3663759e-02
-1.4440457e-02
-1.4837892e-02
-1.5477442e-02
-1.6702370e-02
-1.8597788e-02
-1.9907075e-02
-1.9277922e-02
-1.7165416e-02
-1.4716335e-02
-1.2941816e-02
-1.2066077e-02
-1.0976987e-02
-9.3365291e-03
-7.5675116e-03
-6.2512081e-03
-5.7214991e-03
-4.9406070e-03
-3.6184004e-03
-2.5888315e-03
-2.6303357e-03
-4.0160053e-03
-5.8319688e-03
-7.5090774e-03
-9.1329629e-03
-1.0619923e-02
-1.1579609e-02
-1.1820317e-02
-1.2246490e-02
-1.3091141e-02
-1.4016861e-02
-1.5271646e-02
-1.6632993e-02
-1.8680980e-02
-2.1702364e-02
-2.4581164e-02
-2.7207283e-02
-3.0032006e-02
-3.3138208e-02
-3.5502617e-02
-3.6588470e-02
-3.6444427e-02
-3.4703734e-02
-3.2580914e-02
-3.0953063e-02
-2.9580707e-02
-2.8093227e-02
-2.5561564e-02
-2.1701062e-02
-1.7156525e-02
-1.2537961e-02
-7.7327792e-03
-2.2376969e-03
3.4830292e-03
9.4255355e-03
1.5634585e-02
2.1208054e-02
2.6183545e-02
3.0794117e-02
3.5250792e-02
3.9818037e-02
4.4315821e-02
4.8134657e-02
5.0352822e-02
5.0607805e-02
4.9644077e-02
4.9066193e-02
4.9536340e-02
5.0399179e-02
5.0878483e-02
5.0026403e-02
4.8109399e-02
4.6254345e-02
4.4150856e-02
4.1272836e-02
3.7263720e-02
3.2629975e-02
2.8391886e-02
2.4349445e-02
2.1028544e-02
1.8557081e-02
1.6155719e-02
1.3872192e-02
1.1486208e-02
8.7965354e-03
5.5206075e-03
1.7296706e-03
-1.5286355e-03
-4.3739633e-03
-7.3302044e-03
-1.0317765e-02
-1.3002221e-02
-1.5077414e-02
-1.7028360e-02
-1.9224781e-02
-2.1796982e-02
-2.4603318e-02
-2.6842093e-02
-2.7551634e-02
-2.6487125e-02
-2.4909048e-02
-2.3015502e-02
-2.0166179e-02
-1.7429959e-02
-1.4676149e-02
-1.1632741e-02
-9.3205235e-03
-7.3918621e-03
-4.9696900e-03
-1.8689038e-03
2.5769674e-04
1.6233242e-04
-8.6506251e-04
-2.0892813e-03
-3.2056689e-03
-4.2303012e-03
-4.9137993e-03
-4.7381484e-03
-4.7423781e-03
-4.9833949e-03
-5.0075190e-03
-4.8581020e-03
-4.5606477e-03
-4.8362687e-03
-5.7796131e-03
-7.6001778e-03
-1.0375354e-02
-1.2947702e-02
-1.4812552e-02
-1.5839727e-02
-1.6210185e-02
-1.6110556e-02
-1.5096653e-02
-1.3348155e-02
-1.0909783e-02
-8.3014586e-03
-6.3063604e-03
-4.1338994e-03
-1.4640546e-03
1.5372143e-03
4.4370337e-03
7.0939456e-03
1.0254520e-02
1.3407225e-02
1.6559672e-02
2.0293485e-02
2.4109427e-02
2.7689685e-02
3.0377476e-02
3.0849513e-02
2.9356651e-02
2.7565856e-02
2.6570164e-02
2.6741926e-02
2.7216341e-02
2.6144698e-02
2.3637677e-02
2.1158338e-02
1.8733013e-02
1.6141561e-02
1.3237703e-02
9.7414255e-03
6.0751669e-03
2.9915630e-03
9.3087026e-04
-1.3579984e-03
-4.6064531e-03
-8.0386896e-03
-1.1372431e-02
-1.3664559e-02
-1.4779291e-02
-1.5367082e-02
-1.5014685e-02
-1.4092783e-02
-1.3211988e-02
-1.2510310e-02
-1.1689266e-02
-1.0239027e-02
-9.0308573e-03
-8.1177959e-03
-6.7975604e-03
-5.2965504e-03
-3.7504980e-03
-2.5728492e-03
-1.2087190e-03
8.8602978e-04
2.8268011e-03
4.6539998e-03
6.6477778e-03
8.8194030e-03
1.0899396e-02
1.2179092e-02
1.2274991e-02
1.0839361e-02
8.2665307e-03
4.9877149e-03
1.4621858e-03
-1.3372761e-03
-2.9443469e-03
-3.7974827e-03
-5.0201120e-03
-6.6844777e-03
-8.4922764e-03
-1.0290298e-02
-1.1052803e-02
-1.1251180e-02
-1.1964779e-02
-1.2845956e-02
-1.3368731e-02
-1.3381653e-02
-1.4237619e-02
-1.6308750e-02
-1.7657646e-02
-1.7717720e-02
-1.7463746e-02
-1.7203774e-02
-1.6168396e-02
-1.5011609e-02
-1.4854736e-02
-1.4343175e-02
-1.2699166e-02
-1.0327079e-02
-7.2507300e-03
-4.1818444e-03
-1.7691251e-03
-4.6928646e-04
3.9839591e-05
4.4353605e-04
6.0804510e-04
7.5002740e-04
2.3910565e-04
-1.3498119e-03
-2.4502486e-03
-2.6618060e-03
-3.1246177e-03
-4.0317690e-03
-4.6920280e-03
-4.5635248e-03
-3.3659580e-03
-1.0520476e-03
1.4376721e-03
3.3003604e-03
5.5204585e-03
8.8190382e-03
1.2363732e-02
1.4933084e-02
1.6217732e-02
1.6603583e-02
1.6010025e-02
1.4370881e-02
1.1667460e-02
8.6633053e-03
6.6406158e-03
5.6318858e-03
5.3584746e-03
5.6713546e-03
6.4705791e-03
7.5357481e-03
8.4440814e-03
9.2437550e-03
1.0357020e-02
1.2253223e-02
1.4149316e-02
1.5333535e-02
1.6319538e-02
1.6353517e-02
1.5479887e-02
1.5289801e-02
1.5623773e-02
1.5608107e-02
1.4504916e-02
1.2532718e-02
1.0864762e-02
9.9975967e-03
9.9734573e-03
9.6364787e-03
8.0412248e-03
6.1038840e-03
4.6625549e-03
3.7733713e-03
2.6069462e-03
7.2203683e-04
-8.5727458e-04
-1.9158455e-03
-2.7933891e-03
-3.9032471e-03
-6.0132215e-03
-8.7284106e-03
-1.1196313e-02
-1.2891081e-02
-1.3818697e-02
-1.4344762e-02
-1.4620932e-02
-1.4953357e-02
-1.5438656e-02
-1.6441387e-02
-1.7885185e-02
-1.8463569e-02
-1.7654714e-02
-1.6024280e-02
-1.4227117e-02
-1.2777086e-02
-1.1967449e-02
-1.1656650e-02
-1.1520077e-02
-1.1847254e-02
-1.2545288e-02
-1.2558639e-02
-1.1403423e-02
-9.2543897e-03
-6.2946163e-03
-3.0933265e-03
-4.7403478e-04
1.2213620e-03
2.1541585e-03
1.9089983e-03
1.0285025e-03
8.9436762e-04
1.5889170e-03
3.5182921e-03
6.1238046e-03
8.2622612e-03
9.9646107e-03
1.0659751e-02
1.0225030e-02
9.3634550e-03
8.5856785e-03
7.7721774e-03
6.6221356e-03
5.6423427e-03
4.9510096e-03
4.2656623e-03
3.6754637e-03
3.4096507e-03
3.5348997e-03
3.1215781e-03
2.1068136e-03
1.3521129e-03
9.0454829e-04
1.3623081e-03
2.6026132e-03
4.1170886e-03
5.8911412e-03
7.6553890e-03
1.0134366e-02
1.2960345e-02
1.5152441e-02
1.6681398e-02
1.7092712e-02
1.6248504e-02
1.3982129e-02
1.0830037e-02
7.8839072e-03
5.0376683e-03
2.5596432e-03
1.1412728e-03
6.9162155e-04
5.2639885e-04
2.4413941e-04
5.7981103e-04
2.0196241e-03
3.9150032e-03
5.6694953e-03
6.8285527e-03
7.0711146e-03
6.1697164e-03
3.5296638e-03
-2.2038908e-04
-3.1769535e-03
-4.6500172e-03
-5.7919014e-03
-7.3567418e-03
-8.8032959e-03
-1.0122268e-02
-1.1679133e-02
-1.3479659e-02
-1.4783700e-02
-1.4711463e-02
-1.3670689e-02
-1.2080174e-02
-1.0094001e-02
-7.8488610e-03
-5.3039587e-03
-2.5100950e-03
9.6797211e-04
4.7913696e-03
8.3447134e-03
1.1547267e-02
1.4074705e-02
1.5458524e-02
1.5096662e-02
1.3800250e-02
1.2176438e-02
9.8323586e-03
7.5868196e-03
5.4828945e-03
2.8417064e-03
2.6001005e-04
-1.2565885e-03
-1.3257923e-03
-7.1617262e-04
-1.7047531e-04
5.2874799e-04
1.4079017e-03
2.1026503e-03
2.0739628e-03
1.2434493e-03
-2.2650875e-04
-2.3625543e-03
-4.5968984e-03
-6.9010715e-03
-9.2504578e-03
-1.1161730e-02
-1.2413078e-02
-1.2958793e-02
-1.4062356e-02
-1.6023821e-02
-1.7484371e-02
-1.7835844e-02
-1.6465886e-02
-1.4483786e-02
-1.3837704e-02
-1.3768568e-02
-1.3321179e-02
-1.2812073e-02
-1.2873723e-02
-1.3570513e-02
-1.4253764e-02
-1.4737209e-02
-1.4834724e-02
-1.3928302e-02
-1.2007064e-02
-9.6688036e-03
-7.3969578e-03
-5.0375333e-03
-2.8026023e-03
-1.5773471e-03
-9.0986083e-04
1.7605437e-04
1.8660041e-03
4.0188828e-03
6.3759529e-03
8.6347609e-03
1.0626248e-02
1.2033401e-02
1.2176819e-02
1.1258125e-02
1.0267786e-02
9.5815862e-03
9.5263733e-03
1.0029174e-02
1.0160989e-02
9.8179422e-03
9.6481419e-03
1.0135564e-02
1.0559923e-02
1.0147932e-02
9.1760762e-03
7.4921418e-03
5.5354375e-03
3.3758685e-03
5.1504927e-04
-1.9586071e-03
-3.2982152e-03
-4.2605103e-03
-5.8017558e-03
-7.6827184e-03
-9.0873326e-03
-9.8887078e-03
-9.6635806e-03
-9.2185935e-03
-9.7083428e-03
-1.0638595e-02
-1.1533531e-02
-1.1780038e-02
-1.1386342e-02
-1.0171595e-02
-7.6239930e-03
-4.8720915e-03
-2.8696839e-03
-1.2411993e-03
6.3512440e-05
3.1322098e-04
3.5906704e-05
4.8734969e-04
1.3316777e-03
2.0119488e-03
2.4262087e-03
2.3356804e-03
2.3869094e-03
2.6367798e-03
2.9040395e-03
3.8904808e-03
4.9624802e-03
5.7461470e-03
6.3851553e-03
6.7269598e-03
6.9329843e-03
6.6283519e-03
6.4102237e-03
6.9246437e-03
7.8011121e-03
8.5380632e-03
8.9371378e-03
9.1021673e-03
8.4801093e-03
6.9756396e-03
4.9146796e-03
3.0678955e-03
2.4255788e-03
1.8714825e-03
4.4379908e-04
-1.1030791e-03
-2.3622424e-03
-3.1077748e-03
-3.4756971e-03
-3.6618969e-03
-3.6868379e-03
-3.6479814e-03
-3.0127542e-03
-2.3797806e-03
-2.3246580e-03
-1.4106303e-03
1.1609661e-03
4.6634392e-03
7.7058406e-03
9.4189355e-03
1.0334470e-02
1.1419838e-02
1.3145416e-02
1.4783783e-02
1.5771466e-02
1.6400437e-02
1.6929667e-02
1.8390875e-02
2.0419903e-02
2.1744259e-02
2.2570578e-02
2.3315280e-02
2.4425853e-02
2.5543587e-02
2.5981276e-02
2.5749854e-02
2.4634336e-02
2.2947992e-02
2.1443957e-02
1.9486037e-02
1.6362932e-02
1.2848153e-02
9.8147598e-03
6.7105237e-03
3.2630558e-03
-7.4635071e-05
-3.8717200e-03
-7.5203146e-03
-1.0584345e-02
-1.4178858e-02
-1.7862634e-02
-2.0899074e-02
-2.3324213e-02
-2.5635227e-02
-2.8225428e-02
-3.0155053e-02
-3.0222374e-02
-2.8535224e-02
-2.7282613e-02
-2.7285672e-02
-2.7418106e-02
-2.7646191e-02
-2.8083830e-02
-2.8496264e-02
-2.8138695e-02
-2.7339076e-02
-2.7239350e-02
-2.7324490e-02
-2.7309029e-02
-2.7514795e-02
-2.8351707e-02
-3.0159051e-02
-3.1821058e-02
-3.2569082e-02
-3.2598843e-02
-3.1665264e-02
-2.9843426e-02
-2.7803542e-02
-2.6368503e-02
-2.5637850e-02
-2.5272665e-02
-2.5164250e-02
-2.5185965e-02
-2.4837218e-02
-2.3185642e-02
-2.0213710e-02
-1.6360260e-02
-1.1387870e-02
-5.7080613e-03
-3.1512081e-04
4.2243373e-03
6.8306089e-03
6.9453923e-03
5.5149983e-03
4.3207270e-03
4.2228610e-03
4.3415543e-03
4.2243496e-03
3.6755882e-03
3.5753305e-03
5.3465392e-03
8.1452869e-03
1.0503844e-02
1.1291591e-02
1.0413762e-02
9.4540701e-03
8.8425561e-03
8.1578780e-03
7.8536304e-03
8.1987412e-03
9.2727754e-03
1.1175978e-02
1.4048689e-02
1.7604078e-02
2.1365587e-02
2.5344323e-02
2.9595360e-02
3.4169305e-02
3.8077511e-02
3.9739965e-02
3.9036435e-02
3.7315886e-02
3.6204515e-02
3.5535325e-02
3.3873320e-02
3.1049328e-02
2.6942347e-02
2.1693180e-02
1.6145851e-02
1.0835757e-02
6.8052712e-03
4.2488632e-03
2.3892534e-03
3.9340153e-04
-2.3878071e-03
-5.5657766e-03
-8.4211428e-03
-1.0689145e-02
-1.2630662e-02
-1.4374022e-02
-1.5174446e-02
-1.4192805e-02
-1.1998057e-02
-9.9160692e-03
-7.8461316e-03
-5.3037919e-03
-3.0790325e-03
-1.8718123e-03
-1.3540896e-03
-2.8082294e-04
1.7537500e-03
3.1268440e-03
3.6971986e-03
4.3934065e-03
5.2148740e-03
6.7005030e-03
7.9749383e-03
7.6737727e-03
6.2538216e-03
5.1229186e-03
5.3922421e-03
6.7259626e-03
8.6335368e-03
1.0545084e-02
1.1494474e-02
1.1335013e-02
1.0459607e-02
9.3488626e-03
7.8987740e-03
5.4391671e-03
2.3512873e-03
-3.8116614e-04
-2.8342638e-03
-5.7226908e-03
-8.4842665e-03
-1.0334665e-02
-1.1989432e-02
-1.3512849e-02
-1.4563121e-02
-1.5240252e-02
-1.5679244e-02
-1.6881016e-02
-1.8948098e-02
-2.1069075e-02
-2.2607827e-02
-2.2798426e-02
-2.1563653e-02
-1.8975733e-02
-1.5677317e-02
-1.2847129e-02
-1.0339006e-02
-7.6800351e-03
-5.2373088e-03
-3.3012454e-03
-1.4866476e-03
2.7241251e-04
1.1628065e-03
1.5102778e-03
2.7030148e-03
4.6595776e-03
6.4347116e-03
7.7272838e-03
8.9717416e-03
1.0318380e-02
1.1584063e-02
1.2964005e-02
1.3970001e-02
1.4492165e-02
1.4960195e-02
1.4989927e-02
1.4300549e-02
1.2570987e-02
9.5394186e-03
5.7904419e-03
2.1460864e-03
-6.8018803e-04
-1.8833296e-03
-1.7562433e-03
-2.1954242e-03
-3.5403317e-03
-4.6679234e-03
-5.5533955e-03
-5.9880712e-03
-5.9402026e-03
-5.8325256e-03
-5.7766778e-03
-6.4057287e-03
-7.4677075e-03
-7.9298663e-03
-7.0654268e-03
-4.4737959e-03
-1.2498352e-03
1.7848087e-03
4.6984234e-03
7.0168347e-03
8.3765353e-03
8.4945001e-03
7.2197988e-03
4.8227512e-03
2.0019543e-03
-1.1851959e-04
-3.8943792e-04
9.2427388e-04
2.2821223e-03
3.2779185e-03
4.1332215e-03
4.6118199e-03
4.9088339e-03
4.9516037e-03
4.4480929e-03
3.9155055e-03
3.7650367e-03
3.5257814e-03
2.1939719e-03
1.7986887e-04
-1.2723337e-03
-2.2573232e-03
-2.7934757e-03
-3.4944543e-03
-5.2685176e-03
-7.1749626e-03
-8.7580750e-03
-9.6711081e-03
-9.7012582e-03
-9.7934468e-03
-9.4889495e-03
-8.8327395e-03
-8.5690363e-03
-8.1472943e-03
-7.3856820e-03
-5.8314299e-03
-3.4684359e-03
-1.1316492e-03
9.0033373e-04
2.8658150e-03
5.0199074e-03
6.7331533e-03
8.1233005e-03
9.6890204e-03
1.1610299e-02
1.3987127e-02
1.6284278e-02
1.8305583e-02
1.8870739e-02
1.7411424e-02
1.5783672e-02
1.4248708e-02
1.1834334e-02
9.0336814e-03
6.7299623e-03
5.5447819e-03
5.3775244e-03
5.3704900e-03
4.8325359e-03
3.5283277e-03
1.9973217e-03
5.0567266e-04
-9.1065377e-04
-1.6599783e-03
-2.2766614e-03
-3.3911487e-03
-4.4469671e-03
-4.8451798e-03
-4.6941824e-03
-4.5924155e-03
-4.9636421e-03
-6.0684638e-03
-7.1569638e-03
-7.6901334e-03
-7.9082659e-03
-7.3402669e-03
-6.4726219e-03
-6.3692588e-03
-7.1286027e-03
-7.9536652e-03
-8.2396840e-03
-8.4148341e-03
-8.5259212e-03
-8.4220504e-03
-8.1478685e-03
-7.6704391e-03
-6.8782682e-03
-5.8743130e-03
-4.7584717e-03
-3.5694414e-03
-3.0532728e-03
-3.6265879e-03
-4.4496400e-03
-5.3387987e-03
-6.7326315e-03
-7.9980819e-03
-8.8775020e-03
-9.6287941e-03
-9.7913070e-03
-8.7087022e-03
-6.2996280e-03
-3.0683744e-03
9.6364290e-04
5.6803107e-03
9.2036232e-03
1.0550143e-02
1.0511516e-02
9.7860666e-03
9.0212209e-03
8.6026594e-03
8.4779258e-03
7.8830651e-03
6.7287758e-03
6.1997167e-03
6.4865690e-03
6.5569450e-03
5.8007268e-03
4.4841857e-03
3.5537209e-03
3.6979886e-03
5.0401821e-03
7.3541275e-03
9.6901101e-03
1.0732451e-02
1.0033110e-02
8.6845162e-03
7.2625406e-03
5.5870229e-03
3.6137256e-03
1.6082794e-03
6.3622014e-04
9.1736545e-04
1.3576518e-03
9.9066131e-04
8.5589576e-05
-5.1809542e-04
-1.1919039e-03
-2.4836837e-03
-3.4766063e-03
-3.4759629e-03
-2.8546286e-03
-1.6359499e-03
2.5472174e-04
1.7132982e-03
2.1151851e-03
2.1206937e-03
1.6476752e-03
9.4453957e-04
-1.5190650e-04
-2.4735882e-03
-4.6672160e-03
-5.7673675e-03
-6.1221862e-03
-6.4182375e-03
-6.9693026e-03
-7.0692836e-03
-7.3430634e-03
-8.4330378e-03
-1.0077014e-02
-1.1505564e-02
-1.1283732e-02
-9.8104563e-03
-7.9008792e-03
-4.8087327e-03
-1.2944685e-03
1.2209888e-03
2.7534482e-03
3.6830943e-03
4.1191242e-03
3.9049167e-03
4.0204264e-03
5.0145804e-03
6.2972093e-03
7.5318698e-03
8.3215511e-03
9.1506296e-03
1.0350888e-02
1.1402451e-02
1.2101660e-02
1.2773514e-02
1.3794034e-02
1.4699092e-02
1.4561400e-02
1.3041048e-02
1.0969219e-02
9.2224518e-03
7.1523212e-03
3.9941256e-03
4.7029314e-04
-2.2428521e-03
-3.8116663e-03
-5.1440765e-03
-6.3438219e-03
-6.7558463e-03
-6.9634670e-03
-7.4303802e-03
-8.0872808e-03
-8.6545342e-03
-9.2372837e-03
-1.0085020e-02
-1.0533550e-02
-1.0372913e-02
-9.4645633e-03
-7.9504160e-03
-6.8552687e-03
-5.7209427e-03
-4.0815420e-03
-2.4538356e-03
-1.2590357e-03
-1.3713633e-03
-2.6029869e-03
-4.6180506e-03
-7.0945619e-03
-8.4762164e-03
-8.0994825e-03
-6.0382073e-03
-2.9298735e-03
-3.4701756e-04
9.4044710e-04
1.5278413e-03
2.2466239e-03
3.3158503e-03
4.5811056e-03
5.3909654e-03
4.8783428e-03
3.8244381e-03
3.6046886e-03
4.0574473e-03
4.5769495e-03
4.6508446e-03
3.9224561e-03
2.6721708e-03
1.3831023e-03
4.2370247e-05
-1.4404130e-03
-2.6143908e-03
-3.7256550e-03
-5.1793059e-03
-6.1799821e-03
-6.3545641e-03
-5.7293076e-03
-4.4182110e-03
-2.9640286e-03
-1.3452706e-03
7.0476937e-04
2.8738940e-03
3.9948706e-03
4.2279244e-03
5.2104829e-03
6.9854971e-03
8.7121561e-03
9.2691028e-03
8.1418316e-03
6.4737804e-03
5.4741925e-03
5.7136012e-03
6.3053993e-03
6.7318401e-03
7.6462095e-03
9.0897466e-03
1.0869035e-02
1.1824563e-02
1.0888475e-02
8.6609493e-03
5.9393415e-03
3.4426981e-03
1.1968628e-03
-1.0779644e-03
-2.9385964e-03
-4.3442076e-03
-4.9678441e-03
-5.0774629e-03
-5.7751376e-03
-7.7558458e-03
-1.1281574e-02
-1.4386613e-02
-1.5341651e-02
-1.4770961e-02
-1.3028417e-02
-1.0664012e-02
-8.6791112e-03
-6.7823051e-03
-4.4669892e-03
-1.7219003e-03
1.5283837e-03
4.9378693e-03
8.0708973e-03
1.0897797e-02
1.3343870e-02
1.5221001e-02
1.6896458e-02
1.8199839e-02
1.9097151e-02
2.0163077e-02
2.0822017e-02
2.1006883e-02
2.0800895e-02
1.9957381e-02
1.8944258e-02
1.7706934e-02
1.6404646e-02
1.5409797e-02
1.4322464e-02
1.2564699e-02
1.0370552e-02
8.4069167e-03
6.0956952e-03
3.2722472e-03
6.0415845e-04
-2.2084332e-03
-4.8954593e-03
-6.8066764e-03
-8.5738936e-03
-1.0678646e-02
-1.2809645e-02
-1.4384781e-02
-1.5855298e-02
-1.7571875e-02
-1.8809790e-02
-1.9918024e-02
-2.0954440e-02
-2.1548306e-02
-2.0865093e-02
-1.8260032e-02
-1.5930075e-02
-1.5003439e-02
-1.4372351e-02
-1.3177788e-02
-1.1038222e-02
-9.2078576e-03
-7.9985584e-03
-6.6123382e-03
-5.6002524e-03
-5.1238312e-03
-4.5913205e-03
-3.8884034e-03
-3.1012911e-03
-1.6063337e-03
7.3111454e-04
3.3065609e-03
6.2394344e-03
8.9252308e-03
1.0699175e-02
1.2741061e-02
1.5509971e-02
1.7689193e-02
1.8367624e-02
1.8271141e-02
1.8397378e-02
1.8432070e-02
1.8278779e-02
1.8131981e-02
1.7211213e-02
1.5311762e-02
1.2667171e-02
9.1393339e-03
5.3022333e-03
1.9939168e-03
-2.5689878e-04
-1.9992741e-03
-4.5624182e-03
-7.9346552e-03
-1.0865365e-02
-1.2644745e-02
-1.4133004e-02
-1.5917892e-02
-1.7287975e-02
-1.7833356e-02
-1.7526225e-02
-1.6275159e-02
-1.4061083e-02
-1.1418365e-02
-8.7558818e-03
-6.2688817e-03
-5.0172544e-03
-4.6052493e-03
-3.6327304e-03
-2.4827476e-03
-1.6941811e-03
-8.7720480e-04
8.9715991e-04
3.7959857e-03
6.6054473e-03
8.8001095e-03
1.0064115e-02
1.0019288e-02
9.2635074e-03
8.6280112e-03
8.5249029e-03
8.2962090e-03
7.2944526e-03
5.6643858e-03
4.0922250e-03
3.3514679e-03
3.2476697e-03
3.4152806e-03
3.4759290e-03
2.4633134e-03
6.3115763e-04
-7.5242061e-04
-1.5436693e-03
-2.2288085e-03
-2.5704181e-03
-2.3020555e-03
-2.5882235e-03
-3.7753134e-03
-4.6326017e-03
-4.9642369e-03
-5.5381487e-03
-6.5849773e-03
-7.0890151e-03
-6.5980099e-03
-6.3177528e-03
-6.6250482e-03
-7.4476152e-03
-9.1081341e-03
-1.1626652e-02
-1.4440478e-02
-1.5987805e-02
-1.5776771e-02
-1.4459268e-02
-1.2252839e-02
-9.0220863e-03
-5.2531581e-03
-2.3158216e-03
-4.2757811e-04
9.4749031e-04
2.0484524e-03
3.5286677e-03
5.3364467e-03
6.7356515e-03
7.4523978e-03
7.6955697e-03
7.4302183e-03
6.3871434e-03
5.3315477e-03
4.7045862e-03
4.2485854e-03
4.4606992e-03
5.4557529e-03
6.7141885e-03
7.6493746e-03
7.8946629e-03
7.8724217e-03
7.9099487e-03
7.9956147e-03
7.6410969e-03
6.4550667e-03
5.6309572e-03
5.6078785e-03
5.7568479e-03
5.6219837e-03
4.0760433e-03
1.7510837e-03
2.0534276e-04
-6.2341006e-04
-1.2470029e-03
-1.7659841e-03
-1.4509073e-03
-4.0277353e-06
2.1058571e-03
4.0806596e-03
5.3701531e-03
6.2292137e-03
6.3792467e-03
6.1715323e-03
6.0465079e-03
5.0598347e-03
3.3802181e-03
1.2639702e-03
-1.2438604e-03
-2.8582638e-03
-3.2136870e-03
-2.7525724e-03
-1.9820240e-03
-1.6217659e-03
-1.9174993e-03
-2.1545740e-03
-1.9234545e-03
-2.6844390e-03
-4.9521519e-03
-8.2342231e-03
-1.2236067e-02
-1.5584388e-02
-1.8396640e-02
-2.1472077e-02
-2.4384446e-02
-2.7008190e-02
-2.8814619e-02
-2.9355606e-02
-2.8788345e-02
-2.7595540e-02
-2.6542896e-02
-2.5209609e-02
-2.2712127e-02
-1.8829223e-02
-1.4116750e-02
-9.5830129e-03
-4.7564220e-03
1.1018201e-03
7.2945468e-03
1.2852368e-02
1.6589584e-02
1.7962510e-02
1.7426008e-02
1.6201321e-02
1.6048005e-02
1.6660654e-02
1.7002292e-02
1.7254358e-02
1.7626412e-02
1.7780347e-02
1.7141447e-02
1.6405796e-02
1.5889820e-02
1.4922377e-02
1.3339648e-02
1.1616738e-02
1.1122224e-02
1.1338146e-02
1.0374768e-02
8.3505482e-03
6.1246332e-03
4.2446709e-03
2.2589693e-03
-1.7347669e-04
-2.5526244e-03
-5.3498048e-03
-8.7901620e-03
-1.2419759e-02
-1.5607673e-02
-1.8183247e-02
-1.9773401e-02
-1.9281144e-02
-1.7431992e-02
-1.5411688e-02
-1.3517345e-02
-1.2272677e-02
-1.1204817e-02
-9.9623717e-03
-9.0353866e-03
-7.9226010e-03
-6.1380370e-03
-3.9567618e-03
-1.8978215e-03
-9.1968067e-05
1.2386354e-03
2.0439762e-03
3.3633941e-03
4.4027079e-03
4.4407473e-03
5.2892126e-03
7.4657145e-03
9.5191112e-03
1.0252219e-02
9.9252018e-03
9.4849121e-03
9.2863290e-03
9.2665475e-03
9.0485930e-03
8.3609993e-03
7.1862375e-03
5.1594958e-03
2.8883966e-03
1.3043679e-03
2.3193821e-05
-1.2135592e-03
-2.7649510e-03
-5.2112340e-03
-8.5334611e-03
-1.1666236e-02
-1.3531293e-02
-1.4738718e-02
-1.5165401e-02
-1.4572901e-02
-1.3529617e-02
-1.1375931e-02
-8.3586141e-03
-5.5798710e-03
-3.0950535e-03
-4.4259114e-04
2.4478079e-03
5.0768392e-03
7.7183076e-03
1.0214611e-02
1.1494688e-02
1.1353839e-02
9.6940958e-03
7.4115384e-03
5.8833602e-03
5.3646076e-03
5.8016846e-03
7.2031802e-03
1.0124582e-02
1.3582568e-02
1.6065427e-02
1.7810755e-02
1.8994809e-02
1.9387624e-02
1.8869030e-02
1.7155642e-02
1.3603061e-02
8.9744827e-03
5.0883867e-03
1.7378514e-03
-1.6652378e-03
-4.5155827e-03
-7.2425322e-03
-9.6363319e-03
-1.0759004e-02
-1.1420271e-02
-1.1940741e-02
-1.1759787e-02
-1.1013512e-02
-1.0214441e-02
-9.4374263e-03
-8.1831897e-03
-6.4704496e-03
-4.2911254e-03
-1.6629833e-03
1.1180459e-03
4.1725960e-03
6.4502266e-03
7.2174693e-03
6.7410767e-03
5.4920026e-03
4.7028304e-03
4.2021579e-03
3.5328525e-03
2.8564022e-03
1.8544359e-03
8.4321738e-04
6.8900106e-04
1.5097170e-03
2.2587149e-03
2.5092393e-03
2.8052731e-03
2.4757841e-03
7.7685227e-04
-1.4164040e-03
-2.6405344e-03
-2.0396777e-03
-4.5218916e-04
7.4774617e-04
1.2564752e-03
9.7393038e-04
3.4500607e-04
-2.0787853e-04
-1.0481079e-03
-2.4573875e-03
-5.1186769e-03
-8.5158335e-03
-1.1836211e-02
-1.4982708e-02
-1.7148491e-02
-1.7901290e-02
-1.7563714e-02
-1.7065265e-02
-1.6873632e-02
-1.6599367e-02
-1.5912696e-02
-1.4518950e-02
-1.2544771e-02
-1.0529414e-02
-8.4272435e-03
-5.9697875e-03
-3.2101744e-03
-2.0440051e-04
2.3358996e-03
3.4297940e-03
3.6960266e-03
4.1882892e-03
5.0032085e-03
6.4666693e-03
8.5907482e-03
1.0615692e-02
1.2366088e-02
1.4047980e-02
1.5542354e-02
1.6418953e-02
1.6735425e-02
1.7132387e-02
1.7272117e-02
1.6695499e-02
1.5374165e-02
1.4158406e-02
1.4327582e-02
1.4680833e-02
1.4287085e-02
1.4068815e-02
1.3744669e-02
1.2552331e-02
9.9467756e-03
6.2656527e-03
3.2486718e-03
1.7378887e-03
1.5133025e-03
1.1394698e-03
-1.8224582e-04
-1.6192321e-03
-3.1408791e-03
-4.6244675e-03
-6.4578392e-03
-8.8835004e-03
-1.1166514e-02
-1.3418183e-02
-1.4653197e-02
-1.3669718e-02
-1.1632056e-02
-9.7082904e-03
-8.3735427e-03
-7.8378082e-03
-7.8715485e-03
-8.3898791e-03
-8.5633597e-03
-7.7433069e-03
-6.1587996e-03
-4.0351310e-03
-1.4918392e-03
1.2351889e-03
3.3970549e-03
4.9596671e-03
6.2325852e-03
6.9464384e-03
6.9235462e-03
6.6272336e-03
6.6782762e-03
6.4334834e-03
5.8094992e-03
4.9731018e-03
3.4114733e-03
1.8602011e-03
5.1924561e-04
-1.1135226e-03
-3.1553030e-03
-5.5975904e-03
-8.2272559e-03
-1.1236925e-02
-1.4312212e-02
-1.6470060e-02
-1.7290295e-02
-1.6803853e-02
-1.5290401e-02
-1.4190667e-02
-1.4780547e-02
-1.6205412e-02
-1.6971143e-02
-1.7099691e-02
-1.6943827e-02
-1.5634946e-02
-1.2678798e-02
-8.5062436e-03
-3.6784471e-03
9.6717481e-04
4.7802127e-03
7.8767951e-03
1.0997527e-02
1.4071368e-02
1.6494503e-02
1.8812489e-02
2.0910356e-02
2.2358204e-02
2.3826035e-02
2.6165755e-02
2.8644616e-02
2.9547107e-02
2.9419770e-02
2.9009970e-02
2.7818398e-02
2.5998633e-02
2.4321294e-02
2.3322717e-02
2.2485358e-02
2.0774887e-02
1.7746944e-02
1.3420550e-02
8.1390679e-03
2.1582157e-03
-4.5348197e-03
-1.1159820e-02
-1.6850187e-02
-2.1312257e-02
-2.4754049e-02
-2.7242742e-02
-2.8359980e-02
-2.8832414e-02
-2.9228814e-02
-2.9163663e-02
-2.8472841e-02
-2.6774666e-02
-2.4151915e-02
-2.0795451e-02
-1.6832723e-02
-1.2726138e-02
-8.4855836e-03
-4.3409580e-03
-5.2157813e-04
2.2723921e-03
3.4485655e-03
3.8926726e-03
3.9604339e-03
3.9874878e-03
4.7410149e-03
6.1631006e-03
7.5780332e-03
8.0784286e-03
7.3650544e-03
6.0380879e-03
5.6650647e-03
6.6515736e-03
7.7005651e-03
8.4129844e-03
8.6225568e-03
8.0301016e-03
7.2007990e-03
6.8855746e-03
6.9045128e-03
6.5848805e-03
5.9736339e-03
4.9527516e-03
3.4889040e-03
2.3603370e-03
1.3604804e-03
-1.2327259e-04
-1.7979428e-03
-3.5015771e-03
-6.1447048e-03
-1.0550337e-02
-1.4795489e-02
-1.6717860e-02
-1.6897880e-02
-1.6098022e-02
-1.4395912e-02
-1.2150273e-02
-1.0188942e-02
-8.6458035e-03
-6.5232018e-03
-4.1867932e-03
-2.2789560e-03
-1.1283360e-04
2.4050662e-03
5.2463969e-03
7.7741073e-03
8.6516071e-03
8.3112634e-03
8.1044597e-03
8.6731992e-03
9.5910880e-03
1.0215536e-02
1.0240261e-02
9.8136796e-03
9.7467210e-03
9.9631489e-03
9.9768793e-03
1.0154847e-02
1.1111552e-02
1.2302937e-02
1.2385887e-02
1.1476750e-02
1.0039064e-02
8.1414514e-03
6.5166502e-03
4.3828017e-03
1.8677337e-04
-5.3798470e-03
-1.0897161e-02
-1.5804807e-02
-2.0535151e-02
-2.5210018e-02
-2.9071435e-02
-3.1622806e-02
-3.3364308e-02
-3.5982176e-02
-3.9009484e-02
-4.0121489e-02
-3.8840485e-02
-3.5243334e-02
-2.8562069e-02
-1.9467405e-02
-1.0436336e-02
-3.1172786e-03
2.1111236e-03
5.1003149e-03
6.4490141e-03
7.5371602e-03
8.4941001e-03
9.0001582e-03
8.5478701e-03
6.7754308e-03
5.3333631e-03
4.9517131e-03
5.2851743e-03
6.7375464e-03
9.2636419e-03
1.2850689e-02
1.7254595e-02
2.2307070e-02
2.8427765e-02
3.4679739e-02
3.9386326e-02
4.1630058e-02
4.0697857e-02
3.5597864e-02
2.8504406e-02
2.3112456e-02
1.8938689e-02
1.5173451e-02
1.2562136e-02
1.1413634e-02
1.1127184e-02
1.0113330e-02
8.1039295e-03
5.9744486e-03
4.0309719e-03
1.6220923e-03
-1.6730545e-03
-4.7085040e-03
-7.4933799e-03
-1.0961418e-02
-1.3891829e-02
-1.5444835e-02
-1.5929691e-02
-1.5731754e-02
-1.5546075e-02
-1.5478609e-02
-1.5478423e-02
-1.5070322e-02
-1.3319497e-02
-1.0624703e-02
-8.2425172e-03
-6.5001212e-03
-5.1372731e-03
-4.3931367e-03
-3.9834481e-03
-3.0714385e-03
-1.9859603e-03
-1.3878974e-03
-1.7888508e-03
-2.9570318e-03
-4.2543759e-03
-5.9269654e-03
-7.7464713e-03
-9.3516379e-03
-1.0218439e-02
-1.0122828e-02
-1.0201331e-02
-1.0666306e-02
-1.1533287e-02
-1.3333208e-02
-1.5514437e-02
-1.7568060e-02
-1.8319104e-02
-1.6147447e-02
-1.2214110e-02
-8.6686759e-03
-5.4584003e-03
-2.1138907e-03
1.0006590e-03
4.2380870e-03
7.6865406e-03
9.9405188e-03
1.1247784e-02
1.2968981e-02
1.4717193e-02
1.6112167e-02
1.6862781e-02
1.6639163e-02
1.5725604e-02
1.4558256e-02
1.3605978e-02
1.2461736e-02
1.1238399e-02
1.0699457e-02
1.0555764e-02
1.0874624e-02
1.1403406e-02
1.1198726e-02
1.0187843e-02
9.0967175e-03
8.3972245e-03
7.4285875e-03
6.1418405e-03
4.7251190e-03
2.9568631e-03
1.6118439e-03
1.0231436e-03
7.0585689e-04
-4.2107142e-04
-3.0100686e-03
-5.4829895e-03
-6.9710884e-03
-8.2934005e-03
-9.8293814e-03
-1.1298600e-02
-1.1874960e-02
-1.1511313e-02
-1.0370111e-02
-8.4685096e-03
-6.2958850e-03
-3.4214727e-03
-2.3706812e-05
3.3124006e-03
6.0215408e-03
7.3832839e-03
8.5180391e-03
9.4615950e-03
9.5424725e-03
9.6470164e-03
9.8985095e-03
9.9828176e-03
9.7262429e-03
9.2263840e-03
8.5023726e-03
7.4045612e-03
6.7231789e-03
6.2787862e-03
5.4184609e-03
4.3124605e-03
3.2584871e-03
2.5953709e-03
1.4190962e-03
-5.7285330e-04
-3.0080617e-03
-6.1073916e-03
-8.5818374e-03
-9.9400806e-03
-1.0949574e-02
-1.1445011e-02
-1.1417959e-02
-1.1002559e-02
-1.0536148e-02
-1.0610843e-02
-1.0981670e-02
-1.0910820e-02
-1.0823983e-02
-1.1534303e-02
-1.1736085e-02
-1.0405410e-02
-9.0278841e-03
-8.0880051e-03
-6.8925191e-03
-5.8450455e-03
-4.9136739e-03
-3.1960269e-03
-4.5741009e-04
2.2441291e-03
4.4159862e-03
6.5838878e-03
8.0214673e-03
8.2793272e-03
7.8016024e-03
6.8571699e-03
5.8099226e-03
4.9434607e-03
4.7562022e-03
5.0428375e-03
5.1437541e-03
4.9549304e-03
4.7162141e-03
4.7426620e-03
4.4920192e-03
3.5645851e-03
2.6238437e-03
2.0011691e-03
1.9087128e-03
1.9893463e-03
1.2295134e-03
-3.7152490e-04
-2.5151977e-03
-4.7912950e-03
-6.4912004e-03
-7.6684979e-03
-8.6979794e-03
-9.3505014e-03
-9.5797558e-03
-9.7166594e-03
-9.5121867e-03
-8.4835062e-03
-6.9268315e-03
-4.6228460e-03
-1.3424488e-03
1.3173515e-03
2.8093466e-03
4.0969496e-03
5.4063759e-03
6.2917204e-03
6.6643620e-03
7.1175800e-03
7.5345795e-03
7.1730836e-03
5.4657079e-03
2.9093586e-03
1.2993755e-03
1.2026191e-03
1.4557386e-03
1.3050143e-03
1.4793284e-03
2.9998801e-03
5.6267283e-03
8.3577230e-03
1.0441084e-02
1.1603357e-02
1.2159131e-02
1.2026299e-02
1.0980350e-02
9.6319479e-03
8.6403452e-03
7.9263739e-03
6.5250888e-03
4.7756842e-03
2.9833404e-03
1.5691889e-05
-3.4411621e-03
-5.9990649e-03
-7.3397231e-03
-7.7716823e-03
-7.6123547e-03
-6.8603768e-03
-5.9893039e-03
-5.2836560e-03
-4.7081168e-03
-4.0456709e-03
-2.7358836e-03
-1.2523872e-03
-7.1345898e-04
-1.5473055e-03
-2.8643670e-03
-3.7293022e-03
-4.8738018e-03
-6.9260377e-03
-9.0754471e-03
-1.0111282e-02
-9.9277528e-03
-9.0195431e-03
-7.6541487e-03
-6.4192849e-03
-5.1218723e-03
-2.5514302e-03
1.3922477e-03
5.8100081e-03
9.5585680e-03
1.1817608e-02
1.3309435e-02
1.4157330e-02
1.3630977e-02
1.2122318e-02
1.0256797e-02
8.6153953e-03
7.5604908e-03
6.4449917e-03
4.1153548e-03
9.4390904e-04
-1.5880895e-03
-3.3803282e-03
-5.1531723e-03
-7.5621217e-03
-1.0496536e-02
-1.2722879e-02
-1.3815297e-02
-1.4317216e-02
-1.4351957e-02
-1.3898703e-02
-1.2813836e-02
-1.1203609e-02
-9.3873067e-03
-7.4587420e-03
-5.7554499e-03
-4.6737354e-03
-4.6538479e-03
-5.1610759e-03
-5.3197359e-03
-4.7366118e-03
-2.9158004e-03
-9.7835755e-04
2.2428766e-05
3.4905894e-04
3.9749629e-04
1.3811748e-03
2.9241980e-03
4.1979432e-03
6.0967785e-03
8.2156302e-03
9.5626245e-03
1.0058475e-02
9.8418717e-03
8.9127712e-03
7.7755297e-03
7.2925125e-03
7.0235364e-03
6.4803805e-03
5.8363912e-03
5.6831647e-03
6.3478899e-03
6.3374461e-03
4.9460853e-03
3.0836450e-03
1.6557919e-03
9.7197788e-04
4.9595339e-04
3.9100806e-04
8.9035903e-05
-1.4670843e-03
-2.9174176e-03
-3.9273448e-03
-5.6344507e-03
-7.0723928e-03
-7.3686749e-03
-6.6884093e-03
-5.7054632e-03
-5.1821287e-03
-4.9716143e-03
-4.6372896e-03
-3.8678818e-03
-3.1771344e-03
-2.7083149e-03
-2.1387710e-03
-1.9505324e-03
-1.9912874e-03
-1.4978560e-03
-1.3525588e-04
1.5809813e-03
3.1167537e-03
4.7850012e-03
5.9411906e-03
6.0847833e-03
6.0882693e-03
6.0957312e-03
5.9182721e-03
5.6993403e-03
5.1849795e-03
4.1377763e-03
2.4363990e-03
4.2018249e-04
-1.2056413e-03
-2.3918902e-03
-3.9252976e-03
-6.0016113e-03
-7.1168698e-03
-6.4601443e-03
-4.6613594e-03
-2.8835019e-03
-1.8403575e-03
-1.1436609e-03
-1.4767303e-03
-3.1347899e-03
-5.0221913e-03
-6.8762383e-03
-9.0131315e-03
-1.1536866e-02
-1.3534813e-02
-1.3845979e-02
-1.2299968e-02
-8.8962437e-03
-3.8362106e-03
1.7397393e-03
6.7995592e-03
1.0578238e-02
1.2799777e-02
1.4028259e-02
1.4398126e-02
1.4156836e-02
1.4201895e-02
1.5173086e-02
1.6148375e-02
1.6148334e-02
1.5855021e-02
1.5739351e-02
1.5679607e-02
1.5501966e-02
1.5394377e-02
1.5496630e-02
1.5328510e-02
1.4909820e-02
1.4364982e-02
1.3270448e-02
1.1075072e-02
8.0725466e-03
5.0281134e-03
1.5356761e-03
-2.6101060e-03
-6.7255667e-03
-1.0528432e-02
-1.3575556e-02
-1.6528329e-02
-2.0123202e-02
-2.3096847e-02
-2.4929264e-02
-2.5915683e-02
-2.6649839e-02
-2.7573289e-02
-2.7850146e-02
-2.7009264e-02
-2.5219042e-02
-2.3057790e-02
-2.1352044e-02
-1.9798962e-02
-1.7789055e-02
-1.5051858e-02
-1.1587774e-02
-8.4074886e-03
-6.2292004e-03
-4.5485665e-03
-3.1255489e-03
-2.4952924e-03
-2.3713066e-03
-2.1433454e-03
-1.4361417e-03
3.7041595e-04
2.3968522e-03
3.0981883e-03
3.0073647e-03
3.9475955e-03
6.5466232e-03
9.8935382e-03
1.2720062e-02
1.4350423e-02
1.4943237e-02
1.4891534e-02
1.4201346e-02
1.2854555e-02
1.0787711e-02
8.3055312e-03
6.2240838e-03
3.4459394e-03
-7.8560153e-04
-4.5405583e-03
-7.0276130e-03
-9.1662119e-03
-1.1263251e-02
-1.2532163e-02
-1.2319907e-02
-1.1126243e-02
-9.5188046e-03
-8.1832408e-03
-7.5736999e-03
-6.4725313e-03
-4.1617925e-03
-1.4481119e-03
1.1128494e-03
3.6296814e-03
6.2864344e-03
8.3140676e-03
9.3087101e-03
9.7733722e-03
1.0161255e-02
1.1127124e-02
1.2529924e-02
1.3868468e-02
1.4924130e-02
1.5363875e-02
1.5300392e-02
1.4812589e-02
1.4045087e-02
1.3146034e-02
1.2050523e-02
1.0482068e-02
7.8043591e-03
4.5670787e-03
1.8415197e-03
-7.9553687e-05
-1.7934815e-03
-4.0940229e-03
-7.0044240e-03
-1.0412086e-02
-1.3525526e-02
-1.5953155e-02
-1.8441481e-02
-2.0804625e-02
-2.2372967e-02
-2.2996105e-02
-2.3014087e-02
-2.2414939e-02
-2.0891390e-02
-1.9504118e-02
-1.8683422e-02
-1.7361747e-02
-1.5389549e-02
-1.2532665e-02
-8.5154635e-03
-4.1773036e-03
6.8039477e-05
4.1527676e-03
7.7966418e-03
1.0278309e-02
1.1242089e-02
1.1544781e-02
1.1703536e-02
1.2387550e-02
1.3663712e-02
1.4766290e-02
1.5378218e-02
1.5125205e-02
1.4886434e-02
1.5693556e-02
1.7107207e-02
1.8364344e-02
1.9300939e-02
2.0170786e-02
1.9967220e-02
1.7905295e-02
1.5382035e-02
1.3389946e-02
1.1381316e-02
8.6315459e-03
5.1473190e-03
1.5340353e-03
-1.9453861e-03
-5.0156308e-03
-7.2538943e-03
-8.8160688e-03
-9.9679345e-03
-1.1176637e-02
-1.2850188e-02
-1.4235935e-02
-1.4702760e-02
-1.5229719e-02
-1.6742095e-02
-1.8649129e-02
-2.0528839e-02
-2.2037265e-02
-2.2596498e-02
-2.2292383e-02
-2.0529981e-02
-1.7043250e-02
-1.2887800e-02
-8.5290721e-03
-3.7119128e-03
1.7844706e-03
7.3778124e-03
1.2217127e-02
1.6524062e-02
2.0034509e-02
2.2297764e-02
2.3351172e-02
2.2810040e-02
2.1342792e-02
1.9532157e-02
1.7341075e-02
1.5657322e-02
1.4563974e-02
1.3608844e-02
1.3043303e-02
1.2891708e-02
1.2663115e-02
1.2085170e-02
1.1677498e-02
1.1255992e-02
1.0080566e-02
8.2673104e-03
6.3657817e-03
5.0663864e-03
3.3924636e-03
-5.3311544e-04
-6.2069501e-03
-1.1682549e-02
-1.5475372e-02
-1.7670862e-02
-1.9257226e-02
-2.0517958e-02
-2.0894025e-02
-1.9773229e-02
-1.7416984e-02
-1.4023179e-02
-1.0257696e-02
-7.1287064e-03
-4.6655380e-03
-3.1401381e-03
-2.6303387e-03
-3.0175377e-03
-3.7371990e-03
-3.3796893e-03
-2.1056242e-03
-7.1048916e-04
8.7566478e-04
2.6630378e-03
4.7543881e-03
6.8206307e-03
8.1238671e-03
8.5082968e-03
8.5698034e-03
8.9654831e-03
8.6397356e-03
7.2541056e-03
5.8345542e-03
4.1073097e-03
1.9243158e-03
-7.5582897e-04
-3.6856027e-03
-5.9496526e-03
-7.5975660e-03
-9.1190623e-03
-1.0506458e-02
-1.1147768e-02
-1.0951540e-02
-1.0541588e-02
-9.8784100e-03
-9.5755830e-03
-1.0439885e-02
-1.1337233e-02
-1.0734412e-02
-8.7639104e-03
-7.0599040e-03
-5.7605186e-03
-3.9987818e-03
-2.0507320e-03
-2.4281321e-05
1.7977733e-03
3.7227397e-03
5.6523003e-03
7.1451298e-03
9.2045104e-03
1.0857403e-02
1.0876276e-02
1.0774655e-02
1.1634207e-02
1.3009498e-02
1.3998577e-02
1.4302497e-02
1.4410635e-02
1.4635899e-02
1.4895728e-02
1.4083365e-02
1.1696422e-02
9.3764608e-03
8.0434928e-03
7.4711408e-03
6.9735272e-03
5.6090762e-03
3.5911305e-03
1.2593325e-03
-5.6258246e-04
-1.6567957e-03
-3.2054993e-03
-5.2249120e-03
-7.1279599e-03
-8.2197722e-03
-8.6636977e-03
-9.3987300e-03
-1.0089386e-02
-9.9432732e-03
-9.2332720e-03
-8.8573516e-03
-8.8786503e-03
-8.8281655e-03
-7.8834035e-03
-5.5688465e-03
-2.7048603e-03
-1.7176914e-04
1.2311028e-03
1.7280325e-03
3.0407105e-03
5.5739604e-03
8.7512390e-03
1.2084453e-02
1.4498326e-02
1.5946349e-02
1.7037637e-02
1.8110628e-02
1.9155934e-02
1.9897730e-02
2.1024200e-02
2.2282528e-02
2.2384759e-02
2.1035248e-02
1.8411502e-02
1.4941600e-02
1.1334958e-02
8.1800517e-03
5.6005812e-03
2.8187236e-03
-4.3971747e-04
-2.8669370e-03
-4.0482624e-03
-4.8340079e-03
-5.7319081e-03
-6.9412755e-03
-9.1249463e-03
-1.1944091e-02
-1.3674502e-02
-1.4080530e-02
-1.4074119e-02
-1.4447494e-02
-1.4989042e-02
-1.4952592e-02
-1.4396487e-02
-1.3028856e-02
-1.1014094e-02
-9.2840691e-03
-8.0648563e-03
-7.2335985e-03
-6.3421665e-03
-5.1640954e-03
-4.1195888e-03
-3.4206343e-03
-2.5243916e-03
-9.4247956e-04
9.5388435e-04
2.9500300e-03
4.7480540e-03
5.8045001e-03
6.1022355e-03
5.4237123e-03
3.7537013e-03
2.2199784e-03
1.6300985e-03
1.6513035e-03
8.8545922e-04
-1.8415410e-03
-5.9198304e-03
-1.0209033e-02
-1.3357952e-02
-1.4828054e-02
-1.5518432e-02
-1.6249365e-02
-1.7403694e-02
-1.8737396e-02
-2.0633844e-02
-2.3454475e-02
-2.5666084e-02
-2.5942459e-02
-2.4403693e-02
-2.2196642e-02
-1.9709157e-02
-1.6234333e-02
-1.1939484e-02
-6.6331446e-03
-6.7934494e-04
4.6721261e-03
9.1477362e-03
1.3032044e-02
1.7073713e-02
2.0784299e-02
2.3017166e-02
2.3449573e-02
2.1913569e-02
1.9090369e-02
1.5558297e-02
1.1757682e-02
8.1694364e-03
4.7077523e-03
1.7827766e-03
-8.1546324e-04
-3.7323795e-03
-6.8003468e-03
-1.0017194e-02
-1.2994739e-02
-1.5938770e-02
-1.9270625e-02
-2.1932617e-02
-2.3509979e-02
-2.4340844e-02
-2.3495917e-02
-1.9066449e-02
-1.2698210e-02
-8.2621647e-03
-5.3938814e-03
-2.7403735e-03
-6.4968101e-04
7.3507717e-04
1.5226191e-03
2.9945587e-03
5.2690988e-03
7.3122669e-03
9.4256979e-03
1.2277786e-02
1.6644353e-02
2.2349576e-02
2.8040217e-02
3.2382057e-02
3.5728482e-02
3.9622854e-02
4.3241995e-02
4.5374618e-02
4.6209159e-02
4.5347410e-02
4.3198936e-02
4.0355919e-02
3.6130354e-02
3.1170569e-02
2.6890718e-02
2.3414576e-02
2.0788138e-02
1.8803729e-02
1.6711130e-02
1.4740906e-02
1.3370894e-02
1.1541509e-02
8.9245913e-03
6.3225037e-03
3.7064171e-03
1.0903255e-03
-1.9183114e-03
-5.3099022e-03
-8.5185692e-03
-1.1804118e-02
-1.4942509e-02
-1.8161799e-02
-2.1855702e-02
-2.4394675e-02
-2.4775095e-02
-2.4017332e-02
-2.2987118e-02
-2.0947785e-02
-1.7397979e-02
-1.3557802e-02
-1.0511752e-02
-8.9440080e-03
-8.1376247e-03
-7.1477996e-03
-6.4000170e-03
-5.6373300e-03
-4.2393829e-03
-2.4091544e-03
-1.1372710e-03
-8.1590320e-04
-7.6221604e-04
-9.3200947e-04
-9.7521569e-04
-2.8393415e-04
4.7576595e-04
1.3133176e-03
2.7549729e-03
4.2484198e-03
4.9621493e-03
5.1077184e-03
6.1252429e-03
7.4985987e-03
7.4114418e-03
6.5454357e-03
5.9407356e-03
6.0644889e-03
6.2717089e-03
5.5506800e-03
5.0488743e-03
5.2397257e-03
5.3326984e-03
4.6666548e-03
3.4566059e-03
2.4541032e-03
1.4544207e-03
7.9099981e-04
1.3176660e-04
-1.2802793e-03
-2.9266569e-03
-4.3420429e-03
-4.7963805e-03
-4.5543431e-03
-4.3574210e-03
-4.3637210e-03
-4.7183584e-03
-4.8812746e-03
-4.9131795e-03
-5.2799529e-03
-5.7984730e-03
-6.7225509e-03
-8.0286668e-03
-9.8336230e-03
-1.2542503e-02
-1.5145430e-02
-1.6936319e-02
-1.8244640e-02
-1.9670367e-02
-2.1410117e-02
-2.2702853e-02
-2.3033474e-02
-2.2633871e-02
-2.2264637e-02
-2.2385367e-02
-2.2562581e-02
-2.2490388e-02
-2.1894188e-02
-2.0748583e-02
-1.9599933e-02
-1.8037423e-02
-1.5514340e-02
-1.1878499e-02
-6.6151505e-03
6.9228383e-04
8.1015540e-03
1.3141700e-02
1.6463814e-02
1.7736963e-02
1.6574555e-02
1.5307817e-02
1.5178524e-02
1.5725270e-02
1.5872027e-02
1.5286804e-02
1.4293637e-02
1.2693066e-02
1.1688615e-02
1.2293327e-02
1.4130178e-02
1.6843851e-02
1.9243217e-02
2.0629088e-02
2.0594441e-02
1.9023732e-02
1.6795172e-02
1.3930262e-02
1.0142678e-02
5.8245461e-03
1.2839045e-03
-3.1197788e-03
-6.3360753e-03
-7.9357005e-03
-9.1548347e-03
-1.0879957e-02
-1.1998664e-02
-1.1891655e-02
-1.1442213e-02
-1.0857298e-02
-9.8583094e-03
-8.8432952e-03
-7.8776779e-03
-6.7570655e-03
-6.0657322e-03
-5.8069252e-03
-5.5302248e-03
-5.3619538e-03
-4.7863882e-03
-3.3805029e-03
-2.3969152e-03
-3.0569551e-03
-5.2814414e-03
-7.9162694e-03
-1.0167946e-02
-1.1660318e-02
-1.1978260e-02
-1.2313123e-02
-1.2855338e-02
-1.2599649e-02
-1.1803917e-02
-1.0503322e-02
-8.7898226e-03
-7.1237691e-03
-5.7513299e-03
-4.6421515e-03
-3.7549769e-03
-3.3411546e-03
-3.0949415e-03
-2.8318975e-03
-2.7675575e-03
-2.7569356e-03
-2.2129210e-03
-8.8115707e-04
-3.4583778e-04
-1.1603129e-03
-1.7176503e-03
-1.4851367e-03
9.2349989e-07
2.6190564e-03
5.4938360e-03
8.6039833e-03
1.0647199e-02
1.0889906e-02
1.0599948e-02
1.0635239e-02
1.0945840e-02
1.1183023e-02
1.1801725e-02
1.2437221e-02
1.1792555e-02
1.0407246e-02
9.1890558e-03
8.6161293e-03
8.6773812e-03
8.6043210e-03
8.7502207e-03
9.2298875e-03
9.0399504e-03
7.3979323e-03
4.6269672e-03
1.9572665e-03
-2.1110740e-04
-1.9805306e-03
-3.5132336e-03
-4.6179796e-03
-4.3848057e-03
-2.9114113e-03
-1.0249976e-03
7.9125704e-04
2.1301138e-03
2.6770822e-03
2.4254837e-03
2.0891684e-03
2.0409716e-03
1.8140013e-03
1.4756984e-03
1.1522995e-03
8.0871334e-04
3.3572178e-04
-4.4138630e-04
-1.2406314e-03
-1.6620460e-03
-1.3324027e-03
-1.1370520e-03
-2.0100269e-03
-3.4602302e-03
-5.1954027e-03
-7.2538715e-03
-9.9878592e-03
-1.3399823e-02
-1.7053580e-02
-2.0442318e-02
-2.2466760e-02
-2.3009658e-02
-2.2927108e-02
-2.3082011e-02
-2.3882333e-02
-2.4996649e-02
-2.6637361e-02
-2.8169757e-02
-2.8477475e-02
-2.8117515e-02
-2.7863017e-02
-2.8351843e-02
-2.9602439e-02
-3.0722107e-02
-3.1106818e-02
-3.0127187e-02
-2.7937323e-02
-2.5370821e-02
-2.2392624e-02
-1.9090493e-02
-1.5923534e-02
-1.2939826e-02
-9.8449981e-03
-6.3551273e-03
-2.6215135e-03
1.3595502e-03
5.6742628e-03
9.8567575e-03
1.3351113e-02
1.6154708e-02
1.8935752e-02
2.1568736e-02
2.3650283e-02
2.5468320e-02
2.6980182e-02
2.8493808e-02
3.0426603e-02
3.2784352e-02
3.5017902e-02
3.6571539e-02
3.7546204e-02
3.7483773e-02
3.5951496e-02
3.2976049e-02
2.9168978e-02
2.5880998e-02
2.2847527e-02
1.8937819e-02
1.4697109e-02
1.1101043e-02
8.4189643e-03
5.9679897e-03
3.0995777e-03
-1.3821861e-04
-3.7889345e-03
-7.1968670e-03
-9.6037516e-03
-1.0914209e-02
-1.1567391e-02
-1.1657278e-02
-1.0787877e-02
-9.8100544e-03
-9.4083210e-03
-9.1886350e-03
-8.4648924e-03
-6.9159109e-03
-5.5362477e-03
-4.3511079e-03
-2.9469566e-03
-1.6320045e-03
3.1397371e-04
2.5197440e-03
4.2748371e-03
6.0631120e-03
7.9298275e-03
9.5508657e-03
1.0050677e-02
9.2390278e-03
7.8798547e-03
6.7069420e-03
6.3057206e-03
5.7800960e-03
4.1314297e-03
1.7970954e-03
-2.8459879e-04
-2.2160891e-03
-5.3484287e-03
-9.3962364e-03
-1.2991331e-02
-1.6063756e-02
-1.8886432e-02
-2.1511082e-02
-2.3988098e-02
-2.6198917e-02
-2.7846907e-02
-2.8449673e-02
-2.7562215e-02
-2.4467201e-02
-1.9293764e-02
-1.3521603e-02
-7.6152038e-03
-2.0020315e-03
2.7743153e-03
7.6470567e-03
1.2829401e-02
1.7471545e-02
2.1190936e-02
2.4588733e-02
2.8271218e-02
3.1444607e-02
3.3945815e-02
3.6334395e-02
3.8660615e-02
4.0549585e-02
4.1636022e-02
4.2445995e-02
4.2740071e-02
4.2307371e-02
4.1335345e-02
3.9667700e-02
3.7311598e-02
3.2866560e-02
2.5485166e-02
1.6344683e-02
6.8483359e-03
-1.7827940e-03
-9.0716119e-03
-1.5102368e-02
-2.0144388e-02
-2.4646447e-02
-2.8528177e-02
-3.1917457e-02
-3.4980094e-02
-3.7592298e-02
-4.0086791e-02
-4.2307659e-02
-4.4323524e-02
-4.6133211e-02
-4.7317947e-02
-4.7549852e-02
-4.5942613e-02
-4.3332592e-02
-4.0752738e-02
-3.6763620e-02
-3.0577419e-02
-2.2648587e-02
-1.3566348e-02
-3.7036211e-03
5.6804609e-03
1.2535126e-02
1.7588002e-02
2.1447231e-02
2.3748779e-02
2.5530876e-02
2.7004163e-02
2.8246718e-02
2.9594431e-02
3.1375720e-02
3.3857871e-02
3.6004945e-02
3.6817463e-02
3.5860358e-02
3.3565044e-02
3.1441512e-02
3.0293158e-02
3.0122504e-02
2.9841284e-02
2.8522416e-02
2.6601956e-02
2.3927897e-02
1.9926048e-02
1.3986766e-02
6.1859139e-03
-2.2223523e-03
-9.9659779e-03
-1.6152422e-02
-2.0423186e-02
-2.3210388e-02
-2.5286291e-02
-2.6284777e-02
-2.5173796e-02
-2.2466807e-02
-1.9598522e-02
-1.7377873e-02
-1.5554458e-02
-1.3532166e-02
-1.2001112e-02
-1.0893507e-02
-9.7895427e-03
-9.2348036e-03
-8.7226544e-03
-7.7455796e-03
-6.0125675e-03
-3.9577946e-03
-2.5317829e-03
-1.0952858e-03
5.3439685e-04
2.5177256e-03
5.1025997e-03
7.2220892e-03
8.6364482e-03
9.4296803e-03
1.0125561e-02
1.0739812e-02
1.0679008e-02
1.0927210e-02
1.1417184e-02
1.1217324e-02
1.0154606e-02
8.4902525e-03
6.3365341e-03
3.3806427e-03
8.1148333e-04
-9.4510039e-04
-2.5748176e-03
-3.6368325e-03
-4.9982813e-03
-7.0970062e-03
-8.7511262e-03
-9.4717920e-03
-9.2942163e-03
-9.4730775e-03
-1.0520913e-02
-1.1215803e-02
-1.1117705e-02
-1.0155927e-02
-8.5803342e-03
-6.7863718e-03
-5.2814690e-03
-4.6992223e-03
-4.2771363e-03
-3.5501828e-03
-2.9259192e-03
-2.7404358e-03
-2.6307158e-03
-1.1279141e-03
1.3636508e-03
3.6192948e-03
5.7194929e-03
7.5247974e-03
8.8562297e-03
9.6731154e-03
9.9651210e-03
9.8080086e-03
9.8080659e-03
1.0401525e-02
1.0612212e-02
9.8969267e-03
8.5643007e-03
7.0303388e-03
5.5366250e-03
4.1146203e-03
2.7859599e-03
1.3353571e-03
6.0013534e-05
-1.0109850e-03
-1.7825599e-03
-2.0349822e-03
-3.1077401e-03
-5.4668406e-03
-7.6830247e-03
-9.2717010e-03
-1.0601822e-02
-1.1718725e-02
-1.2008565e-02
-1.0799875e-02
-8.6703265e-03
-6.1130609e-03
-3.3905004e-03
-1.0869025e-03
9.4869577e-04
2.4627866e-03
3.2974538e-03
3.9078164e-03
4.0557098e-03
4.0884089e-03
4.4289119e-03
4.6526445e-03
4.2393710e-03
3.2288087e-03
2.7458368e-03
3.1166675e-03
3.6149920e-03
3.4717992e-03
3.0367171e-03
3.2752366e-03
3.9361349e-03
4.7461392e-03
4.0334252e-03
1.0367286e-03
-1.5097666e-03
-2.6305051e-03
-3.2923046e-03
-3.6822937e-03
-3.9117398e-03
-4.0872925e-03
-4.3303386e-03
-4.4393773e-03
-4.2531625e-03
-3.7813472e-03
-2.5708311e-03
-6.5524256e-04
1.4049946e-03
2.8053852e-03
3.1484413e-03
3.4326462e-03
4.4468441e-03
5.7821493e-03
6.7977772e-03
7.5767127e-03
9.5736694e-03
1.2749307e-02
1.5581424e-02
1.7859147e-02
1.9463818e-02
2.0176628e-02
1.9838887e-02
1.8813818e-02
1.8075960e-02
1.7766913e-02
1.6970026e-02
1.4848252e-02
1.1733951e-02
7.4670089e-03
2.5022477e-03
-1.9888679e-03
-6.9706855e-03
-1.2262358e-02
-1.6497268e-02
-1.9932846e-02
-2.2554553e-02
-2.4369984e-02
-2.6078535e-02
-2.8038707e-02
-3.0150698e-02
-3.2409947e-02
-3.5716878e-02
-4.0691936e-02
-4.6023965e-02
-4.9928864e-02
-5.2003259e-02
-5.2374212e-02
-5.0900948e-02
-4.7543538e-02
-4.2221583e-02
-3.4359347e-02
-2.3597336e-02
-1.0244252e-02
3.7482956e-03
1.5883967e-02
2.6304438e-02
3.5812536e-02
4.3764099e-02
4.9051358e-02
5.1777759e-02
5.3251842e-02
5.4374234e-02
5.5757676e-02
5.7507521e-02
5.9315500e-02
6.0998687e-02
6.2118398e-02
6.2648547e-02
6.2784915e-02
6.2315863e-02
6.1001051e-02
5.8477748e-02
5.4634244e-02
4.9221422e-02
4.2093354e-02
3.3973742e-02
2.5575633e-02
1.6820887e-02
7.1477341e-03
-2.7245767e-03
-1.1657782e-02
-1.9156232e-02
-2.4677155e-02
-2.8973034e-02
-3.2607107e-02
-3.4973788e-02
-3.6451060e-02
-3.7298195e-02
-3.7091616e-02
-3.6251693e-02
-3.5742299e-02
-3.5726234e-02
-3.4883420e-02
-3.3081057e-02
-3.1322361e-02
-2.9080226e-02
-2.5916939e-02
-2.2210068e-02
-1.8691828e-02
-1.5793312e-02
-1.3777509e-02
-1.2983399e-02
-1.3230879e-02
-1.3969620e-02
-1.4008303e-02
-1.3061260e-02
-1.1915726e-02
-1.0694020e-02
-9.8113953e-03
-9.4636906e-03
-9.3380157e-03
-9.7681097e-03
-9.9675119e-03
-9.4614867e-03
-8.9975145e-03
-8.4557656e-03
-7.5621832e-03
-6.4800481e-03
-5.8168827e-03
-5.7301446e-03
-5.8972165e-03
-6.4756052e-03
-7.4355809e-03
-8.1085099e-03
-7.9034945e-03
-7.5560064e-03
-7.3973628e-03
-6.4946041e-03
-5.5596767e-03
-5.1398745e-03
-4.8176727e-03
-5.1380695e-03
-6.0411862e-03
-6.9008569e-03
-6.9628919e-03
-5.3755348e-03
-2.0268808e-03
2.2307009e-03
6.1692457e-03
9.3109609e-03
1.1530049e-02
1.3017246e-02
1.4160385e-02
1.4090894e-02
1.2364073e-02
1.0039303e-02
8.4042824e-03
8.1665645e-03
8.6914025e-03
9.1738300e-03
9.1969219e-03
8.4662416e-03
7.9838068e-03
8.8239805e-03
1.0699087e-02
1.3014835e-02
1.5014845e-02
1.6291812e-02
1.7119067e-02
1.7737822e-02
1.7989232e-02
1.7690796e-02
1.7409027e-02
1.7350086e-02
1.7326840e-02
1.6970251e-02
1.5494110e-02
1.3369915e-02
1.1034041e-02
8.5177842e-03
6.7654462e-03
6.1695851e-03
6.5551437e-03
7.3883694e-03
8.1901027e-03
8.2495595e-03
6.6736562e-03
4.3854234e-03
2.3265181e-03
3.7491268e-04
-1.7531755e-03
-3.7815411e-03
-5.0821552e-03
-5.8892100e-03
-6.1681739e-03
-6.0331918e-03
-6.0347502e-03
-6.0022935e-03
-5.7200536e-03
-5.0946876e-03
-4.9899664e-03
-6.0427567e-03
-7.3217751e-03
-8.5790457e-03
-9.3598015e-03
-9.8798179e-03
-1.1144581e-02
-1.2087011e-02
-1.1602540e-02
-1.0046205e-02
-8.5845111e-03
-7.3476462e-03
-4.7257974e-03
-5.1936578e-04
3.5021899e-03
5.6303656e-03
5.3130936e-03
3.4918773e-03
5.5539989e-04
-3.6330387e-03
-8.2570420e-03
-1.2711307e-02
-1.7275601e-02
-2.2434726e-02
-2.7281006e-02
-3.0897344e-02
-3.3368058e-02
-3.4182336e-02
-3.3074484e-02
-3.0965977e-02
-2.8932549e-02
-2.6976256e-02
-2.5110024e-02
-2.2943181e-02
-1.9670295e-02
-1.6326909e-02
-1.3504265e-02
-1.0548780e-02
-7.5480191e-03
-3.9300144e-03
9.0188826e-04
6.6909673e-03
1.3131749e-02
1.8905737e-02
2.3377481e-02
2.7177895e-02
3.0207778e-02
3.1585467e-02
3.1220468e-02
3.0464898e-02
2.9164984e-02
2.6907140e-02
2.4641251e-02
2.2420628e-02
2.0082742e-02
1.6574354e-02
1.1488027e-02
6.4073420e-03
2.1332453e-03
-1.1911025e-03
-3.7163420e-03
-5.6800059e-03
-7.3223949e-03
-9.4172935e-03
-1.2195918e-02
-1.5058914e-02
-1.7119517e-02
-1.8245291e-02
-1.8505326e-02
-1.6841200e-02
-1.3989028e-02
-1.1181231e-02
-7.5600644e-03
-3.1819253e-03
1.2072337e-03
4.9829702e-03
7.8679591e-03
1.0686030e-02
1.3559992e-02
1.5934133e-02
1.7641748e-02
1.8755703e-02
1.8776793e-02
1.7564327e-02
1.6323271e-02
1.5038945e-02
1.3130593e-02
1.0957551e-02
9.2908013e-03
9.2752798e-03
1.0669921e-02
1.1944956e-02
1.2136886e-02
1.0873947e-02
8.5774377e-03
6.5007775e-03
5.1008229e-03
3.9318639e-03
3.1548416e-03
2.7302255e-03
1.4544858e-03
-7.9750719e-04
-2.6230103e-03
-3.3072829e-03
-3.3351125e-03
-3.5363138e-03
-3.8107496e-03
-3.4795364e-03
-2.3276589e-03
-3.8844487e-04
2.6071267e-03
6.6944691e-03
1.0733613e-02
1.4293142e-02
1.8178043e-02
2.2037178e-02
2.5157566e-02
2.7667358e-02
2.9603821e-02
3.0601163e-02
2.9686444e-02
2.6725729e-02
2.2676181e-02
1.8324178e-02
1.3841290e-02
8.4643017e-03
2.6495702e-03
-2.8068133e-03
-7.7909792e-03
-1.1969234e-02
-1.5345186e-02
-1.6907099e-02
-1.6985137e-02
-1.7769415e-02
-1.9146692e-02
-2.0006186e-02
-1.9821842e-02
-1.8376485e-02
-1.6324585e-02
-1.4594049e-02
-1.3702194e-02
-1.3118078e-02
-1.2668863e-02
-1.3235937e-02
-1.4367158e-02
-1.5734972e-02
-1.7719124e-02
-1.9051782e-02
-1.8851878e-02
-1.7470242e-02
-1.5260776e-02
-1.2838898e-02
-1.1106054e-02
-9.9512150e-03
-8.2053820e-03
-5.9284495e-03
-3.4360076e-03
-6.7238838e-04
1.7552893e-03
3.4805353e-03
4.1822755e-03
3.6980327e-03
1.9066742e-03
-7.8496743e-04
-2.8271805e-03
-3.5517127e-03
-2.9593034e-03
-1.9131823e-03
-1.5886824e-03
-1.7576161e-03
-2.2208790e-03
-2.9524983e-03
-3.7130595e-03
-4.4836730e-03
-5.7145179e-03
-7.8939492e-03
-1.0209157e-02
-1.1812201e-02
-1.2615730e-02
-1.2684424e-02
-1.2989036e-02
-1.3536156e-02
-1.3788675e-02
-1.4318486e-02
-1.5204788e-02
-1.6071026e-02
-1.6275879e-02
-1.5403836e-02
-1.3632663e-02
-1.1154513e-02
-8.4819411e-03
-5.9948730e-03
-3.8172338e-03
-1.6532004e-03
7.1253018e-04
2.7324981e-03
4.8345436e-03
6.9929854e-03
8.8377935e-03
1.0996062e-02
1.3111077e-02
1.4629568e-02
1.5150626e-02
1.4908862e-02
1.4934455e-02
1.5791102e-02
1.6936649e-02
1.6743821e-02
1.4939590e-02
1.2193643e-02
8.8056097e-03
6.0433027e-03
4.6174159e-03
4.2215372e-03
4.6348074e-03
5.3199265e-03
5.7891100e-03
5.5503089e-03
4.4436296e-03
2.3664547e-03
-6.9723830e-04
-4.3909427e-03
-9.0350179e-03
-1.4000079e-02
-1.7988744e-02
-2.1196185e-02
-2.3663978e-02
-2.5442419e-02
-2.6465046e-02
-2.6075435e-02
-2.4823960e-02
-2.3406703e-02
-2.2224019e-02
-2.1465280e-02
-2.0833325e-02
-2.0176725e-02
-1.8904634e-02
-1.7152830e-02
-1.5698903e-02
-1.4524126e-02
-1.3476694e-02
-1.1982957e-02
-9.6700212e-03
-6.6354796e-03
-3.2155161e-03
-2.3596443e-04
1.8664904e-03
2.8474637e-03
3.5022869e-03
4.5927765e-03
5.2641024e-03
5.8625134e-03
7.3290411e-03
9.4638889e-03
1.2091451e-02
1.4574216e-02
1.5677537e-02
1.5102741e-02
1.3817114e-02
1.2260437e-02
1.0183454e-02
8.6328569e-03
9.1721801e-03
1.1234231e-02
1.2688068e-02
1.2598390e-02
1.2005748e-02
1.1509212e-02
1.1086518e-02
1.1763561e-02
1.4057220e-02
1.7524284e-02
2.1014390e-02
2.2904794e-02
2.2745315e-02
2.1657556e-02
2.0391223e-02
1.8097348e-02
1.4382558e-02
1.0398487e-02
7.0370257e-03
4.3495447e-03
2.3736966e-03
9.6592487e-04
-2.3381155e-04
-1.2989533e-03
-2.7727860e-03
-5.7737069e-03
-9.6991863e-03
-1.2881481e-02
-1.4870462e-02
-1.5516574e-02
-1.5037382e-02
-1.4086462e-02
-1.2852084e-02
-1.1048655e-02
-8.4030341e-03
-5.9507785e-03
-4.6101786e-03
-3.9326756e-03
-3.5599668e-03
-3.7405493e-03
-4.6901581e-03
-6.1911540e-03
-7.8945043e-03
-9.3934967e-03
-1.0234529e-02
-1.0311602e-02
-9.6674982e-03
-8.6781580e-03
-7.4723808e-03
-4.9751326e-03
-3.6803396e-04
5.5164334e-03
1.0373829e-02
1.3478447e-02
1.6127602e-02
1.7964282e-02
1.7951815e-02
1.6535258e-02
1.4728609e-02
1.3741863e-02
1.3636421e-02
1.3318396e-02
1.2620547e-02
1.1579093e-02
1.0202546e-02
8.9409635e-03
7.8873980e-03
6.6202875e-03
5.3625706e-03
4.9387966e-03
5.1748206e-03
5.5607459e-03
5.7492609e-03
5.8774668e-03
6.5846755e-03
7.4848073e-03
8.0643626e-03
7.2361703e-03
4.4218520e-03
1.2858897e-03
-1.7123690e-03
-5.4062274e-03
-9.2613570e-03
-1.1862032e-02
-1.2742115e-02
-1.1973756e-02
-9.6758490e-03
-7.2657728e-03
-6.1795639e-03
-6.1691836e-03
-6.7839669e-03
-7.6343838e-03
-8.3434427e-03
-8.8282016e-03
-9.0137309e-03
-9.3531504e-03
-9.1818066e-03
-7.5697750e-03
-5.1981894e-03
-2.3047122e-03
9.8069838e-04
3.9127864e-03
6.0611113e-03
7.0823751e-03
7.8125796e-03
9.6778501e-03
1.2719312e-02
1.5940352e-02
1.8400864e-02
1.9795173e-02
2.0350811e-02
2.0862826e-02
2.1347554e-02
2.1394459e-02
2.1410964e-02
2.0826223e-02
1.9370411e-02
1.7854452e-02
1.6284291e-02
1.4694714e-02
1.3737270e-02
1.3337659e-02
1.2134968e-02
9.6617554e-03
6.3073968e-03
1.3817155e-03
-5.2810577e-03
-1.1865648e-02
-1.6683393e-02
-2.0397069e-02
-2.3800036e-02
-2.5862787e-02
-2.6138445e-02
-2.5483887e-02
-2.4765562e-02
-2.4135223e-02
-2.3469933e-02
-2.3147486e-02
-2.2683824e-02
-2.1888982e-02
-2.1576834e-02
-2.1184265e-02
-2.0587995e-02
-2.0325365e-02
-1.9114203e-02
-1.6098695e-02
-1.2431168e-02
-9.6878589e-03
-8.1738374e-03
