2.4305739e-05
2.7139311e-05
3.0401241e-05
3.4136931e-05
3.8473419e-05
4.3615616e-05
4.9789031e-05
5.7136216e-05
6.5586512e-05
7.4727412e-05
8.3708814e-05
9.1207836e-05
9.5472804e-05
9.4453135e-05
8.6009177e-05
6.8183351e-05
3.9501721e-05
-7.3429783e-07
-5.2209925e-05
-1.1345298e-04
-1.8181414e-04
-2.5358670e-04
-3.2426157e-04
-3.8889247e-04
-4.4252736e-04
-4.8065027e-04
-4.9957572e-04
-4.9674895e-04
-4.7092424e-04
-4.2221667e-04
-3.5204173e-04
-2.6297027e-04
-1.5852914e-04
-4.2973257e-05
7.8952967e-05
2.0225319e-04
3.2190610e-04
4.3307329e-04
5.3128039e-04
6.1256810e-04
6.7361579e-04
7.1184556e-04
7.2547479e-04
7.1347376e-04
6.7548152e-04
6.1177090e-04
5.2329129e-04
4.1177511e-04
2.7987584e-04
1.3129597e-04
-2.9138126e-05
-1.9549021e-04
-3.6084289e-04
-5.1755421e-04
-6.5763992e-04
-7.7326111e-04
-8.5728112e-04
-9.0384432e-04
-9.0892417e-04
-8.7078449e-04
-7.9029858e-04
-6.7107569e-04
-5.1935888e-04
-3.4368112e-04
-1.5429469e-04
3.7584755e-05
2.2065523e-04
3.8444585e-04
5.2018364e-04
6.2151968e-04
6.8503517e-04
7.1046730e-04
7.0062106e-04
6.6096623e-04
5.9895930e-04
5.2317174e-04
4.4233699e-04
3.6444138e-04
2.9597403e-04
2.4142315e-04
2.0306866e-04
1.8104925e-04
1.7361670e-04
1.7751776e-04
1.8846851e-04
2.0165243e-04
2.1217320e-04
2.1542473e-04
2.0736819e-04
1.8472673e-04
1.4512072e-04
8.7168688e-05
1.0574497e-05
-8.3790377e-05
-1.9381397e-04
-3.1609916e-04
-4.4597652e-04
-5.7760813e-04
-7.0421125e-04
-8.1841709e-04
-9.1275923e-04
-9.8026091e-04
-1.0150656e-03
-1.0130384e-03
-9.7225997e-04
-8.9334937e-04
-7.7956678e-04
-6.3667641e-04
-4.7256970e-04
-2.9667310e-04
-1.1918781e-04
4.9769573e-05
2.0104022e-04
3.2721733e-04
4.2327258e-04
4.8694175e-04
5.1882512e-04
5.2219665e-04
5.0255532e-04
4.6698476e-04
4.2342766e-04
3.7997464e-04
3.4415398e-04
3.2220390e-04
3.1844155e-04
3.3484474e-04
3.7088311e-04
4.2359892e-04
4.8791482e-04
5.5712782e-04
6.2353639e-04
6.7913964e-04
7.1634389e-04
7.2861310e-04
7.1100947e-04
6.6058630e-04
5.7661420e-04
4.6064006e-04
3.1639415e-04
1.4956871e-04
-3.2509674e-05
-2.2129730e-04
-4.0752568e-04
-5.8174928e-04
-7.3492159e-04
-8.5896647e-04
-9.4730912e-04
-9.9532831e-04
-1.0006911e-03
-9.6353562e-04
-8.8647832e-04
-7.7443721e-04
-6.3427849e-04
-4.7430893e-04
-3.0365268e-04
-1.3156785e-04
3.3231114e-05
1.8317887e-04
3.1233705e-04
4.1670550e-04
4.9435475e-04
5.4540572e-04
5.7182023e-04
5.7693555e-04
5.6484611e-04
5.3979904e-04
5.0569236e-04
4.6572293e-04
4.2220181e-04
3.7652803e-04
3.2929252e-04
2.8047223e-04
2.2967137e-04
1.7637222e-04
1.2016749e-04
6.0953382e-05
-9.3435669e-07
-6.4655476e-05
-1.2887725e-04
-1.9185814e-04
-2.5158969e-04
-3.0597883e-04
-3.5304773e-04
-3.9112287e-04
-4.1898283e-04
-4.3594166e-04
-4.4185832e-04
-4.3707713e-04
-4.2231357e-04
-3.9850479e-04
-3.6664835e-04
-3.2765574e-04
-2.8224975e-04
-2.3093227e-04
-1.7403971e-04
-1.1188630e-04
-4.4974547e-05
2.5768048e-05
9.8779236e-05
1.7173196e-04
2.4153072e-04
3.0447734e-04
3.5659374e-04
3.9401789e-04
4.1340954e-04
4.1234204e-04
3.8964672e-04
3.4566555e-04
2.8236925e-04
2.0330699e-04
1.1337298e-04
1.8402223e-05
-7.5364361e-05
-1.6188469e-04
-2.3591824e-04
-2.9355478e-04
-3.3260600e-04
-3.5281248e-04
-3.5583600e-04
-3.4502705e-04
-3.2498084e-04
-3.0092465e-04
-2.7800774e-04
-2.6058559e-04
-2.5159558e-04
-2.5211016e-04
-2.6112801e-04
-2.7563049e-04
-2.9089392e-04
-3.0101819e-04
-2.9960972e-04
-2.8054361e-04
-2.3872322e-04
-1.7075974e-04
-7.5506992e-05
4.5595792e-05
1.8840585e-04
3.4620378e-04
5.1007251e-04
6.6951683e-04
8.1328472e-04
9.3029279e-04
1.0104960e-03
1.0455952e-03
1.0295933e-03
9.5922872e-04
8.3426829e-04
6.5763500e-04
4.3535825e-04
1.7635189e-04
-1.0796313e-04
-4.0416765e-04
-6.9745752e-04
-9.7233426e-04
-1.2133495e-03
-1.4058823e-03
-1.5369283e-03
-1.5958743e-03
-1.5752222e-03
-1.4712147e-03
-1.2843113e-03
-1.0194588e-03
-6.8610978e-04
-2.9795249e-04
1.2766362e-04
5.7059401e-04
1.0090162e-03
1.4207313e-03
1.7845577e-03
2.0817043e-03
2.2969981e-03
2.4198512e-03
2.4448788e-03
2.3721151e-03
2.2068174e-03
1.9588888e-03
1.6419879e-03
1.2724208e-03
8.6791916e-04
4.4639783e-04
2.4783353e-05
-3.8199419e-04
-7.6168442e-04
-1.1049570e-03
-1.4053110e-03
-1.6588132e-03
-1.8637357e-03
-2.0201460e-03
-2.1294937e-03
-2.1942220e-03
-2.2174210e-03
-2.2025230e-03
-2.1530355e-03
-2.0723104e-03
-1.9633476e-03
-1.8286405e-03
-1.6700751e-03
-1.4889109e-03
-1.2858711e-03
-1.0613604e-03
-8.1580361e-04
-5.5005611e-04
-2.6581756e-04
3.4031122e-05
3.4522870e-04
6.6210637e-04
9.7773303e-04
1.2842064e-03
1.5730464e-03
1.8356419e-03
2.0637008e-03
2.2496632e-03
2.3870462e-03
2.4707101e-03
2.4970536e-03
2.4641515e-03
2.3718516e-03
2.2218407e-03
2.0176828e-03
1.7648260e-03
1.4705681e-03
1.1438678e-03
7.9489478e-04
4.3446141e-04
7.3468631e-05
-2.7764747e-04
-6.0945740e-04
-9.1401099e-04
-1.1851722e-03
-1.4187570e-03
-1.6124451e-03
-1.7654767e-03
-1.8781871e-03
-1.9514662e-03
-1.9862508e-03
-1.9831546e-03
-1.9423109e-03
-1.8634600e-03
-1.7462624e-03
-1.5907794e-03
-1.3980302e-03
-1.1705185e-03
-9.1262135e-04
-6.3075663e-04
-3.3328710e-04
-3.0163922e-05
2.6765042e-04
5.4891555e-04
8.0292251e-04
1.0202889e-03
1.1936507e-03
1.3181760e-03
1.3918522e-03
1.4155271e-03
1.3927102e-03
1.3291593e-03
1.2323011e-03
1.1105501e-03
9.7260336e-04
8.2678418e-04
6.8051693e-04
5.3994197e-04
4.0957603e-04
2.9204408e-04
1.8800321e-04
9.6283291e-05
1.4208993e-05
-6.1934663e-05
-1.3633459e-04
-2.1302849e-04
-2.9528961e-04
-3.8508678e-04
-4.8268906e-04
-5.8647067e-04
-6.9294481e-04
-7.9702334e-04
-8.9246855e-04
-9.7247932e-04
-1.0303411e-03
-1.0600680e-03
-1.0569765e-03
-1.0181432e-03
-9.4271518e-04
-8.3204834e-04
-6.8966427e-04
-5.2103059e-04
-3.3318831e-04
-1.3426176e-04
6.7106052e-05
2.6234659e-04
4.4354076e-04
6.0393034e-04
7.3832425e-04
8.4336492e-04
9.1763075e-04
9.6156526e-04
9.7724143e-04
9.6798927e-04
9.3793283e-04
8.9149383e-04
8.3292686e-04
7.6591153e-04
6.9320902e-04
6.1646361e-04
5.3620987e-04
4.5205248e-04
3.6296531e-04
2.6766408e-04
1.6501048e-04
5.4410934e-05
-6.3827242e-05
-1.8822457e-04
-3.1598547e-04
-4.4301328e-04
-5.6409616e-04
-6.7325436e-04
-7.6421978e-04
-8.3100270e-04
-8.6848858e-04
-8.7300396e-04
-8.4279315e-04
-7.7835328e-04
-6.8258315e-04
-5.6071502e-04
-4.2002155e-04
-2.6931918e-04
-1.1831705e-04
2.3122107e-05
1.4573853e-04
2.4158534e-04
3.0464002e-04
3.3127748e-04
3.2057408e-04
2.7442180e-04
1.9744069e-04
9.6686604e-05
-1.8839374e-05
-1.3885717e-04
-2.5260251e-04
-3.4967692e-04
-4.2085497e-04
-4.5874490e-04
-4.5828839e-04
-4.1713739e-04
-3.3584276e-04
-2.1777382e-04
-6.8784894e-05
1.0330718e-04
2.8936068e-04
4.7959076e-04
6.6423362e-04
8.3414301e-04
9.8128182e-04
1.0990869e-03
1.1827036e-03
1.2291023e-03
1.2371007e-03
1.2073096e-03
1.1420148e-03
1.0449949e-03
9.2127559e-04
7.7682143e-04
6.1817454e-04
4.5205768e-04
2.8496453e-04
1.2276450e-04
-2.9647948e-05
-1.6862781e-04
-2.9194647e-04
-3.9882606e-04
-4.8983034e-04
-5.6662093e-04
-6.3160865e-04
-6.8754686e-04
-7.3712268e-04
-7.8260147e-04
-8.2556838e-04
-8.6678929e-04
-9.0619085e-04
-9.4294254e-04
-9.7562224e-04
-1.0024203e-03
-1.0212780e-03
-1.0299226e-03
-1.0258957e-03
-1.0066533e-03
-9.6973529e-04
-9.1298831e-04
-8.3481284e-04
-7.3440743e-04
-6.1197829e-04
-4.6888543e-04
-3.0770334e-04
-1.3218554e-04
5.2862725e-05
2.4178744e-04
4.2834199e-04
6.0597589e-04
7.6814199e-04
9.0861562e-04
1.0218216e-03
1.1031599e-03
1.1493095e-03
1.1584773e-03
1.1305586e-03
1.0671883e-03
9.7167400e-04
8.4881993e-04
7.0465571e-04
5.4609056e-04
3.8051578e-04
2.1537796e-04
5.7743331e-05
-8.6125427e-05
-2.1115510e-04
-3.1378061e-04
-3.9216187e-04
-4.4626132e-04
-4.7774857e-04
-4.8971451e-04
-4.8622030e-04
-4.7176880e-04
-4.5081634e-04
-4.2739960e-04
-4.0486963e-04
-3.8569508e-04
-3.7133226e-04
-3.6217848e-04
-3.5761366e-04
-3.5612079e-04
-3.5546522e-04
-3.5291351e-04
-3.4548321e-04
-3.3022550e-04
-3.0454004e-04
-2.6650281e-04
-2.1516467e-04
-1.5076569e-04
-7.4815922e-05
9.9831510e-06
9.9972164e-05
1.9089004e-04
2.7830176e-04
3.5803853e-04
4.2659426e-04
4.8143425e-04
5.2118973e-04
5.4572785e-04
5.5609921e-04
5.5437511e-04
5.4339763e-04
5.2647315e-04
5.0704025e-04
4.8833705e-04
4.7308709e-04
4.6322179e-04
4.5965860e-04
4.6215591e-04
4.6926639e-04
4.7840930e-04
4.8606462e-04
4.8806793e-04
4.7993387e-04
4.5713680e-04
4.1539401e-04
3.5101701e-04
2.6131642e-04
1.4501328e-04
2.6045634e-06
-1.6337150e-04
-3.4822051e-04
-5.4516637e-04
-7.4563543e-04
-9.3974729e-04
-1.1169845e-03
-1.2669887e-03
-1.3804093e-03
-1.4497188e-03
-1.4699016e-03
-1.4389342e-03
-1.3579914e-03
-1.2313483e-03
-1.0659803e-03
-8.7091031e-04
-6.5638473e-04
-4.3298268e-04
-2.1076411e-04
1.4513271e-06
1.9660631e-04
3.6969129e-04
5.1779180e-04
6.3993004e-04
7.3675498e-04
8.1014002e-04
8.6274143e-04
8.9756221e-04
9.1756096e-04
9.2533988e-04
9.2293868e-04
9.1175241e-04
8.9259690e-04
8.6589646e-04
8.3182422e-04
7.9028035e-04
7.4082780e-04
6.8271201e-04
6.1497793e-04
5.3666658e-04
4.4706329e-04
3.4596181e-04
2.3390391e-04
1.1235341e-04
-1.6230469e-05
-1.4844231e-04
-2.8010643e-04
-4.0656412e-04
-5.2303893e-04
-6.2503308e-04
-7.0870235e-04
-7.7116250e-04
-8.1069369e-04
-8.2682624e-04
-8.2030538e-04
-7.9294603e-04
-7.4740036e-04
-6.8686967e-04
-6.1479575e-04
-5.3456494e-04
-4.4925332e-04
-3.6143432e-04
-2.7306102e-04
-1.8542624e-04
-9.9196210e-05
-1.4509808e-05
6.8867080e-05
1.5134553e-04
2.3329280e-04
3.1480774e-04
3.9551727e-04
4.7442047e-04
5.4981866e-04
6.1937808e-04
6.8027299e-04
7.2930589e-04
7.6303968e-04
7.7801321e-04
7.7103261e-04
7.3950288e-04
6.8175812e-04
5.9735030e-04
4.8726380e-04
3.5403269e-04
2.0174523e-04
3.5926583e-05
-1.3670349e-04
-3.0859273e-04
-4.7182368e-04
-6.1865782e-04
-7.4211041e-04
-8.3649530e-04
-8.9787293e-04
-9.2434215e-04
-9.1613525e-04
-8.7550304e-04
-8.0640875e-04
-7.1407701e-04
-6.0446238e-04
-4.8370751e-04
-3.5765522e-04
-2.3146454e-04
-1.0935924e-04
5.4870286e-06
1.1094618e-04
2.0584214e-04
2.8980038e-04
3.6306680e-04
4.2631464e-04
4.8045375e-04
5.2645530e-04
5.6520422e-04
5.9740178e-04
6.2352122e-04
6.4374377e-04
6.5783222e-04
6.6501407e-04
6.6394143e-04
6.5274456e-04
6.2918394e-04
5.9089125e-04
5.3567642e-04
4.6186642e-04
3.6863496e-04
2.5628206e-04
1.2642704e-04
-1.7912605e-05
-1.7237356e-04
-3.3143543e-04
-4.8873619e-04
-6.3748751e-04
-7.7094717e-04
-8.8289705e-04
-9.6807513e-04
-1.0225196e-03
-1.0437976e-03
-1.0311110e-03
-9.8528705e-04
-9.0867660e-04
-8.0498467e-04
-6.7905284e-04
-5.3660583e-04
-3.8396771e-04
-2.2775238e-04
-7.4534595e-05
6.9488941e-05
1.9883595e-04
3.0905577e-04
3.9700449e-04
4.6104794e-04
5.0115992e-04
5.1889082e-04
5.1720962e-04
5.0024909e-04
4.7295856e-04
4.4066315e-04
4.0858289e-04
3.8137908e-04
3.6276738e-04
3.5522387e-04
3.5980368e-04
3.7608466e-04
4.0223843e-04
4.3521700e-04
4.7103044e-04
5.0508132e-04
5.3252040e-04
5.4859333e-04
5.4895879e-04
5.2997022e-04
4.8892272e-04
4.2427060e-04
3.3581716e-04
2.2486762e-04
9.4324654e-05
-5.1303180e-05
-2.0601186e-04
-3.6255572e-04
-5.1285092e-04
-6.4851038e-04
-7.6146927e-04
-8.4464430e-04
-8.9256019e-04
-9.0187147e-04
-8.7171329e-04
-8.0383466e-04
-7.0249867e-04
-5.7416549e-04
-4.2699654e-04
-2.7023136e-04
-1.1349483e-04
3.3903300e-05
1.6360941e-04
2.6878166e-04
3.4462185e-04
3.8888041e-04
4.0216757e-04
3.8792874e-04
3.5207281e-04
3.0230666e-04
2.4725989e-04
1.9550633e-04
1.5459985e-04
1.3023760e-04
1.2564242e-04
1.4122407e-04
1.7454328e-04
2.2057066e-04
2.7220630e-04
3.2100563e-04
3.5804009e-04
3.7481161e-04
3.6413830e-04
3.2093631e-04
2.4283149e-04
1.3054461e-04
-1.1991627e-05
-1.7780214e-04
-3.5731708e-04
-5.3906512e-04
-7.1056120e-04
-8.5931811e-04
-9.7389288e-04
-1.0448666e-03
-1.0656590e-03
-1.0330951e-03
-9.4766945e-04
-8.1348529e-04
-6.3787719e-04
-4.3076275e-04
-2.0379839e-04
3.0563725e-05
2.6001235e-04
4.7321655e-04
6.6051119e-04
8.1439029e-04
9.2977698e-04
1.0040694e-03
1.0369973e-03
1.0303408e-03
9.8756762e-04
9.1343707e-04
8.1361057e-04
6.9429148e-04
5.6190188e-04
4.2278856e-04
2.8294471e-04
1.4773932e-04
2.1659663e-05
-9.1915225e-05
-1.9088632e-04
-2.7452907e-04
-3.4349072e-04
-3.9967290e-04
-4.4598824e-04
-4.8599319e-04
-5.2341831e-04
-5.6163514e-04
-6.0311535e-04
-6.4894950e-04
-6.9849757e-04
-7.4923754e-04
-7.9685729e-04
-8.3560320e-04
-8.5886046e-04
-8.5990630e-04
-8.3275020e-04
-7.7295695e-04
-6.7834086e-04
-5.4942877e-04
-3.8961735e-04
-2.0499020e-04
-3.8068982e-06
2.0426538e-04
4.0901867e-04
6.0051459e-04
7.6980752e-04
9.0958126e-04
1.0146500e-03
1.0822716e-03
1.1122406e-03
1.1067532e-03
1.0700600e-03
1.0079467e-03
9.2709982e-04
8.3442599e-04
7.3639439e-04
6.3846631e-04
5.4466820e-04
4.5735106e-04
3.7716049e-04
3.0321850e-04
2.3349234e-04
1.6530001e-04
9.5882412e-05
2.2962419e-05
-5.4787679e-05
-1.3743623e-04
-2.2368360e-04
-3.1096772e-04
-3.9576388e-04
-4.7403010e-04
-5.4173003e-04
-5.9535615e-04
-6.3237799e-04
-6.5155175e-04
-6.5305046e-04
-6.3840240e-04
-6.1025514e-04
-5.7200687e-04
-5.2736452e-04
-4.7989849e-04
-4.3267711e-04
-3.8800996e-04
-3.4723296e-04
-3.1053253e-04
-2.7691286e-04
-2.4436272e-04
-2.1019560e-04
-1.7150505e-04
-1.2566357e-04
-7.0791632e-05
-6.1307953e-06
6.7730302e-05
1.4880931e-04
2.3387019e-04
3.1872750e-04
3.9866616e-04
4.6891190e-04
5.2508641e-04
5.6359106e-04
5.8188031e-04
5.7860842e-04
5.5365495e-04
5.0805017e-04
4.4382565e-04
3.6381354e-04
2.7141553e-04
1.7036413e-04
6.4500090e-05
-4.2412719e-05
-1.4682277e-04
-2.4547539e-04
-3.3545338e-04
-4.1418568e-04
-4.7943834e-04
-5.2930319e-04
-5.6219733e-04
-5.7687947e-04
-5.7248092e-04
-5.4854215e-04
-5.0504233e-04
-4.4241026e-04
-3.6153212e-04
-2.6381153e-04
-1.5128354e-04
-2.6704474e-05
1.0642827e-04
2.4392611e-04
3.8102343e-04
5.1254321e-04
6.3309881e-04
7.3731900e-04
8.2008840e-04
8.7679853e-04
9.0360380e-04
8.9767198e-04
8.5741383e-04
7.8267351e-04
6.7485963e-04
5.3699803e-04
3.7369038e-04
1.9096908e-04
-3.9515500e-06
-2.0301768e-04
-3.9775295e-04
-5.7972663e-04
-7.4104694e-04
-8.7484962e-04
-9.7574606e-04
-1.0401890e-03
-1.0667118e-03
-1.0560034e-03
-1.0107964e-03
-9.3556754e-04
-8.3607633e-04
-7.1878747e-04
-5.9024383e-04
-4.5646548e-04
-3.2245129e-04
-1.9184527e-04
-6.6805456e-05
5.1924649e-05
1.6476232e-04
2.7285028e-04
3.7748175e-04
4.7951507e-04
5.7889772e-04
6.7436372e-04
7.6333852e-04
8.4205933e-04
9.0589246e-04
9.4980634e-04
9.6893928e-04
9.5918781e-04
9.1773796e-04
8.4347046e-04
7.3719146e-04
6.0166777e-04
4.4147486e-04
2.6268943e-04
7.2471228e-05
-1.2141848e-04
-3.1111664e-04
-4.8913501e-04
-6.4877627e-04
-7.8445985e-04
-8.9193885e-04
-9.6840392e-04
-1.0124842e-03
-1.0241661e-03
-1.0046564e-03
-9.5621121e-04
-8.8194836e-04
-7.8564914e-04
-6.7155376e-04
-5.4415069e-04
-4.0796229e-04
-2.6733379e-04
-1.2623766e-04
1.1889466e-05
1.4425708e-04
2.6876544e-04
3.8397148e-04
4.8898314e-04
5.8333115e-04
6.6683446e-04
7.3943515e-04
8.0100937e-04
8.5118548e-04
8.8920032e-04
9.1382108e-04
9.2335335e-04
9.1574520e-04
8.8878596e-04
8.4038667e-04
7.6891793e-04
6.7356925e-04
5.5468317e-04
4.1401216e-04
2.5485076e-04
8.2010309e-05
-9.8374559e-05
-2.7919631e-04
-4.5285143e-04
-6.1180013e-04
-7.4915531e-04
-8.5924120e-04
-9.3806010e-04
-9.8361276e-04
-9.9603392e-04
-9.7752720e-04
-9.3210799e-04
-8.6518419e-04
-7.8301921e-04
-6.9212840e-04
-5.9866283e-04
-5.0783768e-04
-4.2346573e-04
-3.4765200e-04
-2.8069139e-04
-2.2118724e-04
-1.6637534e-04
-1.1256935e-04
-5.5638812e-05
8.4731799e-06
8.3181236e-05
1.7070070e-04
2.7158920e-04
3.8446241e-04
5.0593356e-04
6.3079351e-04
7.5241558e-04
8.6333928e-04
9.5596173e-04
1.0232529e-03
1.0594131e-03
1.0604063e-03
1.0243224e-03
9.5153957e-04
8.4468459e-04
7.0840487e-04
5.4898952e-04
3.7388679e-04
1.9117075e-04
9.0073855e-06
-1.6483810e-04
-3.2342208e-04
-4.6095507e-04
-5.7304245e-04
-6.5683641e-04
-7.1110174e-04
-7.3619640e-04
-7.3396868e-04
-7.0757630e-04
-6.6123515e-04
-5.9990584e-04
-5.2893006e-04
-4.5363815e-04
-3.7896287e-04
-3.0910310e-04
-2.4728029e-04
-1.9563025e-04
-1.5520832e-04
-1.2596656e-04
-1.0664851e-04
-9.4744715e-05
-8.6628476e-05
-7.7879698e-05
-6.3763710e-05
-3.9808702e-05
-2.4059467e-06
5.0651222e-05
1.1976590e-04
2.0332825e-04
2.9772495e-04
3.9756607e-04
4.9610494e-04
5.8580756e-04
6.5901497e-04
7.0863476e-04
7.2879741e-04
7.1541765e-04
6.6660876e-04
5.8291051e-04
4.6730991e-04
3.2505601e-04
1.6329130e-04
-9.4625596e-06
-1.8391832e-04
-3.5068591e-04
-5.0093215e-04
-6.2698569e-04
-7.2284169e-04
-7.8453017e-04
-8.1032452e-04
-8.0077864e-04
-7.5859327e-04
-6.8832390e-04
-5.9595580e-04
-4.8838579e-04
-3.7286074e-04
-2.5643634e-04
-1.4549375e-04
-4.5280039e-05
4.0516128e-05
1.1003339e-04
1.6326528e-04
2.0184761e-04
2.2864599e-04
2.4721005e-04
2.6117922e-04
2.7372870e-04
2.8713332e-04
3.0250375e-04
3.1972023e-04
3.3755849e-04
3.5397422e-04
3.6648987e-04
3.7261432e-04
3.7022630e-04
3.5786629e-04
3.3490410e-04
3.0157252e-04
2.5887732e-04
2.0840916e-04
1.5209468e-04
9.1931624e-05
2.9754765e-05
-3.2927800e-05
-9.5002466e-05
-1.5571422e-04
-2.1453823e-04
-2.7098852e-04
-3.2440792e-04
-3.7378848e-04
-4.1766478e-04
-4.5410695e-04
-4.8082183e-04
-4.9535115e-04
-4.9533713e-04
-4.7880845e-04
-4.4443672e-04
-3.9174163e-04
-3.2129851e-04
-2.3496604e-04
-1.3599537e-04
-2.8894488e-05
8.0952365e-05
1.8785108e-04
2.8646136e-04
3.7245266e-04
4.4304641e-04
4.9735440e-04
5.3645147e-04
5.6315934e-04
5.8156121e-04
5.9630992e-04
6.1182809e-04
6.3151961e-04
6.5711068e-04
6.8821622e-04
7.2219190e-04
7.5429225e-04
7.7811727e-04
7.8629423e-04
7.7131264e-04
7.2641142e-04
6.4641280e-04
5.2840879e-04
3.7223102e-04
1.8066460e-04
-4.0604199e-05
-2.8329224e-04
-5.3704200e-04
-7.9011354e-04
-1.0301877e-03
-1.2452169e-03
-1.4242563e-03
-1.5582088e-03
-1.6404149e-03
-1.6670258e-03
-1.6371173e-03
-1.5525628e-03
-1.4178021e-03
-1.2396010e-03
-1.0267026e-03
-7.8927821e-04
-5.3822017e-04
-2.8436516e-04
-3.7744810e-05
1.9304303e-04
4.0127164e-04
5.8229139e-04
7.3349956e-04
8.5410393e-04
9.4473790e-04
1.0070027e-03
1.0430134e-03
1.0550110e-03
1.0450823e-03
1.0150022e-03
9.6619695e-04
8.9981004e-04
8.1684736e-04
7.1837184e-04
6.0571284e-04
4.8065240e-04
3.4555536e-04
2.0342555e-04
5.7887499e-05
-8.6894817e-05
-2.2634862e-04
-3.5566473e-04
-4.7001319e-04
-5.6480978e-04
-6.3603637e-04
-6.8059998e-04
-6.9668910e-04
-6.8406615e-04
-6.4423214e-04
-5.8041615e-04
-4.9737752e-04
-4.0104985e-04
-2.9806443e-04
-1.9518053e-04
-9.8661064e-05
-1.3661951e-05
5.6281469e-05
1.0959432e-04
1.4677145e-04
1.7022836e-04
1.8390379e-04
1.9266506e-04
2.0160120e-04
2.1530480e-04
2.3723857e-04
2.6926174e-04
3.1136582e-04
3.6163964e-04
4.1645418e-04
4.7082953e-04
5.1892693e-04
5.5460276e-04
5.7196566e-04
5.6589029e-04
5.3245437e-04
4.6927641e-04
3.7573949e-04
2.5309369e-04
1.0443730e-04
-6.5415092e-05
-2.5016329e-04
-4.4233059e-04
-6.3362817e-04
-8.1535259e-04
-9.7879878e-04
-1.1156769e-03
-1.2185248e-03
-1.2811061e-03
-1.2987775e-03
-1.2687987e-03
-1.1905446e-03
-1.0655850e-03
-8.9765911e-04
-6.9256656e-04
-4.5790993e-04
-2.0265595e-04
6.3425572e-05
3.3036292e-04
5.8855069e-04
8.2923134e-04
1.0448595e-03
1.2293403e-03
1.3781512e-03
1.4883639e-03
1.5585854e-03
1.5888294e-03
1.5803269e-03
1.5352890e-03
1.4566362e-03
1.3477194e-03
1.2120550e-03
1.0531000e-03
8.7409280e-04
6.7797799e-04
4.6742005e-04
2.4489722e-04
1.2857400e-05
-2.2608375e-04
-4.6892185e-04
-7.1204264e-04
-9.5103046e-04
-1.1805457e-03
-1.3943130e-03
-1.5852544e-03
-1.7457837e-03
-1.8682556e-03
-1.9455385e-03
-1.9716624e-03
-1.9424764e-03
-1.8562364e-03
-1.7140419e-03
-1.5200166e-03
-1.2811846e-03
-1.0071174e-03
-7.0937043e-04
-4.0068660e-04
-9.4028185e-05
1.9843825e-04
4.6627523e-04
7.0150776e-04
8.9906894e-04
1.0569128e-03
1.1757980e-03
1.2587891e-03
1.3105611e-03
1.3366058e-03
1.3424491e-03
1.3329643e-03
1.3118534e-03
1.2813379e-03
1.2420809e-03
1.1933324e-03
1.1332696e-03
1.0594805e-03
9.6952195e-04
8.6147987e-04
7.3445424e-04
5.8890992e-04
4.2685081e-04
2.5180163e-04
6.8608629e-05
-1.1690391e-04
-2.9836547e-04
-4.6931817e-04
-6.2365030e-04
-7.5596979e-04
-8.6190122e-04
-9.3830402e-04
-9.8341762e-04
-9.9694094e-04
-9.8007036e-04
-9.3549029e-04
-8.6720659e-04
-7.8016299e-04
-6.7974968e-04
-5.7132875e-04
-4.5983224e-04
-3.4946227e-04
-2.4351109e-04
-1.4430837e-04
-5.3290667e-05
2.8825508e-05
1.0179936e-04
1.6559248e-04
2.2011274e-04
2.6501832e-04
2.9961460e-04
3.2286031e-04
3.3348062e-04
3.3016810e-04
3.1183763e-04
2.7789065e-04
2.2844034e-04
1.6445578e-04
8.7800326e-05
1.1616625e-06
-9.2106619e-05
-1.8819659e-04
-2.8307114e-04
-3.7267199e-04
-4.5309655e-04
-5.2074493e-04
-5.7244686e-04
-6.0557916e-04
-6.1817994e-04
-6.0905700e-04
-5.7787652e-04
-5.2521010e-04
-4.5251668e-04
-3.6204142e-04
-2.5661546e-04
-1.3936339e-04
-1.3418161e-05
1.1824949e-04
2.5291138e-04
3.8811928e-04
5.2169805e-04
6.5169226e-04
7.7627338e-04
8.9362334e-04
1.0018146e-03
1.0987065e-03
1.1818750e-03
1.2485862e-03
1.2958225e-03
1.3203620e-03
1.3189115e-03
1.2882900e-03
1.2256552e-03
1.1287638e-03
9.9625098e-04
8.2791401e-04
6.2497409e-04
3.9028868e-04
1.2848003e-04
-1.5404981e-04
-4.4923642e-04
-7.4760415e-04
-1.0386362e-03
-1.3112402e-03
-1.5542853e-03
-1.7571873e-03
-1.9105138e-03
-2.0065755e-03
-2.0399666e-03
-2.0080105e-03
-1.9110692e-03
-1.7526699e-03
-1.5394143e-03
-1.2806438e-03
-9.8787316e-04
-6.7401594e-04
-3.5248176e-04
-3.6322663e-05
2.6249007e-04
5.3366985e-04
7.6908366e-04
9.6306242e-04
1.1125410e-03
1.2170262e-03
1.2784002e-03
1.3005772e-03
1.2890442e-03
1.2503272e-03
1.1914297e-03
1.1192828e-03
1.0402409e-03
9.5964561e-04
8.8148456e-04
8.0816143e-04
7.4038994e-04
6.7721469e-04
6.1615709e-04
5.5348151e-04
4.8457345e-04
4.0441444e-04
3.0812970e-04
1.9157434e-04
5.1916037e-05
-1.1183444e-04
-2.9839764e-04
-5.0395818e-04
-7.2210563e-04
-9.4402198e-04
-1.1589324e-03
-1.3548070e-03
-1.5192684e-03
-1.6406285e-03
-1.7089478e-03
-1.7169931e-03
-1.6609799e-03
-1.5410134e-03
-1.3612055e-03
-1.1294946e-03
-8.5714409e-04
-5.5791351e-04
-2.4697865e-04
6.0280596e-05
3.4949495e-04
6.0839336e-04
8.2765036e-04
1.0014099e-03
1.1274435e-03
1.2069454e-03
1.2440143e-03
1.2449030e-03
1.2171423e-03
1.1686494e-03
1.1069216e-03
1.0383889e-03
9.6797499e-04
8.9887870e-04
8.3256427e-04
7.6892887e-04
7.0660203e-04
6.4332490e-04
5.7635686e-04
5.0286286e-04
4.2024579e-04
3.2640184e-04
2.1989131e-04
1.0003137e-04
-3.3071402e-05
-1.7852253e-04
-3.3464779e-04
-4.9898876e-04
-6.6828435e-04
-8.3845633e-04
-1.0046312e-03
-1.1612334e-03
-1.3021869e-03
-1.4212260e-03
-1.5122448e-03
-1.5696480e-03
-1.5887300e-03
-1.5660673e-03
-1.4998651e-03
-1.3901970e-03
-1.2390880e-03
-1.0504151e-03
-8.2963958e-04
-5.8341776e-04
-3.1915744e-04
-4.4585088e-05
2.3262601e-04
5.0513718e-04
7.6612491e-04
1.0093690e-03
1.2292747e-03
1.4208677e-03
1.5797998e-03
1.7023891e-03
1.7856984e-03
1.8276371e-03
1.8270685e-03
1.7839015e-03
1.6991540e-03
1.5749788e-03
1.4146469e-03
1.2224803e-03
1.0037313e-03
7.6440567e-04
5.1103664e-04
2.5042482e-04
-1.0634452e-05
-2.6560863e-04
-5.0844668e-04
-7.3374436e-04
-9.3685416e-04
-1.1139503e-03
-1.2620873e-03
-1.3792971e-03
-1.4646434e-03
-1.5181079e-03
-1.5403645e-03
-1.5325561e-03
-1.4961153e-03
-1.4326431e-03
-1.3438499e-03
-1.2315599e-03
-1.0977691e-03
-9.4474434e-04
-7.7514280e-04
-5.9212869e-04
-3.9945890e-04
-2.0151443e-04
-3.2595699e-06
1.8987932e-04
3.7221280e-04
5.3805250e-04
6.8202197e-04
7.9939261e-04
8.8641883e-04
9.4064228e-04
9.6113146e-04
9.4862368e-04
9.0554175e-04
8.3586892e-04
7.4488136e-04
6.3875549e-04
5.2408335e-04
4.0734168e-04
2.9436620e-04
1.8988400e-04
9.7155016e-05
1.7769172e-05
-4.8364455e-05
-1.0281780e-04
-1.4824063e-04
-1.8779286e-04
-2.2449435e-04
-2.6062984e-04
-2.9729000e-04
-3.3404800e-04
-3.6884095e-04
-3.9813613e-04
-4.1737630e-04
-4.2164426e-04
-4.0644985e-04
-3.6852086e-04
-3.0647527e-04
-2.2126512e-04
-1.1631417e-04
2.6826124e-06
1.2827716e-04
2.5203576e-04
3.6545128e-04
4.6087665e-04
5.3235561e-04
5.7624271e-04
5.9153594e-04
5.7988736e-04
5.4530443e-04
4.9359855e-04
4.3166641e-04
3.6670161e-04
3.0543181e-04
2.5346440e-04
2.1480444e-04
1.9158057e-04
1.8398306e-04
1.9038958e-04
2.0763605e-04
2.3138221e-04
2.5652447e-04
2.7761772e-04
2.8927934e-04
2.8655826e-04
2.6525640e-04
2.2219077e-04
1.5538288e-04
6.4179491e-05
-5.0640527e-05
-1.8675602e-04
-3.4027081e-04
-5.0581512e-04
-6.7677351e-04
-8.4561792e-04
-1.0043180e-03
-1.1447973e-03
-1.2594025e-03
-1.3413597e-03
-1.3851891e-03
-1.3870584e-03
-1.3450509e-03
-1.2593292e-03
-1.1321773e-03
-9.6791060e-04
-7.7264739e-04
-5.5394682e-04
-3.2033219e-04
-8.0738584e-05
1.5605969e-04
3.8198094e-04
5.9007238e-04
7.7481065e-04
9.3224511e-04
1.0599821e-03
1.1570278e-03
1.2235251e-03
1.2604378e-03
1.2692388e-03
1.2516610e-03
1.2095452e-03
1.1448014e-03
1.0594712e-03
9.5586125e-04
8.3670264e-04
7.0528890e-04
5.6555379e-04
4.2205286e-04
2.7978748e-04
1.4386065e-04
1.9084149e-05
-9.0368645e-05
-1.8126216e-04
-2.5154632e-04
-3.0053242e-04
-3.2897919e-04
-3.3907496e-04
-3.3430937e-04
-3.1923819e-04
-2.9915422e-04
-2.7968488e-04
-2.6634284e-04
-2.6406308e-04
-2.7676566e-04
-3.0698857e-04
-3.5563181e-04
-4.2184298e-04
-5.0305471e-04
-5.9516188e-04
-6.9280735e-04
-7.8973481e-04
-8.7917113e-04
-9.5421179e-04
-1.0081963e-03
-1.0350676e-03
-1.0297108e-03
-9.8825822e-04
-9.0834486e-04
-7.8929711e-04
-6.3224588e-04
-4.4016418e-04
-2.1783203e-04
2.8270047e-05
2.9013974e-04
5.5850495e-04
8.2314936e-04
1.0733107e-03
1.2981589e-03
1.4873501e-03
1.6315934e-03
1.7231792e-03
1.7564753e-03
1.7283769e-03
1.6386566e-03
1.4901621e-03
1.2888113e-03
1.0433583e-03
7.6492963e-04
4.6636353e-04
1.6140331e-04
-1.3618668e-04
-4.1350878e-04
-6.5934913e-04
-8.6485613e-04
-1.0240233e-03
-1.1339352e-03
-1.1947552e-03
-1.2094570e-03
-1.1833307e-03
-1.1233198e-03
-1.0372655e-03
-9.3314279e-04
-8.1836773e-04
-6.9924134e-04
-5.8057503e-04
-4.6551595e-04
-3.5556633e-04
-2.5077187e-04
-1.5004639e-04
-5.1598744e-05
4.6573911e-05
1.4616930e-04
2.4809314e-04
3.5206183e-04
4.5635154e-04
5.5773685e-04
6.5164056e-04
7.3250028e-04
7.9430613e-04
8.3117672e-04
8.3787878e-04
8.1030492e-04
7.4591855e-04
6.4413273e-04
5.0658434e-04
3.3726874e-04
1.4250835e-04
-6.9256986e-05
-2.8785708e-04
-5.0194288e-04
-6.9967643e-04
-8.6951635e-04
-1.0010402e-03
-1.0857343e-03
-1.1176784e-03
-1.0940581e-03
-1.0154497e-03
-8.8584155e-04
-7.1238091e-04
-5.0486028e-04
-2.7498707e-04
-3.5502908e-05
2.0076214e-04
4.2180796e-04
6.1726598e-04
7.7901064e-04
9.0153112e-04
9.8204408e-04
1.0203595e-03
1.0185397e-03
9.8041148e-04
9.1100199e-04
8.1597302e-04
7.0112015e-04
5.7198901e-04
4.3363799e-04
2.9055350e-04
1.4669023e-04
5.5404198e-06
-1.2982980e-04
-2.5671553e-04
-3.7265878e-04
-4.7534562e-04
-5.6255565e-04
-6.3217639e-04
-6.8227962e-04
-7.1124583e-04
-7.1791684e-04
-7.0175339e-04
-6.6297435e-04
-6.0265609e-04
-5.2277641e-04
-4.2619344e-04
-3.1655601e-04
-1.9814776e-04
-7.5674230e-05
4.5991364e-05
1.6208361e-04
2.6821917e-04
3.6064643e-04
4.3644685e-04
4.9366697e-04
5.3136581e-04
5.4957235e-04
5.4916088e-04
5.3166499e-04
4.9905959e-04
4.5354092e-04
3.9732857e-04
3.3250697e-04
2.6091958e-04
1.8412754e-04
1.0343834e-04
1.9997922e-05
-6.5072887e-05
-1.5052674e-04
-2.3485624e-04
-3.1621498e-04
-3.9244983e-04
-4.6125074e-04
-5.2031765e-04
-5.6749037e-04
-6.0087279e-04
-6.1895464e-04
-6.2070773e-04
-6.0564164e-04
-5.7381123e-04
-5.2577645e-04
-4.6252403e-04
-3.8537035e-04
-2.9586871e-04
-1.9574108e-04
-8.6846488e-05
2.8810239e-05
1.4903156e-04
2.7135040e-04
3.9293919e-04
5.1052758e-04
6.2035511e-04
7.1818296e-04
7.9938369e-04
8.5911924e-04
8.9260628e-04
8.9545476e-04
8.6405450e-04
7.9597739e-04
6.9035965e-04
5.4822876e-04
3.7274283e-04
1.6931416e-04
-5.4407787e-05
-2.8871592e-04
-5.2220371e-04
-7.4230710e-04
-9.3601829e-04
-1.0907382e-03
-1.1952109e-03
-1.2404761e-03
-1.2207987e-03
-1.1345372e-03
-9.8480233e-04
-7.7967190e-04
-5.3185455e-04
-2.5780950e-04
2.3616198e-05
2.9290625e-04
5.3176854e-04
7.2498491e-04
8.6198871e-04
9.3796115e-04
9.5428590e-04
9.1827279e-04
8.4215213e-04
7.4144345e-04
6.3290112e-04
5.3231358e-04
4.5246446e-04
4.0154507e-04
3.8223900e-04
3.9159267e-04
4.2166263e-04
4.6081881e-04
4.9550211e-04
5.1218853e-04
4.9929686e-04
4.4878752e-04
3.5723866e-04
2.2625425e-04
6.2153947e-05
-1.2499616e-04
-3.2284758e-04
-5.1848342e-04
-7.0009767e-04
-8.5836609e-04
-9.8729587e-04
-1.0844450e-03
-1.1505253e-03
-1.1885187e-03
-1.2025200e-03
-1.1965252e-03
-1.1733712e-03
-1.1340223e-03
-1.0773331e-03
-1.0003103e-03
-8.9879715e-04
-7.6843812e-04
-6.0574973e-04
-4.0912884e-04
-1.7965277e-04
7.8435650e-05
3.5761675e-04
6.4736471e-04
9.3476439e-04
1.2054015e-03
1.4444245e-03
1.6376659e-03
1.7727153e-03
1.8398599e-03
1.8328290e-03
1.7492980e-03
1.5911223e-03
1.3642891e-03
1.0785975e-03
7.4710028e-04
3.8536000e-04
1.0576676e-05
-3.5936268e-04
-7.0686645e-04
-1.0156072e-03
-1.2714288e-03
-1.4631458e-03
-1.5831885e-03
-1.6280453e-03
-1.5984514e-03
-1.4992794e-03
-1.3391088e-03
-1.1294913e-03
-8.8399636e-04
-6.1716894e-04
-3.4352822e-04
-7.6695319e-05
1.7131131e-04
3.9059364e-04
5.7368106e-04
7.1563306e-04
8.1398160e-04
8.6857414e-04
8.8137130e-04
8.5623050e-04
7.9868080e-04
7.1567495e-04
6.1529368e-04
5.0637419e-04
3.9804162e-04
2.9913815e-04
2.1756753e-04
1.5959836e-04
1.2919383e-04
1.2745590e-04
1.5227983e-04
1.9830351e-04
2.5720236e-04
3.1833340e-04
3.6968422e-04
3.9904471e-04
3.9529024e-04
3.4964266e-04
2.5676636e-04
1.1556923e-04
-7.0390086e-05
-2.9294735e-04
-5.3984743e-04
-7.9570099e-04
-1.0433035e-03
-1.2651833e-03
-1.4452059e-03
-1.5700516e-03
-1.6304011e-03
-1.6217097e-03
-1.5444944e-03
-1.4041031e-03
-1.2100026e-03
-9.7469613e-04
-7.1242066e-04
-4.3778517e-04
-1.6449720e-04
9.5701382e-05
3.3380216e-04
5.4394648e-04
7.2346843e-04
8.7258139e-04
9.9376715e-04
1.0909640e-03
1.1686720e-03
1.2310948e-03
1.2814212e-03
1.3213247e-03
1.3507317e-03
1.3678749e-03
1.3696133e-03
1.3519593e-03
1.3107266e-03
1.2421951e-03
1.1436931e-03
1.0140139e-03
8.5362096e-04
6.6464355e-04
4.5070828e-04
2.1667838e-04
-3.1622130e-05
-2.8764007e-04
-5.4425690e-04
-7.9390139e-04
-1.0286571e-03
-1.2404180e-03
-1.4211339e-03
-1.5631694e-03
-1.6598054e-03
-1.7058650e-03
-1.6982650e-03
-1.6363144e-03
-1.5218113e-03
-1.3590195e-03
-1.1545396e-03
-9.1707410e-04
-6.5708397e-04
-3.8632512e-04
-1.1725881e-04
1.3765353e-04
3.6673547e-04
5.5990099e-04
7.0939973e-04
8.1041184e-04
8.6141257e-04
8.6425718e-04
8.2397795e-04
7.4831954e-04
6.4706329e-04
5.3120584e-04
4.1206923e-04
3.0042447e-04
2.0570201e-04
1.3534032e-04
9.4298781e-05
8.4747003e-05
1.0593972e-04
1.5428545e-04
2.2361223e-04
3.0562514e-04
3.9054080e-04
4.6787039e-04
5.2730517e-04
5.5963907e-04
5.5764690e-04
5.1682660e-04
4.3591457e-04
3.1709669e-04
1.6586804e-04
-9.4539920e-06
-1.9839893e-04
-3.8900312e-04
-5.6852270e-04
-7.2431487e-04
-8.4485208e-04
-9.2076926e-04
-9.4582235e-04
-9.1762982e-04
-8.3808409e-04
-7.1335483e-04
-5.5345458e-04
-3.7139095e-04
-1.8198116e-04
-4.4851684e-07
1.5904868e-04
2.8479503e-04
3.6865257e-04
4.0682979e-04
4.0020305e-04
3.5415672e-04
2.7796422e-04
1.8378188e-04
8.5362929e-05
-3.3813189e-06
-6.9837401e-05
-1.0402618e-04
-9.9690253e-05
-5.5019353e-05
2.7071060e-05
1.3915393e-04
2.6999523e-04
4.0569300e-04
5.3113797e-04
6.3163317e-04
6.9448003e-04
7.1033956e-04
6.7420766e-04
5.8589481e-04
4.4996867e-04
2.7520957e-04
7.3717339e-05
-1.4019890e-04
-3.5127090e-04
-5.4457644e-04
-7.0679173e-04
-8.2728566e-04
-8.9895673e-04
-9.1873313e-04
-8.8768804e-04
-8.1076355e-04
-6.9613931e-04
-5.5432174e-04
-3.9705717e-04
-2.3618716e-04
-8.2564279e-05
5.4865729e-05
1.6973226e-04
2.5860644e-04
3.2104881e-04
3.5935815e-04
3.7807275e-04
3.8329582e-04
3.8192174e-04
3.8083604e-04
3.8615671e-04
4.0258017e-04
4.3288850e-04
4.7765942e-04
5.3519711e-04
6.0167636e-04
6.7147225e-04
7.3763460e-04
7.9246175e-04
8.2813077e-04
8.3734942e-04
8.1400350e-04
7.5377268e-04
6.5467397e-04
5.1746601e-04
3.4584452e-04
1.4640394e-04
-7.1646567e-05
-2.9705726e-04
-5.1740956e-04
-7.2020690e-04
-8.9405139e-04
-1.0297486e-03
-1.1211881e-03
-1.1658833e-03
-1.1651067e-03
-1.1236131e-03
-1.0489930e-03
-9.5074448e-04
-8.3918589e-04
-7.2434269e-04
-6.1493704e-04
-5.1758877e-04
-4.3630844e-04
-3.7232557e-04
-3.2424935e-04
-2.8851347e-04
-2.6002379e-04
-2.3291588e-04
-2.0133478e-04
-1.6016087e-04
-1.0561566e-04
-3.5689328e-05
4.9655290e-05
1.4852386e-04
2.5736358e-04
3.7141763e-04
4.8528293e-04
5.9348333e-04
6.9098071e-04
7.7357022e-04
8.3813195e-04
8.8273353e-04
9.0659506e-04
9.0994666e-04
8.9383085e-04
8.5988694e-04
8.1012481e-04
7.4671251e-04
6.7181196e-04
5.8747493e-04
4.9559560e-04
3.9790707e-04
2.9600348e-04
1.9137009e-04
8.5409650e-05
-2.0540364e-05
-1.2520109e-04
-2.2735691e-04
-3.2587097e-04
-4.1970636e-04
-5.0794261e-04
-5.8977554e-04
-6.6449219e-04
-7.3141689e-04
-7.8983005e-04
-8.3886727e-04
-8.7741388e-04
-9.0401842e-04
-9.1685535e-04
-9.1376857e-04
-8.9241806e-04
-8.5053219e-04
-7.8624522e-04
-6.9847946e-04
-5.8731668e-04
-4.5429454e-04
-3.0256484e-04
-1.3686576e-04
3.6710846e-05
2.1114012e-04
3.7902326e-04
5.3321256e-04
6.6741849e-04
7.7671581e-04
8.5789058e-04
9.0965874e-04
9.3280620e-04
9.3017118e-04
9.0637437e-04
8.6731038e-04
8.1946850e-04
7.6916656e-04
7.2179171e-04
6.8114280e-04
6.4895801e-04
6.2468610e-04
6.0552692e-04
5.8673544e-04
5.6215713e-04
5.2494024e-04
4.6835210e-04
3.8661474e-04
2.7567380e-04
1.3382289e-04
-3.7878778e-05
-2.3543712e-04
-4.5202060e-04
-6.7831854e-04
-9.0313312e-04
-1.1141607e-03
-1.2989042e-03
-1.4456456e-03
-1.5443979e-03
-1.5877526e-03
-1.5715405e-03
-1.4952379e-03
-1.3620712e-03
-1.1788038e-03
-9.5522755e-04
-7.0341442e-04
-4.3681396e-04
-1.6929200e-04
8.5788663e-05
3.1635249e-04
5.1227895e-04
6.6610660e-04
7.7374034e-04
8.3486908e-04
8.5289928e-04
8.3441776e-04
7.8828850e-04
7.2453154e-04
6.5315261e-04
5.8308461e-04
5.2136849e-04
4.7264863e-04
4.3900164e-04
4.2007033e-04
4.1344147e-04
4.1518593e-04
4.2047195e-04
4.2416909e-04
4.2138089e-04
4.0787087e-04
3.8037157e-04
3.3678347e-04
2.7627943e-04
1.9933041e-04
1.0766384e-04
4.1640387e-06
-1.0727693e-04
-2.2195332e-04
-3.3458848e-04
-4.3963605e-04
-5.3164349e-04
-6.0566337e-04
-6.5767726e-04
-6.8498386e-04
-6.8650097e-04
-6.6293671e-04
-6.1679636e-04
-5.5220700e-04
-4.7456150e-04
-3.9001564e-04
-3.0486717e-04
-2.2485557e-04
-1.5451392e-04
-9.6692100e-05
-5.2284696e-05
-2.0183832e-05
2.5328920e-06
2.0204155e-05
3.8028467e-05
6.1415344e-05
9.5313728e-05
1.4358646e-04
2.0849459e-04
2.9034325e-04
3.8732271e-04
4.9555674e-04
6.0935152e-04
7.2162178e-04
8.2445548e-04
9.0976314e-04
9.6994556e-04
9.9851001e-04
9.9057491e-04
9.4322354e-04
8.5569087e-04
7.2938770e-04
5.6778042e-04
3.7615386e-04
1.6129072e-04
-6.8897265e-05
-3.0575342e-04
-5.4025191e-04
-7.6335536e-04
-9.6635638e-04
-1.1412090e-03
-1.2808532e-03
-1.3795319e-03
-1.4330916e-03
-1.4392554e-03
-1.3978595e-03
-1.3109726e-03
-1.1827757e-03
-1.0192693e-03
-8.2791344e-04
-6.1719366e-04
-3.9612400e-04
-1.7373881e-04
4.1385791e-05
2.4155339e-04
4.2029402e-04
5.7262471e-04
6.9521706e-04
7.8647037e-04
8.4649196e-04
8.7698603e-04
8.8105122e-04
8.6289112e-04
8.2745241e-04
7.8001776e-04
7.2578877e-04
6.6949568e-04
6.1506683e-04
5.6538230e-04
5.2212573e-04
4.8573840e-04
4.5547229e-04
4.2953424e-04
4.0530866e-04
3.7964174e-04
3.4916672e-04
3.1064816e-04
2.6132235e-04
1.9920858e-04
1.2336566e-04
3.4069946e-05
-6.7105136e-05
-1.7732510e-04
-2.9265955e-04
-4.0838251e-04
-5.1940054e-04
-6.2072125e-04
-7.0780358e-04
-7.7675528e-04
-8.2447005e-04
-8.4874790e-04
-8.4839026e-04
-8.2326027e-04
-7.7429703e-04
-7.0347284e-04
-6.1368709e-04
-5.0859845e-04
-3.9240662e-04
-2.6960216e-04
-1.4470536e-04
-2.2014212e-05
9.4620209e-05
2.0197263e-04
2.9755833e-04
3.7966941e-04
4.4732902e-04
5.0017754e-04
5.3832026e-04
5.6217207e-04
5.7232665e-04
5.6946138e-04
5.5427434e-04
5.2744418e-04
4.8960580e-04
4.4133911e-04
3.8317086e-04
3.1559099e-04
2.3908741e-04
1.5420531e-04
6.1634592e-05
-3.7678091e-05
-1.4240804e-04
-2.5074844e-04
-3.6035736e-04
-4.6838847e-04
-5.7161901e-04
-6.6662424e-04
-7.4986361e-04
-8.1763603e-04
-8.6605243e-04
-8.9114887e-04
-8.8914814e-04
-8.5683647e-04
-7.9199855e-04
-6.9384331e-04
-5.6335418e-04
-4.0350924e-04
-2.1933255e-04
-1.7754355e-05
1.9272472e-04
4.0255003e-04
6.0177040e-04
7.8077517e-04
9.3103577e-04
1.0457739e-03
1.1204848e-03
1.1532604e-03
1.1448777e-03
1.0986468e-03
1.0200350e-03
9.1610795e-04
7.9483812e-04
6.6434402e-04
5.3213166e-04
4.0442110e-04
2.8563939e-04
1.7814547e-04
8.2224183e-05
-3.6498827e-06
-8.2316078e-05
-1.5726929e-04
-2.3193250e-04
-3.0896356e-04
-3.8969708e-04
-4.7380827e-04
-5.5927109e-04
-6.4260716e-04
-7.1922620e-04
-7.8368443e-04
-8.2997492e-04
-8.5199948e-04
-8.4420842e-04
-8.0232316e-04
-7.2404018e-04
-6.0961115e-04
-4.6220598e-04
-2.8799048e-04
-9.5883156e-05
1.0300787e-04
2.9623037e-04
4.7104215e-04
6.1556826e-04
7.1993389e-04
7.7723994e-04
7.8426121e-04
7.4177894e-04
6.5450740e-04
5.3062812e-04
3.8099117e-04
2.1807316e-04
5.4799090e-05
-9.6652244e-05
-2.2593223e-04
-3.2537649e-04
-3.9053957e-04
-4.2036957e-04
-4.1703435e-04
-3.8545260e-04
-3.3260638e-04
-2.6672182e-04
-1.9640690e-04
-1.2983422e-04
-7.4048423e-05
-3.4461749e-05
-1.4577655e-05
-1.5965159e-05
-3.8442905e-05
-8.0293027e-05
-1.3839229e-04
-2.0838611e-04
-2.8501398e-04
-3.6255443e-04
-4.3532056e-04
-4.9813485e-04
-5.4672116e-04
-5.7796742e-04
-5.9003391e-04
-5.8230395e-04
-5.5519700e-04
-5.0988367e-04
-4.4795605e-04
-3.7111042e-04
-2.8089586e-04
-1.7857180e-04
-6.5100444e-05
5.8725222e-05
1.9204384e-04
3.3362638e-04
4.8157482e-04
6.3308049e-04
7.8429574e-04
9.3035292e-04
1.0655381e-03
1.1835988e-03
1.2781466e-03
1.3431067e-03
1.3731640e-03
1.3641623e-03
1.3134218e-03
1.2199587e-03
1.0846064e-03
9.1004894e-04
7.0077995e-04
4.6300109e-04
2.0447340e-04
-6.5685016e-05
-3.3734043e-04
-5.9983042e-04
-8.4242128e-04
-1.0546969e-03
-1.2269929e-03
-1.3509172e-03
-1.4199307e-03
-1.4299339e-03
-1.3797833e-03
-1.2716560e-03
-1.1111928e-03
-9.0736967e-04
-6.7207794e-04
-4.1942457e-04
-1.6479309e-04
7.6267676e-05
2.8923531e-04
4.6177365e-04
5.8473937e-04
6.5292328e-04
6.6544153e-04
6.2573435e-04
5.4117722e-04
4.2235296e-04
2.8206434e-04
1.3418533e-04
-7.5424323e-06
-1.3066107e-04
-2.2499765e-04
-2.8343560e-04
-3.0240110e-04
-2.8203453e-04
-2.2604122e-04
-1.4124191e-04
-3.6870968e-05
7.6304293e-05
1.8695293e-04
2.8414383e-04
3.5821422e-04
4.0145177e-04
4.0859880e-04
3.7731000e-04
3.0852044e-04
2.0650490e-04
7.8539546e-05
-6.5781267e-05
-2.1547440e-04
-3.5921654e-04
-4.8637785e-04
-5.8792144e-04
-6.5707954e-04
-6.8975466e-04
-6.8463215e-04
-6.4302484e-04
-5.6849614e-04
-4.6632507e-04
-3.4288527e-04
-2.0501227e-04
-5.9428669e-05
8.7717062e-05
2.3116353e-04
3.6669214e-04
4.9114004e-04
6.0230136e-04
6.9875402e-04
7.7964808e-04
8.4448909e-04
8.9294639e-04
9.2471101e-04
9.3941701e-04
9.3662642e-04
9.1586721e-04
8.7671047e-04
8.1887439e-04
7.4234468e-04
6.4749836e-04
5.3521525e-04
4.0696039e-04
2.6482105e-04
1.1146982e-04
-4.9961913e-05
-2.1599356e-04
-3.8278128e-04
-5.4607345e-04
-7.0125368e-04
-8.4348447e-04
-9.6793332e-04
-1.0700553e-03
-1.1459006e-03
-1.1924126e-03
-1.2076811e-03
-1.1911153e-03
-1.1435097e-03
-1.0669849e-03
-9.6480698e-04
-8.4111326e-04
-7.0058527e-04
-5.4812123e-04
-3.8855140e-04
-2.2642692e-04
-6.5893299e-05
8.9358483e-05
2.3608547e-04
3.7146079e-04
4.9304446e-04
5.9877471e-04
6.8698223e-04
7.5641632e-04
8.0626461e-04
8.3614925e-04
8.4609156e-04
8.3644927e-04
8.0784209e-04
7.6108695e-04
6.9716134e-04
6.1720503e-04
5.2255965e-04
4.1483599e-04
2.9599195e-04
1.6840624e-04
3.4945583e-05
-1.0099134e-04
-2.3549869e-04
-3.6426703e-04
-4.8272881e-04
-5.8622565e-04
-6.7019960e-04
-7.3041284e-04
-7.6319886e-04
-7.6574327e-04
-7.3638388e-04
-6.7490758e-04
-5.8280741e-04
-4.6345172e-04
-3.2211486e-04
-1.6582847e-04
-3.0321874e-06
1.5697052e-04
3.0471871e-04
4.3140409e-04
5.2970431e-04
5.9454250e-04
6.2367092e-04
6.1798683e-04
5.8151669e-04
5.2104644e-04
4.4542485e-04
3.6461424e-04
2.8860003e-04
2.2628998e-04
1.8453553e-04
1.6738974e-04
1.7568275e-04
2.0695432e-04
2.5574202e-04
3.1418477e-04
3.7286536e-04
4.2178402e-04
4.5133682e-04
4.5315785e-04
4.2077698e-04
3.5022631e-04
2.4061440e-04
9.4454974e-05
-8.2376345e-05
-2.8103308e-04
-4.9038182e-04
-6.9790539e-04
-8.9073596e-04
-1.0567189e-03
-1.1854062e-03
-1.2688869e-03
-1.3023766e-03
-1.2845195e-03
-1.2173839e-03
-1.1061697e-03
-9.5866720e-04
-7.8452729e-04
-5.9441230e-04
-3.9910220e-04
-2.0863119e-04
-3.1527886e-05
1.2577539e-04
2.5931266e-04
3.6770272e-04
4.5200998e-04
5.1536973e-04
5.6242581e-04
5.9864742e-04
6.2960147e-04
6.6025676e-04
6.9438934e-04
7.3414766e-04
7.7982105e-04
8.2983420e-04
8.8096071e-04
9.2871808e-04
9.6788253e-04
9.9304941e-04
9.9916863e-04
9.8202113e-04
9.3863398e-04
8.6759436e-04
7.6918708e-04
6.4532094e-04
4.9927267e-04
3.3531062e-04
1.5827053e-04
-2.6846736e-05
-2.1520045e-04
-4.0232456e-04
-5.8422097e-04
-7.5733927e-04
-9.1846564e-04
-1.0645578e-03
-1.1925742e-03
-1.2993498e-03
-1.3815612e-03
-1.4358052e-03
-1.4587914e-03
-1.4476311e-03
-1.4001901e-03
-1.3154554e-03
-1.1938626e-03
-1.0375263e-03
-8.5033020e-04
-6.3784848e-04
-4.0710035e-04
-1.6615977e-04
7.6336131e-05
3.1172705e-04
5.3186214e-04
7.2957530e-04
8.9906537e-04
1.0361577e-03
1.1384352e-03
1.2052366e-03
1.2375254e-03
1.2376435e-03
1.2089903e-03
1.1556920e-03
1.0823091e-03
9.9360358e-04
8.9434725e-04
7.8912817e-04
6.8213743e-04
5.7694647e-04
4.7629688e-04
3.8193467e-04
2.9452399e-04
2.1366733e-04
1.3804232e-04
6.5645485e-05
-5.8823008e-06
-7.8886025e-05
-1.5532531e-04
-2.3644502e-04
-3.2252470e-04
-4.1273395e-04
-5.0511040e-04
-5.9666578e-04
-6.8361143e-04
-7.6167801e-04
-8.2649145e-04
-8.7396283e-04
-9.0065497e-04
-9.0409711e-04
-8.8302595e-04
-8.3753485e-04
-7.6911627e-04
-6.8058880e-04
-5.7590944e-04
-4.5988316e-04
-3.3779490e-04
-2.1500144e-04
-9.6527474e-05
1.3290772e-05
1.1107993e-04
1.9460067e-04
2.6281928e-04
3.1589818e-04
3.5510784e-04
3.8266280e-04
4.0149581e-04
4.1497667e-04
4.2658877e-04
4.3958848e-04
4.5667432e-04
4.7969259e-04
5.0940381e-04
5.4532891e-04
5.8568782e-04
6.2743741e-04
6.6641117e-04
6.9756022e-04
7.1529137e-04
7.1389045e-04
6.8800869e-04
6.3317803e-04
5.4631295e-04
4.2615192e-04
2.7359259e-04
9.1881973e-05
-1.1336625e-04
-3.3434275e-04
-5.6140593e-04
-7.8362907e-04
-9.8950459e-04
-1.1677563e-03
-1.3081893e-03
-1.4024960e-03
-1.4449370e-03
-1.4328278e-03
-1.3667796e-03
-1.2506671e-03
-1.0913215e-03
-8.9797385e-04
-6.8149713e-04
-4.5351764e-04
-2.2549050e-04
-7.8479684e-06
1.9072887e-04
3.6389951e-04
5.0803150e-04
6.2225669e-04
7.0821135e-04
7.6951286e-04
8.1105175e-04
8.3819680e-04
8.5601831e-04
8.6862523e-04
8.7868833e-04
8.8719060e-04
8.9341659e-04
8.9516466e-04
8.8914060e-04
8.7146995e-04
8.3825597e-04
7.8611276e-04
7.1261639e-04
6.1663501e-04
4.9851649e-04
3.6012873e-04
2.0476498e-04
3.6940853e-05
-1.3788175e-04
-3.1360965e-04
-4.8384356e-04
-6.4219172e-04
-7.8255741e-04
-8.9939404e-04
-9.8792931e-04
-1.0443657e-03
-1.0660650e-03
-1.0517220e-03
-1.0015275e-03
-9.1731197e-04
-8.0264999e-04
-6.6289280e-04
-5.0510780e-04
-3.3785361e-04
-1.7063898e-04
-1.3064091e-05
1.2612624e-04
2.3986207e-04
3.2334443e-04
3.7437637e-04
3.9341443e-04
3.8335461e-04
3.4909491e-04
2.9693992e-04
2.3392523e-04
1.6714034e-04
1.0312192e-04
4.7377407e-05
4.0806196e-06
-2.4045585e-05
-3.5674504e-05
-3.0691062e-05
-9.9379500e-06
2.5042177e-05
7.2213168e-05
1.2916797e-04
1.9316385e-04
2.6109450e-04
3.2944321e-04
3.9427023e-04
4.5128127e-04
4.9600604e-04
5.2408952e-04
5.3167044e-04
5.1579636e-04
4.7480703e-04
4.0861448e-04
3.1882238e-04
2.0865790e-04
8.2726610e-05
-5.3368238e-05
-1.9348351e-04
-3.3142235e-04
-4.6141607e-04
-5.7848843e-04
-6.7856040e-04
-7.5833489e-04
-8.1510564e-04
-8.4658489e-04
-8.5080765e-04
-8.2614480e-04
-7.7142644e-04
-6.8615202e-04
-5.7074829e-04
-4.2683003e-04
-2.5741962e-04
-6.7088133e-05
1.3800953e-04
3.5022406e-04
5.6063586e-04
7.5941553e-04
9.3631141e-04
1.0812396e-03
1.1849350e-03
1.2396086e-03
1.2395563e-03
1.1816702e-03
1.0658183e-03
8.9506237e-04
6.7568082e-04
4.1697096e-04
1.3081528e-04
-1.6897446e-04
-4.6749261e-04
-7.4968564e-04
-1.0013244e-03
-1.2099179e-03
-1.3654968e-03
-1.4612131e-03
-1.4937219e-03
-1.4633236e-03
-1.3738531e-03
-1.2323437e-03
-1.0484955e-03
-8.3392788e-04
-6.0127151e-04
-3.6323101e-04
-1.3170000e-04
8.3005142e-05
2.7272766e-04
4.3183041e-04
5.5732244e-04
6.4876525e-04
7.0799248e-04
7.3869229e-04
7.4590730e-04
7.3550142e-04
7.1363287e-04
6.8626307e-04
6.5872478e-04
6.3536566e-04
6.1927705e-04
6.1211282e-04
6.1400513e-04
6.2358915e-04
6.3815013e-04
6.5389625e-04
6.6633911e-04
6.7074192e-04
6.6258048e-04
6.3796180e-04
5.9395706e-04
5.2882446e-04
4.4211489e-04
3.3466725e-04
2.0851124e-04
6.6703744e-05
-8.6872225e-05
-2.4772011e-04
-4.1093601e-04
-5.7139918e-04
-7.2394819e-04
-8.6356813e-04
-9.8561080e-04
-1.0859619e-03
-1.1610770e-03
-1.2079891e-03
-1.2244036e-03
-1.2088850e-03
-1.1610931e-03
-1.0820022e-03
-9.7403428e-04
-8.4105212e-04
-6.8818865e-04
-5.2152102e-04
-3.4762639e-04
-1.7307375e-04
-3.9142702e-06
1.5476673e-04
2.9918087e-04
4.2700997e-04
5.3740121e-04
6.3078890e-04
7.0857274e-04
7.7270133e-04
8.2521850e-04
8.6783058e-04
9.0154860e-04
9.2645061e-04
9.4159532e-04
9.4509920e-04
9.3436870e-04
9.0646046e-04
8.5852601e-04
7.8828598e-04
6.9447150e-04
5.7717194e-04
4.3803854e-04
2.8031429e-04
1.0868686e-04
-7.1013408e-05
-2.5222982e-04
-4.2816099e-04
-5.9222933e-04
-7.3841040e-04
-8.6137238e-04
-9.5653119e-04
-1.0201365e-03
-1.0494213e-03
-1.0428071e-03
-1.0001347e-03
-9.2287632e-04
-8.1426943e-04
-6.7931281e-04
-5.2457796e-04
-3.5781647e-04
-1.8738520e-04
-2.1551260e-05
1.3223196e-04
2.6797425e-04
3.8162676e-04
4.7131591e-04
5.3729796e-04
5.8164541e-04
6.0772233e-04
6.1954072e-04
6.2110473e-04
6.1584035e-04
6.0618031e-04
5.9333840e-04
5.7727588e-04
5.5683830e-04
5.3002485e-04
4.9434418e-04
4.4720830e-04
3.8631967e-04
3.1001356e-04
2.1752586e-04
1.0916575e-04
-1.3617058e-05
-1.4827015e-04
-2.9127284e-04
-4.3835658e-04
-5.8480008e-04
-7.2570753e-04
-8.5615535e-04
-9.7125467e-04
-1.0662264e-03
-1.1365152e-03
-1.1779478e-03
-1.1869364e-03
-1.1607157e-03
-1.0975971e-03
-9.9721004e-04
-8.6070043e-04
-6.9085463e-04
-4.9212532e-04
-2.7054756e-04
-3.3545772e-05
2.1035755e-04
4.5191464e-04
6.8158662e-04
8.9001788e-04
1.0685304e-03
1.2096168e-03
1.3074052e-03
1.3580625e-03
1.3600959e-03
1.3145122e-03
1.2248077e-03
1.0967722e-03
9.3811745e-04
7.5795437e-04
5.6616329e-04
3.7271364e-04
1.8699774e-04
1.7238224e-05
-1.2998491e-04
-2.5005874e-04
-3.4049910e-04
-4.0094729e-04
-4.3301045e-04
-4.3998514e-04
-4.2653494e-04
-3.9832020e-04
-3.6151873e-04
-3.2227246e-04
-2.8615092e-04
-2.5768659e-04
-2.4001959e-04
-2.3468213e-04
-2.4154120e-04
-2.5890159e-04
-2.8375393e-04
-3.1213920e-04
-3.3959342e-04
-3.6163323e-04
-3.7424177e-04
-3.7431267e-04
-3.6000832e-04
-3.3099166e-04
-2.8850057e-04
-2.3525044e-04
-1.7516848e-04
-1.1298161e-04
-5.3696069e-05
-2.0218772e-06
3.8194613e-05
6.4461138e-05
7.5986496e-05
7.3828861e-05
6.0811645e-05
4.1202890e-05
2.0187559e-05
3.1929090e-06
-4.8490260e-06
-2.0375961e-07
1.9097918e-05
5.2913485e-05
9.8923606e-05
1.5286990e-04
2.0907088e-04
2.6115050e-04
3.0286727e-04
3.2892118e-04
3.3564582e-04
3.2149362e-04
2.8724444e-04
2.3592321e-04
1.7245100e-04
1.0308246e-04
3.4701696e-05
-2.5940489e-05
-7.2961710e-05
-1.0197527e-04
-1.1054542e-04
-9.8427899e-05
-6.7574541e-05
-2.1900841e-05
3.3162827e-05
9.1290915e-05
1.4598295e-04
1.9129528e-04
2.2248976e-04
2.3651668e-04
2.3227636e-04
2.1063946e-04
1.7423973e-04
1.2708200e-04
7.4028712e-05
2.0238747e-05
-2.9370703e-05
-7.0584022e-05
-1.0023474e-04
-1.1642576e-04
-1.1862116e-04
-1.0761793e-04
-8.5413216e-05
-5.4986940e-05
-2.0022765e-05
1.5405752e-05
4.7152655e-05
7.1280631e-05
8.4303540e-05
8.3466948e-05
6.7070473e-05
3.4700936e-05
-1.2709283e-05
-7.2992099e-05
-1.4298773e-04
-2.1887363e-04
-2.9652249e-04
-3.7183892e-04
-4.4103994e-04
-5.0086396e-04
-5.4870756e-04
-5.8269818e-04
-6.0171244e-04
-6.0534758e-04
-5.9384789e-04
-5.6798555e-04
-5.2889914e-04
-4.7790288e-04
-4.1629107e-04
-3.4517017e-04
-2.6535288e-04
-1.7734191e-04
-8.1415259e-05
2.2196072e-05
1.3306587e-04
2.5030885e-04
3.7234401e-04
4.9673103e-04
6.2011453e-04
7.3829581e-04
8.4643493e-04
9.3936933e-04
1.0120182e-03
1.0598279e-03
1.0792050e-03
1.0678830e-03
1.0251733e-03
9.5206243e-04
8.5114755e-04
7.2645633e-04
5.8319254e-04
4.2740572e-04
2.6558834e-04
1.0423701e-04
-5.0572171e-05
-1.9354726e-04
-3.2044835e-04
-4.2824260e-04
-5.1514675e-04
-5.8057246e-04
-6.2500003e-04
-6.4980948e-04
-6.5709473e-04
-6.4947821e-04
-6.2993336e-04
-6.0161339e-04
-5.6767966e-04
-5.3112353e-04
-4.9458140e-04
-4.6015087e-04
-4.2922398e-04
-4.0235862e-04
-3.7921233e-04
-3.5856147e-04
-3.3842229e-04
-3.1627611e-04
-2.8938148e-04
-2.5513630e-04
-2.1143948e-04
-1.5699984e-04
-9.1551396e-05
-1.5955542e-05
6.7807686e-05
1.5674222e-04
2.4701060e-04
3.3416101e-04
4.1338968e-04
4.7982765e-04
5.2885934e-04
5.5648768e-04
5.5971847e-04
5.3689963e-04
4.8797004e-04
4.1459342e-04
3.2015506e-04
2.0960770e-04
8.9168821e-05
-3.4109071e-05
-1.5285625e-04
-2.5994218e-04
-3.4901712e-04
-4.1498747e-04
-4.5438005e-04
-4.6555975e-04
-4.4877830e-04
-4.0604948e-04
-3.4086662e-04
-2.5779799e-04
-1.6200951e-04
-5.8771345e-05
4.6995366e-05
1.5108210e-04
2.5023139e-04
3.4223349e-04
4.2588263e-04
5.0080737e-04
5.6719964e-04
6.2547847e-04
6.7593826e-04
7.1844004e-04
7.5220134e-04
7.7572285e-04
7.8686479e-04
7.8305992e-04
7.6162895e-04
7.2014684e-04
6.5679832e-04
5.7065439e-04
4.6182569e-04
3.3152513e-04
1.8208800e-04
1.6924667e-05
-1.5963285e-04
-3.4257754e-04
-5.2652660e-04
-7.0602838e-04
-8.7583736e-04
-1.0311308e-03
-1.1676557e-03
-1.2818086e-03
-1.3706566e-03
-1.4319154e-03
-1.4639064e-03
-1.4655226e-03
-1.4362322e-03
-1.3761330e-03
-1.2860527e-03
-1.1676674e-03
-1.0235958e-03
-8.5743058e-04
-6.7367494e-04
-4.7757492e-04
-2.7485607e-04
-7.1392633e-05
1.2715065e-04
3.1565889e-04
4.8984671e-04
6.4644390e-04
7.8326779e-04
8.9917941e-04
9.9393671e-04
1.0679722e-03
1.1221331e-03
1.1574289e-03
1.1748278e-03
1.1751387e-03
1.1589923e-03
1.1269155e-03
1.0794303e-03
1.0171342e-03
9.4082693e-04
8.5168730e-04
7.5139986e-04
6.4217423e-04
5.2665379e-04
4.0773937e-04
2.8837016e-04
1.7130770e-04
5.8961337e-05
-4.6719291e-05
-1.4427538e-04
-2.3270163e-04
-3.1136475e-04
-3.7991020e-04
-4.3818766e-04
-4.8621519e-04
-5.2418691e-04
-5.5251466e-04
-5.7188465e-04
-5.8330775e-04
-5.8814246e-04
-5.8806766e-04
-5.8498192e-04
-5.8081658e-04
-5.7727182e-04
-5.7551197e-04
-5.7587537e-04
-5.7766115e-04
-5.7904656e-04
-5.7716505e-04
-5.6834450e-04
-5.4847677e-04
-5.1346953e-04
-4.5971933e-04
-3.8454156e-04
-2.8650139e-04
-1.6560793e-04
-2.3350266e-05
1.3739939e-04
3.1247583e-04
4.9639844e-04
6.8233329e-04
8.6216911e-04
1.0267553e-03
1.1663259e-03
1.2711156e-03
1.3321358e-03
1.3420389e-03
1.2959638e-03
1.1922411e-03
1.0328483e-03
8.2353760e-04
5.7360318e-04
2.9530105e-04
2.9747378e-06
-2.8802980e-04
-5.6255038e-04
-8.0676901e-04
-1.0092194e-03
-1.1615364e-03
-1.2588808e-03
-1.3000198e-03
-1.2870829e-03
-1.2250519e-03
-1.1210659e-03
-9.8363841e-04
-8.2188415e-04
-6.4483611e-04
-4.6091388e-04
-2.7757051e-04
-1.0111551e-04
6.3315675e-05
2.1169127e-04
3.4096160e-04
4.4893078e-04
5.3415537e-04
5.9588761e-04
6.3408728e-04
6.4950726e-04
6.4375921e-04
6.1926537e-04
5.7911139e-04
5.2684032e-04
4.6621102e-04
4.0094712e-04
3.3449923e-04
2.6983953e-04
2.0930617e-04
1.5451145e-04
1.0632037e-04
6.4895351e-05
2.9793104e-05
9.3945458e-08
-2.5454765e-05
-4.8294061e-05
-6.9914817e-05
-9.1730243e-05
-1.1496505e-04
-1.4056770e-04
-1.6915083e-04
-2.0096057e-04
-2.3586878e-04
-2.7337665e-04
-3.1261852e-04
-3.5235948e-04
-3.9098769e-04
-4.2651116e-04
-4.5657874e-04
-4.7855096e-04
-4.8964424e-04
-4.8715869e-04
-4.6877955e-04
-4.3291925e-04
-3.7904845e-04
-3.0795652e-04
-2.2188973e-04
-1.2453501e-04
-2.0846582e-05
8.3294562e-05
1.8165070e-04
2.6839134e-04
3.3883957e-04
3.9001993e-04
4.2093840e-04
4.3257450e-04
4.2760576e-04
4.0991784e-04
3.8397910e-04
3.5417379e-04
3.2419127e-04
2.9656017e-04
2.7239516e-04
2.5139351e-04
2.3208035e-04
2.1226240e-04
1.8961331e-04
1.6228749e-04
1.2944935e-04
9.1616821e-05
5.0748005e-05
1.0042752e-05
-2.6521823e-05
-5.4855085e-05
-7.1507631e-05
-7.4383385e-05
-6.3275542e-05
-4.0120370e-05
-8.9104378e-06
2.4734811e-05
5.4286923e-05
7.3212014e-05
7.5924823e-05
5.8649143e-05
2.0056598e-05
-3.8409862e-05
-1.1257847e-04
-1.9596222e-04
-2.8050816e-04
-3.5758768e-04
-4.1901413e-04
-4.5787745e-04
-4.6917068e-04
-4.5025040e-04
-4.0111199e-04
-3.2444828e-04
-2.2547729e-04
-1.1154554e-04
8.4639218e-06
1.2486491e-04
2.2796974e-04
3.0887797e-04
3.6017977e-04
3.7652253e-04
3.5501495e-04
2.9546196e-04
2.0043353e-04
7.5172086e-05
-7.2655685e-05
-2.3335585e-04
-3.9574421e-04
-5.4781195e-04
-6.7750069e-04
-7.7355202e-04
-8.2637653e-04
-8.2887110e-04
-7.7710752e-04
-6.7081985e-04
-5.1362957e-04
-3.1296285e-04
-7.9635922e-05
1.7288385e-04
4.2949333e-04
6.7465700e-04
8.9368013e-04
1.0739173e-03
1.2057795e-03
1.2834167e-03
1.3049793e-03
1.2724578e-03
1.1912229e-03
1.0693814e-03
9.1695929e-04
7.4495789e-04
5.6438947e-04
3.8540362e-04
2.1658530e-04
6.4473451e-05
-6.6683504e-05
-1.7494650e-04
-2.6051014e-04
-3.2537698e-04
-3.7293178e-04
-4.0746216e-04
-4.3366438e-04
-4.5616655e-04
-4.7909967e-04
-5.0574196e-04
-5.3825236e-04
-5.7749781e-04
-6.2297373e-04
-6.7281764e-04
-7.2391827e-04
-7.7212323e-04
-8.1254473e-04
-8.3995440e-04
-8.4924299e-04
-8.3590504e-04
-7.9649654e-04
-7.2901260e-04
-6.3314286e-04
-5.1038164e-04
-3.6398965e-04
-1.9881844e-04
-2.1016862e-05
1.6235646e-04
3.4378541e-04
5.1577894e-04
6.7135277e-04
8.0446434e-04
9.1033929e-04
9.8567580e-04
1.0287416e-03
1.0393597e-03
1.0187907e-03
9.6953819e-04
8.9510033e-04
7.9968769e-04
6.8792358e-04
5.6453663e-04
4.3405518e-04
3.0051892e-04
1.6723380e-04
3.6603274e-05
-8.9934917e-05
-2.1184855e-04
-3.2932578e-04
-4.4297877e-04
-5.5346299e-04
-6.6104985e-04
-7.6520013e-04
-8.6419594e-04
-9.5489697e-04
-1.0326852e-03
-1.0916471e-03
-1.1250132e-03
-1.1258347e-03
-1.0878362e-03
-1.0063471e-03
-8.7919378e-04
-7.0742144e-04
-4.9572784e-04
-2.5251461e-04
1.0491175e-05
2.7903741e-04
5.3750152e-04
7.7027885e-04
9.6324548e-04
1.1051134e-03
1.1885288e-03
1.2108349e-03
1.1744063e-03
1.0864352e-03
9.5813637e-04
8.0348194e-04
6.3765350e-04
4.7542932e-04
3.2971512e-04
2.1038683e-04
1.2355428e-04
7.1285864e-05
5.1770043e-05
5.9842413e-05
8.7782109e-05
1.2627263e-04
1.6542372e-04
1.9576022e-04
2.0910063e-04
1.9926945e-04
1.6260569e-04
9.8240438e-05
8.1244853e-06
-1.0319792e-04
-2.2904799e-04
-3.6125619e-04
-4.9092238e-04
-6.0921452e-04
-7.0812872e-04
-7.8114118e-04
-8.2369560e-04
-8.3348852e-04
-8.1053694e-04
-7.5703448e-04
-6.7702359e-04
-5.7593048e-04
-4.6002538e-04
-3.3587713e-04
-2.0986700e-04
-8.7823961e-05
2.5239729e-05
1.2538742e-04
2.0998657e-04
2.7781013e-04
3.2899408e-04
3.6488021e-04
3.8777520e-04
4.0065681e-04
4.0685903e-04
4.0976719e-04
4.1254620e-04
4.1790845e-04
4.2791212e-04
4.4377477e-04
4.6569390e-04
4.9268174e-04
5.2244198e-04
5.5133397e-04
5.7447501e-04
5.8601512e-04
5.7958855e-04
5.4891401e-04
4.8849303e-04
3.9434139e-04
2.6467936e-04
1.0049861e-04
-9.4078190e-05
-3.1172004e-04
-5.4214022e-04
-7.7268551e-04
-9.8922275e-04
-1.1772437e-03
-1.3230832e-03
-1.4151342e-03
-1.4449464e-03
-1.4081038e-03
-1.3047915e-03
-1.1399780e-03
-9.2316864e-04
-6.6773610e-04
-3.8986262e-04
-1.0717260e-04
1.6276590e-04
4.0389616e-04
6.0297178e-04
7.5058388e-04
8.4180859e-04
8.7641304e-04
8.5861584e-04
7.9645312e-04
7.0084259e-04
5.8446014e-04
4.6054733e-04
3.4176075e-04
2.3915967e-04
1.6140982e-04
1.1425747e-04
1.0029835e-04
1.1903470e-04
1.6718331e-04
2.3917284e-04
3.2775724e-04
4.2467407e-04
5.2128865e-04
6.0917795e-04
6.8062119e-04
7.2897880e-04
7.4895678e-04
7.3676636e-04
6.9019787e-04
6.0863581e-04
4.9304616e-04
3.4596043e-04
1.7146110e-04
-2.4852643e-05
-2.3595954e-04
-4.5361398e-04
-6.6867601e-04
-8.7157857e-04
-1.0529179e-03
-1.2041123e-03
-1.3180135e-03
-1.3893744e-03
-1.4151397e-03
-1.3945324e-03
-1.3289305e-03
-1.2215695e-03
-1.0771380e-03
-9.0134146e-04
-7.0050059e-04
-4.8122832e-04
-2.5020490e-04
-1.4045223e-05
2.2076375e-04
4.4788600e-04
6.6114987e-04
8.5457636e-04
1.0224398e-03
1.1593718e-03
1.2605162e-03
1.3217330e-03
1.3398458e-03
1.3129131e-03
1.2405001e-03
1.1239171e-03
9.6638624e-04
7.7309985e-04
5.5114069e-04
3.0925158e-04
5.7457485e-05
-1.9344093e-04
-4.3247147e-04
-6.4915043e-04
-8.3414616e-04
-9.7988696e-04
-1.0810545e-03
-1.1349120e-03
-1.1414337e-03
-1.1032299e-03
-1.0253027e-03
-9.1466441e-04
-7.7970614e-04
-6.2927397e-04
-4.7171116e-04
-3.1412681e-04
-1.6197014e-04
-1.8913850e-05
1.1298800e-04
2.3292938e-04
3.4084838e-04
4.3688042e-04
5.2086368e-04
5.9198598e-04
6.4863854e-04
6.8850396e-04
7.0886034e-04
7.0704364e-04
6.8098528e-04
6.2973339e-04
5.5387391e-04
4.5578453e-04
3.3967494e-04
2.1138882e-04
7.7972052e-05
-5.2953363e-05
-1.7393663e-04
-2.7847089e-04
-3.6168555e-04
-4.2085850e-04
-4.5567162e-04
-4.6816970e-04
-4.6242261e-04
-4.4392577e-04
-4.1880322e-04
-3.9290666e-04
-3.7093261e-04
-3.5569692e-04
-3.4769682e-04
-3.4504779e-04
-3.4382418e-04
-3.3872591e-04
-3.2391065e-04
-2.9389416e-04
-2.4445787e-04
-1.7343890e-04
-8.1268699e-05
2.8830291e-05
1.5103244e-04
2.7746690e-04
3.9907486e-04
5.0664871e-04
5.9191013e-04
6.4848120e-04
6.7262195e-04
6.6364153e-04
6.2393602e-04
5.5865917e-04
4.7508602e-04
3.8177103e-04
2.8762286e-04
2.0101442e-04
1.2902451e-04
7.6873954e-05
4.7586461e-05
4.1876395e-05
5.8245193e-05
9.3250281e-05
1.4189663e-04
1.9809515e-04
2.5513808e-04
3.0615731e-04
3.4455054e-04
3.6437497e-04
3.6071246e-04
3.3000503e-04
2.7034834e-04
1.8172114e-04
6.6121968e-05
-7.2417844e-05
-2.2797127e-04
-3.9301384e-04
-5.5884065e-04
-7.1605381e-04
-8.5514536e-04
-9.6718437e-04
-1.0445444e-03
-1.0815819e-03
-1.0751766e-03
-1.0250658e-03
-9.3393183e-04
-8.0723291e-04
-6.5279508e-04
-4.8019985e-04
-3.0001933e-04
-1.2295886e-04
4.1023405e-05
1.8354670e-04
2.9851378e-04
3.8262388e-04
4.3563343e-04
4.6032399e-04
4.6216507e-04
4.4869471e-04
4.2867323e-04
4.1108934e-04
4.0411203e-04
4.1408934e-04
4.4469741e-04
4.9633808e-04
5.6586701e-04
6.4670458e-04
7.2934280e-04
8.0221597e-04
8.5285706e-04
8.6922112e-04
8.4103086e-04
7.6099213e-04
6.2573737e-04
4.3638082e-04
1.9860205e-04
-7.7706746e-05
-3.7901710e-04
-6.8885790e-04
-9.8875991e-04
-1.2595100e-03
-1.4826133e-03
-1.6418237e-03
-1.7245933e-03
-1.7232969e-03
-1.6361041e-03
-1.4673935e-03
-1.2276355e-03
-9.3270779e-04
-6.0266639e-04
-2.6005868e-04
7.2068822e-05
3.7226320e-04
6.2262668e-04
8.1042456e-04
9.2915972e-04
9.7900049e-04
9.6652549e-04
9.0382269e-04
8.0704354e-04
6.9456453e-04
5.8494746e-04
4.9491433e-04
4.3755635e-04
4.2097471e-04
4.4750380e-04
5.1360279e-04
6.1042501e-04
7.2499642e-04
8.4186042e-04
9.4498595e-04
1.0196969e-03
1.0543718e-03
1.0416909e-03
9.7927982e-04
8.6968196e-04
7.1974650e-04
5.3954685e-04
3.4089825e-04
1.3572681e-04
-6.5357777e-05
-2.5406954e-04
-4.2493785e-04
-5.7528125e-04
-7.0474299e-04
-8.1452417e-04
-9.0647995e-04
-9.8224714e-04
-1.0425511e-03
-1.0867974e-03
-1.1130005e-03
-1.1180423e-03
-1.0982020e-03
-1.0498586e-03
-9.7024832e-04
-8.5815867e-04
-7.1446168e-04
-5.4241732e-04
-3.4770984e-04
-1.3821308e-04
7.6487905e-05
2.8576260e-04
4.7870954e-04
6.4495141e-04
7.7536903e-04
8.6271169e-04
9.0204558e-04
8.9102514e-04
8.2998890e-04
7.2189241e-04
5.7209763e-04
3.8804517e-04
1.7884040e-04
-4.5213947e-05
-2.7310965e-04
-4.9360639e-04
-6.9568514e-04
-8.6907656e-04
-1.0048901e-03
-1.0962216e-03
-1.1386257e-03
-1.1304055e-03
-1.0727034e-03
-9.6938244e-04
-8.2670702e-04
-6.5284649e-04
-4.5725015e-04
-2.4996024e-04
-4.0935598e-05
1.6055220e-04
3.4640933e-04
5.1007619e-04
6.4674555e-04
7.5344924e-04
8.2902850e-04
8.7400930e-04
8.9040497e-04
8.8146446e-04
8.5137741e-04
8.0494399e-04
7.4721884e-04
6.8314435e-04
6.1719473e-04
5.5305756e-04
4.9338045e-04
4.3960872e-04
3.9193284e-04
3.4935299e-04
3.0985355e-04
2.7066761e-04
2.2860362e-04
1.8040483e-04
1.2311404e-04
5.4417737e-05
-2.7055541e-05
-1.2151920e-04
-2.2789821e-04
-3.4374097e-04
-4.6519976e-04
-5.8715039e-04
-7.0345801e-04
-8.0736782e-04
-8.9199636e-04
-9.5088390e-04
-9.7855834e-04
-9.7105778e-04
-9.2635920e-04
-8.4466349e-04
-7.2849581e-04
-5.8259759e-04
-4.1360994e-04
-2.2957400e-04
-3.9297200e-05
1.4834742e-04
3.2511014e-04
4.8396255e-04
6.1953712e-04
7.2836450e-04
8.0889454e-04
8.6131680e-04
8.8722174e-04
8.8916228e-04
8.7018378e-04
8.3338896e-04
7.8159362e-04
7.1711237e-04
6.4169211e-04
5.5658721e-04
4.6274746e-04
3.6107102e-04
2.5266480e-04
1.3905563e-04
2.2306397e-05
-9.4992148e-05
-2.0986000e-04
-3.1918276e-04
-4.2000860e-04
-5.0979513e-04
-5.8660034e-04
-6.4921450e-04
-6.9718576e-04
-7.3072241e-04
-7.5049314e-04
-7.5736819e-04
-7.5215503e-04
-7.3538248e-04
-7.0717643e-04
-6.6725300e-04
-6.1503359e-04
-5.4986292e-04
-4.7129246e-04
-3.7938053e-04
-2.7495962e-04
-1.5982511e-04
-3.6808124e-05
9.0292147e-05
2.1692284e-04
3.3812248e-04
4.4895661e-04
5.4498399e-04
6.2268349e-04
6.7977534e-04
7.1538584e-04
7.3003001e-04
7.2541802e-04
7.0412013e-04
6.6914681e-04
6.2351129e-04
5.6983978e-04
5.1008255e-04
4.4536125e-04
3.7596822e-04
3.0151405e-04
2.2119987e-04
1.3417384e-04
3.9915240e-05
-6.1422199e-05
-1.6877360e-04
-2.8007306e-04
-3.9230405e-04
-5.0165435e-04
-6.0374897e-04
-6.9394171e-04
-7.6764150e-04
-8.2064992e-04
-8.4948892e-04
-8.5170063e-04
-8.2610127e-04
-7.7296880e-04
-6.9414222e-04
-5.9301030e-04
-4.7437251e-04
-3.4416545e-04
-2.0906466e-04
-7.5989701e-05
4.8443365e-05
1.5847048e-04
2.4967616e-04
3.1938791e-04
3.6692333e-04
3.9365496e-04
4.0287247e-04
3.9944125e-04
3.8927933e-04
3.7870114e-04
3.7370024e-04
3.7925591e-04
3.9874432e-04
4.3352014e-04
4.8271556e-04
5.4328267e-04
6.1027836e-04
6.7735877e-04
7.3742190e-04
7.8332027e-04
8.0855591e-04
8.0787423e-04
7.7769908e-04
7.1638629e-04
6.2430428e-04
5.0375855e-04
3.5878204e-04
1.9482032e-04
1.8340733e-05
-1.6360557e-04
-3.4383627e-04
-5.1546992e-04
-6.7230310e-04
-8.0910776e-04
-9.2183819e-04
-1.0077492e-03
-1.0654342e-03
-1.0947933e-03
-1.0969397e-03
-1.0740488e-03
-1.0291504e-03
-9.6587083e-04
-8.8813284e-04
-7.9983253e-04
-7.0451438e-04
-6.0507290e-04
-5.0352024e-04
-4.0086816e-04
-2.9716517e-04
-1.9170213e-04
-8.3363287e-05
2.8931665e-05
1.4576740e-04
2.6683434e-04
3.9066491e-04
5.1455801e-04
6.3471132e-04
7.4653743e-04
8.4509895e-04
9.2557429e-04
9.8367362e-04
1.0159853e-03
1.0202679e-03
9.9564782e-04
9.4266327e-04
8.6315257e-04
7.6003715e-04
6.3705657e-04
4.9850244e-04
3.4898278e-04
1.9323444e-04
3.5986526e-05
-1.1813966e-04
-2.6472156e-04
-3.9964258e-04
-5.1922533e-04
-6.2038180e-04
-7.0076120e-04
-7.5887502e-04
-7.9418136e-04
-8.0711339e-04
-7.9904033e-04
-7.7215597e-04
-7.2929849e-04
-6.7371471e-04
-6.0878900e-04
-5.3776142e-04
-4.6345957e-04
-3.8806622e-04
-3.1294296e-04
-2.3853265e-04
-1.6436629e-04
-8.9197374e-05
-1.1270287e-05
7.1299001e-05
1.6008221e-04
2.5590817e-04
3.5851208e-04
4.6631854e-04
5.7638687e-04
6.8451949e-04
7.8554869e-04
8.7383079e-04
9.4387412e-04
9.9094100e-04
1.0115102e-03
1.0035582e-03
9.6665608e-04
9.0190141e-04
8.1172144e-04
6.9959019e-04
5.6969877e-04
4.2661273e-04
2.7494983e-04
1.1911535e-04
-3.6869605e-05
-1.8942732e-04
-3.3537743e-04
-4.7182030e-04
-5.9600074e-04
-7.0520176e-04
-7.9670478e-04
-8.6783425e-04
-9.1608646e-04
-9.3932423e-04
-9.3600691e-04
-9.0542044e-04
-8.4787391e-04
-7.6483130e-04
-6.5895138e-04
-5.3401757e-04
-3.9475492e-04
-2.4654952e-04
-9.5101847e-05
5.3944331e-05
1.9535279e-04
3.2458553e-04
4.3800276e-04
5.3295433e-04
6.0775816e-04
6.6159469e-04
6.9441266e-04
7.0690881e-04
7.0052073e-04
6.7736462e-04
6.4010365e-04
5.9175471e-04
5.3545301e-04
4.7419513e-04
4.1058236e-04
3.4658837e-04
2.8337631e-04
2.2118906e-04
1.5933180e-04
9.6261072e-05
2.9788845e-05
-4.2599201e-05
-1.2332963e-04
-2.1427315e-04
-3.1628434e-04
-4.2882037e-04
-5.4970485e-04
-6.7508632e-04
-7.9961388e-04
-9.1682183e-04
-1.0196851e-03
-1.1012822e-03
-1.1554827e-03
-1.1775695e-03
-1.1647118e-03
-1.1162284e-03
-1.0336114e-03
-9.2031895e-04
-7.8137718e-04
-6.2285787e-04
-4.5130764e-04
-2.7320106e-04
-9.4474117e-05
7.9825426e-05
2.4575436e-04
4.0056722e-04
5.4268069e-04
6.7148503e-04
7.8704829e-04
8.8978639e-04
9.8012901e-04
1.0582069e-03
1.1235943e-03
1.1751345e-03
1.2108721e-03
1.2281058e-03
1.2235656e-03
1.1937068e-03
1.1350989e-03
1.0448797e-03
9.2123299e-04
7.6383983e-04
5.7424888e-04
3.5611107e-04
1.1523815e-04
-1.4053695e-04
-4.0170033e-04
-6.5758098e-04
-8.9701986e-04
-1.1091260e-03
-1.2840482e-03
-1.4136890e-03
-1.4922918e-03
-1.5168431e-03
-1.4872489e-03
-1.4062679e-03
-1.2792111e-03
-1.1134466e-03
-9.1776444e-04
-7.0166604e-04
-4.7464843e-04
-2.4554987e-04
-2.2022270e-05
1.8981826e-04
3.8553380e-04
5.6229704e-04
7.1867526e-04
8.5437247e-04
9.6995839e-04
1.0665457e-03
1.1454098e-03
1.2075890e-03
1.2535179e-03
1.2827483e-03
1.2938108e-03
1.2842579e-03
1.2509014e-03
1.1902203e-03
1.0988851e-03
9.7432832e-04
8.1528895e-04
6.2226630e-04
3.9783009e-04
1.4675095e-04
-1.2406736e-04
-4.0585368e-04
-6.8841583e-04
-9.6073313e-04
-1.2116431e-03
-1.4305578e-03
-1.6081424e-03
-1.7368997e-03
-1.8116120e-03
-1.8296124e-03
-1.7908672e-03
-1.6978769e-03
-1.5554163e-03
-1.3701474e-03
-1.1501416e-03
-9.0434706e-04
-6.4204367e-04
-3.7232603e-04
-1.0365911e-04
1.5645969e-04
4.0171118e-04
6.2705105e-04
8.2873564e-04
1.0042671e-03
1.1522285e-03
1.2720573e-03
1.3638138e-03
1.4279656e-03
1.4652066e-03
1.4763240e-03
1.4621213e-03
1.4234005e-03
1.3609996e-03
1.2758753e-03
1.1692104e-03
1.0425255e-03
8.9777663e-04
7.3742396e-04
5.6446526e-04
3.8242401e-04
1.9528310e-04
7.3588517e-06
-1.7687994e-04
-3.5303144e-04
-5.1699396e-04
-6.6518541e-04
-7.9472275e-04
-9.0353928e-04
-9.9042571e-04
-1.0549927e-03
-1.0975661e-03
-1.1190355e-03
-1.1206870e-03
-1.1040452e-03
-1.0707498e-03
-1.0224718e-03
-9.6086894e-04
-8.8757080e-04
-8.0418246e-04
-7.1230298e-04
-6.1356076e-04
-5.0966891e-04
-4.0245362e-04
-2.9374357e-04
-1.8510915e-04
-7.7623068e-05
2.8212571e-05
1.3235594e-04
2.3497093e-04
3.3608936e-04
4.3526476e-04
5.3129512e-04
6.2208090e-04
7.0465665e-04
7.7539637e-04
8.3035598e-04
8.6568961e-04
8.7806595e-04
8.6501765e-04
8.2518003e-04
7.5840395e-04
6.6575131e-04
5.4939503e-04
4.1245386e-04
2.5879833e-04
9.2865202e-05
-8.0488403e-05
-2.5607487e-04
-4.2841328e-04
-5.9173811e-04
-7.4001836e-04
-8.6703118e-04
-9.6652661e-04
-1.0325046e-03
-1.0596053e-03
-1.0435908e-03
-9.8187082e-04
-8.7400048e-04
-7.2206326e-04
-5.3085389e-04
-3.0779255e-04
-6.2543089e-05
1.9360476e-04
4.4844491e-04
6.8957848e-04
9.0517286e-04
1.0847300e-03
1.2197841e-03
1.3044619e-03
1.3358511e-03
1.3141455e-03
1.2425460e-03
1.1269267e-03
9.7529079e-04
7.9707262e-04
6.0235557e-04
4.0109024e-04
2.0239087e-04
1.3974938e-05
-1.5821190e-04
-3.1016829e-04
-4.3981304e-04
-5.4679087e-04
-6.3214901e-04
-6.9793270e-04
-7.4674830e-04
-7.8133885e-04
-8.0420942e-04
-8.1732909e-04
-8.2192673e-04
-8.1839293e-04
-8.0629971e-04
-7.8454362e-04
-7.5160298e-04
-7.0587937e-04
-6.4607591e-04
-5.7155736e-04
-4.8263777e-04
-3.8074964e-04
-2.6846288e-04
-1.4934446e-04
-2.7679291e-05
9.1922937e-05
2.0502948e-04
3.0793528e-04
3.9810817e-04
4.7439595e-04
5.3696147e-04
5.8698531e-04
6.2621832e-04
6.5648691e-04
6.7924911e-04
6.9527619e-04
7.0450329e-04
7.0605794e-04
6.9844280e-04
6.7982361e-04
6.4836175e-04
6.0253453e-04
5.4139947e-04
4.6477538e-04
3.7332873e-04
2.6856912e-04
1.5276980e-04
2.8835725e-05
-9.9857788e-05
-2.2963488e-04
-3.5668128e-04
-4.7718975e-04
-5.8748806e-04
-6.8415511e-04
-7.6413208e-04
-8.2483371e-04
-8.6426052e-04
-8.8110783e-04
-8.7486167e-04
-8.4586505e-04
-7.9533376e-04
-7.2530152e-04
-6.3848519e-04
-5.3807927e-04
-4.2750787e-04
-3.1019540e-04
-1.8940189e-04
-6.8097957e-05
5.1132313e-05
1.6612689e-04
2.7510704e-04
3.7658008e-04
4.6921058e-04
5.5169192e-04
6.2264879e-04
6.8059642e-04
7.2397393e-04
7.5125504e-04
7.6112174e-04
7.5267076e-04
7.2561521e-04
6.8044362e-04
6.1850408e-04
5.4199050e-04
4.5382487e-04
3.5745099e-04
2.5657473e-04
1.5489456e-04
5.5860289e-05
-3.7515136e-05
-1.2277957e-04
-1.9809978e-04
-2.6225803e-04
-3.1459745e-04
-3.5493328e-04
-3.8345274e-04
-4.0062544e-04
-4.0714090e-04
-4.0388300e-04
-3.9194329e-04
-3.7266448e-04
-3.4769199e-04
-3.1900214e-04
-2.8887383e-04
-2.5978765e-04
-2.3421848e-04
-2.1430005e-04
-2.0144660e-04
-1.9602837e-04
-1.9713978e-04
-2.0251128e-04
-2.0861742e-04
-2.1099699e-04
-2.0475926e-04
-1.8521762e-04
-1.4856936e-04
-9.2528067e-05
-1.6812526e-05
7.6589368e-05
1.8343340e-04
2.9751853e-04
4.1124034e-04
5.1632935e-04
6.0467961e-04
6.6916154e-04
7.0431853e-04
7.0687042e-04
6.7598195e-04
6.1329074e-04
5.2271872e-04
4.1010808e-04
2.8272995e-04
1.4871396e-04
1.6443412e-05
-1.0604536e-04
-2.1163050e-04
-2.9461645e-04
-3.5116822e-04
-3.7963913e-04
-3.8075342e-04
-3.5760078e-04
-3.1540760e-04
-2.6107371e-04
-2.0249559e-04
-1.4774058e-04
-1.0419362e-04
-7.7774047e-05
-7.2242390e-05
-8.8649326e-05
-1.2503483e-04
-1.7646148e-04
-2.3541708e-04
-2.9256909e-04
-3.3780068e-04
-3.6141450e-04
-3.5536137e-04
-3.1433881e-04
-2.3661283e-04
-1.2444750e-04
1.5923433e-05
1.7478647e-04
3.3984204e-04
4.9739150e-04
6.3367201e-04
7.3617957e-04
7.9482929e-04
8.0283075e-04
7.5720091e-04
6.5888870e-04
5.1253819e-04
3.2596206e-04
1.0942707e-04
-1.2513951e-04
-3.6493054e-04
-5.9696905e-04
-8.0872736e-04
-9.8866337e-04
-1.1266944e-03
-1.2146263e-03
-1.2465398e-03
-1.2191174e-03
-1.1318738e-03
-9.8724669e-04
-7.9051167e-04
-5.4951321e-04
-2.7429079e-04
2.3303955e-05
3.3005706e-04
6.3200563e-04
9.1516866e-04
1.1663052e-03
1.3736406e-03
1.5275110e-03
1.6208835e-03
1.6497146e-03
1.6131227e-03
1.5133608e-03
1.3555965e-03
1.1475266e-03
8.9886292e-04
6.2073411e-04
3.2504952e-04
2.3862893e-05
-2.7123108e-04
-5.4964246e-04
-8.0225342e-04
-1.0217886e-03
-1.2030704e-03
-1.3431419e-03
-1.4412461e-03
-1.4986504e-03
-1.5183211e-03
-1.5044591e-03
-1.4619325e-03
-1.3956582e-03
-1.3100094e-03
-1.2083389e-03
-1.0927028e-03
-9.6383781e-04
-8.2139912e-04
-6.6442151e-04
-4.9192700e-04
-3.0357942e-04
-1.0027816e-04
1.1542268e-04
3.3908636e-04
5.6432237e-04
7.8301520e-04
9.8594675e-04
1.1636627e-03
1.3074112e-03
1.4100347e-03
1.4667093e-03
1.4754503e-03
1.4373306e-03
1.3563903e-03
1.2392483e-03
1.0944667e-03
9.3174418e-04
7.6103771e-04
5.9171449e-04
4.3182816e-04
2.8758860e-04
1.6306143e-04
6.0097223e-05
-2.1539083e-05
-8.3886843e-05
-1.3041032e-04
-1.6557184e-04
-1.9439777e-04
-2.2206236e-04
-2.5349959e-04
-2.9304278e-04
-3.4409050e-04
-4.0880238e-04
-4.8783787e-04
-5.8016039e-04
-6.8293614e-04
-7.9155749e-04
-8.9981468e-04
-1.0002263e-03
-1.0845237e-03
-1.1442697e-03
-1.1715776e-03
-1.1598908e-03
-1.1047665e-03
-1.0045291e-03
-8.6064674e-04
-6.7779074e-04
-4.6359318e-04
-2.2812412e-04
1.6867757e-05
2.5888204e-04
4.8567200e-04
6.8622621e-04
8.5161996e-04
9.7564306e-04
1.0551406e-03
1.0900443e-03
1.0831141e-03
1.0394415e-03
9.6578786e-04
8.6984428e-04
7.5949769e-04
6.4217811e-04
5.2434311e-04
4.1113258e-04
3.0620571e-04
2.1174975e-04
1.2863095e-04
5.6646531e-05
-5.1637652e-06
-5.8184693e-05
-1.0390725e-04
-1.4365838e-04
-1.7840395e-04
-2.0863768e-04
-2.3435811e-04
-2.5512656e-04
-2.7019114e-04
-2.7865368e-04
-2.7965210e-04
-2.7253213e-04
-2.5698986e-04
-2.3318595e-04
-2.0185449e-04
-1.6436044e-04
-1.2261032e-04
-7.8839322e-05
-3.5369540e-05
5.6080448e-06
4.2201925e-05
7.2926155e-05
9.6743755e-05
1.1305602e-04
1.2165227e-04
1.2263819e-04
1.1636097e-04
1.0334569e-04
8.4251256e-05
5.9848788e-05
3.1020390e-05
-1.2285175e-06
-3.5755445e-05
-7.1279554e-05
-1.0640346e-04
-1.3966286e-04
-1.6960438e-04
-1.9489040e-04
-2.1442682e-04
-2.2750395e-04
-2.3393216e-04
-2.3414773e-04
-2.2926398e-04
-2.2104693e-04
-2.1180212e-04
-2.0416696e-04
-2.0081306e-04
-2.0407724e-04
-2.1555791e-04
-2.3573196e-04
-2.6365686e-04
-2.9681854e-04
-3.3116563e-04
-3.6133184e-04
-3.8103735e-04
-3.8370398e-04
-3.6326448e-04
-3.1501132e-04
-2.3632916e-04
-1.2722679e-04
9.3862915e-06
1.6771817e-04
3.3942449e-04
5.1423283e-04
6.8080542e-04
8.2774829e-04
9.4465355e-04
1.0230589e-03
1.0572228e-03
1.0446424e-03
9.8626952e-04
8.8641662e-04
7.5236850e-04
5.9374504e-04
4.2167905e-04
2.4788702e-04
8.3714729e-05
-6.0763456e-05
-1.7752160e-04
-2.6117492e-04
-3.0934016e-04
-3.2273411e-04
-3.0500388e-04
-2.6230697e-04
-2.0268078e-04
-1.3525981e-04
-6.9412299e-05
-1.3876259e-05
2.4025428e-05
3.9018286e-05
2.8300272e-05
-8.2819686e-06
-6.8321558e-05
-1.4720712e-04
-2.3869761e-04
-3.3556068e-04
-4.3014563e-04
-5.1491826e-04
-5.8300271e-04
-6.2869984e-04
-6.4793167e-04
-6.3856963e-04
-6.0061354e-04
-5.3619936e-04
-4.4942920e-04
-3.4603542e-04
-2.3290889e-04
-1.1753568e-04
-7.3947068e-06
9.0628960e-05
1.7076467e-04
2.2876834e-04
2.6219644e-04
2.7052605e-04
2.5511988e-04
2.1904768e-04
1.6678465e-04
1.0381314e-04
3.6160029e-05
-3.0090246e-05
-8.9261412e-05
-1.3648707e-04
-1.6801780e-04
-1.8141981e-04
-1.7566682e-04
-1.5113735e-04
-1.0953295e-04
-5.3729188e-05
1.2434496e-05
8.4421814e-05
1.5731423e-04
2.2615463e-04
2.8629318e-04
3.3370701e-04
3.6524896e-04
3.7877445e-04
3.7315316e-04
3.4821992e-04
3.0470993e-04
2.4419913e-04
1.6905070e-04
8.2356785e-05
-1.2142118e-05
-1.1017583e-04
-2.0710749e-04
-2.9813726e-04
-3.7853608e-04
-4.4389449e-04
-4.9036800e-04
-5.1489862e-04
-5.1539401e-04
-4.9085251e-04
-4.4143006e-04
-3.6845096e-04
-2.7436594e-04
-1.6265954e-04
-3.7706271e-05
9.5425405e-05
2.3121760e-04
3.6398450e-04
4.8817179e-04
5.9865045e-04
6.9098114e-04
7.6162914e-04
8.0811677e-04
8.2910755e-04
8.2442113e-04
7.9497962e-04
7.4268608e-04
6.7023978e-04
5.8089931e-04
4.7821172e-04
3.6573024e-04
2.4674325e-04
1.2406512e-04
-2.3078536e-08
-1.2367421e-04
-2.4530253e-04
-3.6338887e-04
-4.7629065e-04
-5.8209752e-04
-6.7856244e-04
-7.6311962e-04
-8.3298324e-04
-8.8530798e-04
-9.1738935e-04
-9.2688474e-04
-9.1204011e-04
-8.7190565e-04
-8.0651767e-04
-7.1701871e-04
-6.0568949e-04
-4.7587739e-04
-3.3182327e-04
-1.7840609e-04
-2.0837582e-05
1.3565556e-04
2.8612576e-04
4.2614731e-04
5.5199277e-04
6.6074108e-04
7.5032383e-04
8.1951813e-04
8.6789105e-04
8.9569744e-04
9.0373531e-04
8.9317087e-04
8.6535424e-04
8.2165208e-04
7.6332265e-04
6.9145438e-04
6.0697929e-04
5.1075863e-04
4.0372683e-04
2.8704571e-04
1.6222947e-04
3.1257803e-05
-1.0334883e-04
-2.3855647e-04
-3.7096136e-04
-4.9701870e-04
-6.1330370e-04
-7.1674672e-04
-8.0479721e-04
-8.7549432e-04
-9.2744724e-04
-9.5975008e-04
-9.7187023e-04
-9.6355334e-04
-9.3477989e-04
-8.8579009e-04
-8.1717007e-04
-7.2997193e-04
-6.2582961e-04
-5.0703378e-04
-3.7653891e-04
-2.3788968e-04
-9.5069021e-05
4.7716135e-05
1.8628622e-04
3.1674880e-04
4.3573723e-04
5.4059921e-04
6.2950963e-04
7.0149120e-04
7.5633929e-04
7.9446167e-04
8.1665632e-04
8.2385894e-04
8.1689695e-04
7.9628734e-04
7.6211073e-04
7.1398353e-04
6.5114836e-04
5.7268438e-04
4.7777688e-04
3.6597246e-04
2.3741857e-04
9.3109242e-05
-6.4889632e-05
-2.3328257e-04
-4.0748712e-04
-5.8169470e-04
-7.4905207e-04
-9.0195012e-04
-1.0323952e-03
-1.1324351e-03
-1.1946150e-03
-1.2124430e-03
-1.1808481e-03
-1.0966133e-03
-9.5876199e-04
-7.6887015e-04
-5.3127044e-04
-2.5311136e-04
5.5761854e-05
3.8312842e-04
7.1492114e-04
1.0359485e-03
1.3307735e-03
1.5846927e-03
1.7847428e-03
1.9206446e-03
1.9855926e-03
1.9768027e-03
1.8957457e-03
1.7480244e-03
1.5428892e-03
1.2924255e-03
1.0104877e-03
7.1148219e-04
4.0912633e-04
1.1532030e-04
-1.6073718e-04
-4.1315266e-04
-6.3963965e-04
-8.4134846e-04
-1.0221431e-03
-1.1874675e-03
-1.3429983e-03
-1.4932875e-03
-1.6405921e-03
-1.7840534e-03
-1.9193271e-03
-2.0387035e-03
-2.1316995e-03
-2.1860595e-03
-2.1890599e-03
-2.1289878e-03
-1.9966460e-03
-1.7867345e-03
-1.4989612e-03
-1.1387533e-03
-7.1746582e-04
-2.5202559e-04
2.3600490e-04
7.2189784e-04
1.1796575e-03
1.5841758e-03
1.9134332e-03
2.1505047e-03
2.2851349e-03
2.3146720e-03
2.2442178e-03
2.0859515e-03
1.8577120e-03
1.5810305e-03
1.2788836e-03
9.7345325e-04
6.8415709e-04
4.2615756e-04
2.0948556e-04
3.8827336e-05
-8.6056363e-05
-1.6946012e-04
-2.1867176e-04
-2.4282000e-04
-2.5168383e-04
-2.5460916e-04
-2.5964995e-04
-2.7297266e-04
-2.9851741e-04
-3.3788508e-04
-3.9041288e-04
-4.5340251e-04
-5.2246975e-04
-5.9198920e-04
-6.5561106e-04
-7.0682701e-04
-7.3955970e-04
-7.4874501e-04
-7.3086878e-04
-6.8441140e-04
-6.1014988e-04
-5.1127166e-04
-3.9326442e-04
-2.6356336e-04
-1.3096506e-04
-4.8537324e-06
1.0568085e-04
1.9273469e-04
2.5038824e-04
2.7531920e-04
2.6715494e-04
2.2851844e-04
1.6475735e-04
8.3386621e-05
-6.6877307e-06
-9.6068211e-05
-1.7578120e-04
-2.3810328e-04
-2.7720798e-04
-2.8956702e-04
-2.7406629e-04
-2.3188873e-04
-1.6625580e-04
-8.2021479e-05
1.4872340e-05
1.1798564e-04
2.2092882e-04
3.1781276e-04
4.0356978e-04
4.7413903e-04
5.2652857e-04
5.5877822e-04
5.6985646e-04
5.5952952e-04
5.2824017e-04
4.7702470e-04
4.0748127e-04
3.2178324e-04
2.2271389e-04
1.1368941e-04
-1.2622916e-06
-1.1759020e-04
-2.3038428e-04
-3.3460997e-04
-4.2539668e-04
-4.9835333e-04
-5.4987330e-04
-5.7738514e-04
-5.7951111e-04
-5.5611287e-04
-5.0822792e-04
-4.3792251e-04
-3.4809918e-04
-2.4229638e-04
-1.2450711e-04
9.7041456e-07
1.2965055e-04
2.5695915e-04
3.7833530e-04
4.8935848e-04
5.8591384e-04
6.6439031e-04
7.2187626e-04
7.5631102e-04
7.6658232e-04
7.5256956e-04
7.1512527e-04
6.5599175e-04
5.7765781e-04
4.8316651e-04
3.7589199e-04
2.5931109e-04
1.3680231e-04
1.1504122e-05
-1.1374452e-04
-2.3637567e-04
-3.5399009e-04
-4.6421274e-04
-5.6454878e-04
-6.5228501e-04
-7.2447595e-04
-7.7804052e-04
-8.0997392e-04
-8.1765273e-04
-7.9918682e-04
-7.5375822e-04
-6.8188671e-04
-5.8557228e-04
-4.6828311e-04
-3.3478174e-04
-1.9080888e-04
-4.2666368e-05
1.0324570e-04
2.4088032e-04
3.6493231e-04
4.7112624e-04
5.5638191e-04
6.1885244e-04
6.5784550e-04
6.7364961e-04
6.6731041e-04
6.4039744e-04
5.9478721e-04
5.3251574e-04
4.5572223e-04
3.6664720e-04
2.6765717e-04
1.6128273e-04
5.0256211e-05
-6.2465491e-05
-1.7370895e-04
-2.8013906e-04
-3.7836869e-04
-4.6511599e-04
-5.3738705e-04
-5.9265634e-04
-6.2902142e-04
-6.4531642e-04
-6.4117559e-04
-6.1704290e-04
-5.7412772e-04
-5.1430982e-04
-4.4000049e-04
-3.5397171e-04
-2.5917042e-04
-1.5854120e-04
-5.4882967e-05
4.9238226e-05
1.5151025e-04
2.4983443e-04
3.4224016e-04
4.2677837e-04
5.0142208e-04
5.6400447e-04
6.1222090e-04
6.4370916e-04
6.5620527e-04
6.4775798e-04
6.1697615e-04
5.6328042e-04
4.8713668e-04
3.9021716e-04
2.7541025e-04
1.4669126e-04
8.9285146e-06
-1.3234467e-04
-2.7119208e-04
-4.0157265e-04
-5.1767295e-04
-6.1426120e-04
-6.8703389e-04
-7.3291425e-04
-7.5025938e-04
-7.3894419e-04
-7.0030877e-04
-6.3697769e-04
-5.5257959e-04
-4.5140934e-04
-3.3808134e-04
-2.1721991e-04
-9.3220623e-05
2.9903665e-05
1.4860022e-04
2.5980023e-04
3.6091475e-04
4.4982268e-04
5.2486079e-04
5.8481608e-04
6.2891412e-04
6.5679434e-04
6.6846748e-04
6.6426078e-04
6.4477056e-04
6.1084792e-04
5.6363234e-04
5.0462423e-04
4.3576426e-04
3.5948016e-04
2.7867360e-04
1.9664117e-04
1.1693142e-04
4.3133680e-05
-2.1414570e-05
-7.3982747e-05
-1.1278064e-04
-1.3719583e-04
-1.4791094e-04
-1.4689559e-04
-1.3727789e-04
-1.2310993e-04
-1.0904912e-04
-9.9981322e-05
-1.0061354e-04
-1.1506259e-04
-1.4646687e-04
-1.9665138e-04
-2.6588112e-04
-3.5273672e-04
-4.5413358e-04
-5.6548421e-04
-6.8098318e-04
-7.9398264e-04
-8.9742317e-04
-9.8428655e-04
-1.0480401e-03
-1.0830467e-03
-1.0849205e-03
-1.0508129e-03
-9.7961990e-04
-8.7209918e-04
-7.3088664e-04
-5.6039841e-04
-3.6661269e-04
-1.5673551e-04
6.1232356e-05
2.7899580e-04
4.8848831e-04
6.8236497e-04
8.5441493e-04
9.9985522e-04
1.1154908e-03
1.1997451e-03
1.2525709e-03
1.2752706e-03
1.2702633e-03
1.2407950e-03
1.1905984e-03
1.1235262e-03
1.0431945e-03
9.5267121e-04
8.5425176e-04
7.4935216e-04
6.3854062e-04
5.2170719e-04
3.9835266e-04
2.6795966e-04
1.3039528e-04
-1.3713256e-05
-1.6268621e-04
-3.1362863e-04
-4.6242691e-04
-6.0391403e-04
-7.3219223e-04
-8.4108422e-04
-9.2466994e-04
-9.7785531e-04
-9.9691493e-04
-9.7995270e-04
-9.2723161e-04
-8.4133362e-04
-7.2712219e-04
-5.9149317e-04
-4.4291691e-04
-2.9079697e-04
-1.4469874e-04
-1.3529801e-05
9.5226001e-05
1.7611583e-04
2.2607890e-04
2.4450835e-04
2.3300953e-04
1.9500735e-04
1.3544659e-04
6.0574022e-05
-2.2386334e-05
-1.0570747e-04
-1.8172324e-04
-2.4342387e-04
-2.8502382e-04
-3.0244306e-04
-2.9364664e-04
-2.5879831e-04
-2.0020433e-04
-1.2205182e-04
-2.9974538e-05
6.9499951e-05
1.6955671e-04
2.6368900e-04
3.4622542e-04
4.1274357e-04
4.6034070e-04
4.8774819e-04
4.9529102e-04
4.8470563e-04
4.5883997e-04
4.2127081e-04
3.7588306e-04
3.2646156e-04
2.7634414e-04
2.2817416e-04
1.8377204e-04
1.4412246e-04
1.0945409e-04
7.9376719e-05
5.3040809e-05
2.9294016e-05
6.8248944e-06
-1.5703350e-05
-3.9519315e-05
-6.5599708e-05
-9.4519428e-05
-1.2632762e-04
-1.6047998e-04
-1.9581476e-04
-2.3054336e-04
-2.6225401e-04
-2.8794652e-04
-3.0412077e-04
-3.0694263e-04
-2.9250448e-04
-2.5718273e-04
-1.9807427e-04
-1.1347426e-04
-3.3435937e-06
1.3029377e-04
2.8308709e-04
4.4828760e-04
6.1691358e-04
7.7816962e-04
9.2010791e-04
1.0304899e-03
1.0977767e-03
1.1121505e-03
1.0664504e-03
9.5691120e-04
7.8362196e-04
5.5065850e-04
2.6588962e-04
-5.9508324e-05
-4.1176521e-04
-7.7538065e-04
-1.1340538e-03
-1.4715998e-03
-1.7727841e-03
-2.0240227e-03
-2.2139213e-03
-2.3336521e-03
-2.3771891e-03
-2.3414353e-03
-2.2262729e-03
-2.0345649e-03
-1.7720618e-03
-1.4471267e-03
-1.0703209e-03
-6.5395550e-04
-2.1165366e-04
2.4207059e-04
6.9223742e-04
1.1238584e-03
1.5224480e-03
1.8745909e-03
2.1685385e-03
2.3947882e-03
2.5465842e-03
2.6202800e-03
2.6155141e-03
2.5351649e-03
2.3850835e-03
2.1736249e-03
1.9110229e-03
1.6086717e-03
1.2783817e-03
9.3168002e-04
5.7921343e-04
2.3030418e-04
-1.0730614e-04
-4.2750615e-04
-7.2566453e-04
-9.9831752e-04
-1.2427599e-03
-1.4566221e-03
-1.6375174e-03
-1.7828295e-03
-1.8896786e-03
-1.9550706e-03
-1.9761984e-03
-1.9508371e-03
-1.8777642e-03
-1.7571331e-03
-1.5907384e-03
-1.3821480e-03
-1.1366784e-03
-8.6123166e-04
-5.6409370e-04
-2.5469944e-04
5.6696045e-05
3.5944490e-04
6.4300231e-04
8.9744866e-04
1.1139899e-03
1.2853888e-03
1.4062902e-03
1.4734187e-03
1.4856464e-03
1.4439448e-03
1.3512473e-03
1.2122560e-03
1.0332243e-03
8.2173119e-04
5.8644503e-04
3.3685258e-04
8.2931488e-05
-1.6524553e-04
-3.9796140e-04
-6.0632536e-04
-7.8271696e-04
-9.2115633e-04
-1.0175644e-03
-1.0698912e-03
-1.0781076e-03
-1.0440651e-03
-9.7124502e-04
-8.6442629e-04
-7.2931877e-04
-5.7220875e-04
-3.9965671e-04
-2.1826900e-04
-3.4545426e-05
1.4521350e-04
3.1496922e-04
4.6899288e-04
6.0195961e-04
7.0915725e-04
7.8674037e-04
8.3197235e-04
8.4347906e-04
8.2149825e-04
7.6807064e-04
6.8711075e-04
5.8430456e-04
4.6680805e-04
3.4275494e-04
2.2061594e-04
1.0847651e-04
1.3317041e-05
-5.9614187e-05
-1.0725153e-04
-1.2892296e-04
-1.2629100e-04
-1.0303294e-04
-6.4311007e-05
-1.6117994e-05
3.5400204e-05
8.4552094e-05
1.2657033e-04
1.5790687e-04
1.7634691e-04
1.8096228e-04
1.7194601e-04
1.5037915e-04
1.1797732e-04
7.6851273e-05
2.9302434e-05
-2.2335934e-05
-7.5808145e-05
-1.2899850e-04
-1.7995642e-04
-2.2690254e-04
-2.6824072e-04
-3.0260008e-04
-3.2892392e-04
-3.4654564e-04
-3.5518605e-04
-3.5494674e-04
-3.4635100e-04
-3.3037124e-04
-3.0839849e-04
-2.8214784e-04
-2.5350688e-04
-2.2434275e-04
-1.9628722e-04
-1.7052176e-04
-1.4758585e-04
-1.2723332e-04
-1.0836263e-04
-8.9048128e-05
-6.6695890e-05
-3.8334829e-05
-1.0310083e-06
4.7612037e-05
1.0892402e-04
1.8267762e-04
2.6670830e-04
3.5671348e-04
4.4629274e-04
5.2727264e-04
5.9032636e-04
6.2585315e-04
6.2503579e-04
5.8095691e-04
4.8963426e-04
3.5083220e-04
1.6852411e-04
-4.9080735e-05
-2.8997565e-04
-5.3922611e-04
-7.8017632e-04
-9.9585334e-04
-1.1704053e-03
-1.2904106e-03
-1.3459059e-03
-1.3310400e-03
-1.2444175e-03
-1.0892243e-03
-8.7303749e-04
-6.0722637e-04
-3.0599847e-04
1.4788209e-05
3.3890531e-04
6.5098005e-04
9.3753633e-04
1.1877556e-03
1.3939087e-03
1.5514533e-03
1.6588267e-03
1.7169847e-03
1.7287608e-03
1.6981386e-03
1.6295452e-03
1.5272722e-03
1.3951015e-03
1.2361734e-03
1.0530816e-03
8.4813968e-04
6.2373959e-04
3.8271490e-04
1.2863395e-04
-1.3403144e-04
-3.9988655e-04
-6.6274081e-04
-9.1585449e-04
-1.1522632e-03
-1.3651320e-03
-1.5480974e-03
-1.6955673e-03
-1.8029701e-03
-1.8669530e-03
-1.8855406e-03
-1.8582641e-03
-1.7862664e-03
-1.6723905e-03
-1.5211538e-03
-1.3384426e-03
-1.1309868e-03
-9.0581104e-04
-6.6976992e-04
-4.2920251e-04
-1.8972434e-04
4.3844848e-05
2.6743877e-04
4.7762238e-04
6.7142919e-04
8.4619328e-04
9.9940226e-04
1.1285899e-03
1.2312832e-03
1.3050192e-03
1.3474425e-03
1.3564900e-03
1.3306535e-03
1.2693001e-03
1.1730120e-03
1.0438956e-03
8.8579835e-04
7.0437388e-04
5.0695415e-04
3.0221623e-04
9.9668343e-05
-9.0990478e-05
-2.6056300e-04
-4.0102059e-04
-5.0607878e-04
-5.7164018e-04
-5.9608559e-04
-5.8040425e-04
-5.2815539e-04
-4.4525397e-04
-3.3958069e-04
-2.2043182e-04
-9.7846219e-05
1.8110589e-05
1.1805464e-04
1.9404004e-04
2.4033509e-04
2.5401918e-04
2.3525013e-04
1.8717536e-04
1.1552263e-04
2.7946469e-05
-6.6770395e-05
-1.5955958e-04
-2.4186722e-04
-3.0634932e-04
-3.4742515e-04
-3.6167327e-04
-3.4806748e-04
-3.0805268e-04
-2.4545636e-04
-1.6622962e-04
-7.8017845e-05
1.0424329e-05
8.9941788e-05
1.5176444e-04
1.8831094e-04
1.9394432e-04
1.6560742e-04
1.0326667e-04
1.0103271e-05
-1.0758803e-04
-2.4080514e-04
-3.7853229e-04
-5.0867223e-04
-6.1913750e-04
-6.9899569e-04
-7.3954909e-04
-7.3522847e-04
-6.8419563e-04
-5.8857789e-04
-4.5429498e-04
-2.9048220e-04
-1.0855946e-04
7.8918887e-05
2.5945529e-04
4.2174514e-04
5.5668154e-04
6.5810440e-04
7.2320041e-04
7.5252245e-04
7.4964975e-04
7.2055405e-04
6.7276495e-04
6.1443593e-04
5.5340897e-04
4.9636659e-04
4.4814880e-04
4.1129604e-04
3.8585901e-04
3.6949106e-04
3.5781336e-04
3.4501830e-04
3.2465297e-04
2.9050204e-04
2.3747407e-04
1.6239067e-04
6.4585648e-05
-5.3763009e-05
-1.8762204e-04
-3.2943583e-04
-4.6978581e-04
-5.9831311e-04
-7.0480058e-04
-7.8028425e-04
-8.1805571e-04
-8.1442568e-04
-7.6914576e-04
-6.8543242e-04
-5.6959731e-04
-4.3034939e-04
-2.7788273e-04
-1.2288661e-04
2.4375586e-05
1.5485226e-04
2.6138439e-04
3.3922382e-04
3.8626453e-04
4.0296041e-04
3.9198544e-04
3.5771873e-04
3.0564473e-04
2.4174963e-04
1.7197670e-04
1.0178136e-04
3.5807816e-05
-2.2306354e-05
-7.0001774e-05
-1.0575975e-04
-1.2898258e-04
-1.3983033e-04
-1.3905558e-04
-1.2786751e-04
-1.0783648e-04
-8.0829798e-05
-4.8956360e-05
-1.4496515e-05
2.0199721e-05
5.2850861e-05
8.1410303e-05
1.0424115e-04
1.2027202e-04
1.2910379e-04
1.3104127e-04
1.2703429e-04
1.1852846e-04
1.0724375e-04
9.4915248e-05
8.3039782e-05
7.2672945e-05
6.4311594e-05
5.7880421e-05
5.2820172e-05
