2.2618679e+02 6.6044375e+02 7.2873660e+02 3.5207148e+02 -2.0752512e+02 -6.8676505e+02 -9.7788379e+02 -1.0899478e+03 -1.1021615e+03 -1.0770227e+03 -1.0626115e+03 -1.0747877e+03 -1.1053319e+03 -1.1526113e+03 -1.2133968e+03 -1.2436240e+03 -1.1389515e+03 -7.3842197e+02 4.8478431e+00 1.0061599e+03 1.9721860e+03 2.5838235e+03 2.7083069e+03 2.3489498e+03 1.7138799e+03 1.0101053e+03 4.2824781e+02 -4.2116185e+01 -3.8418600e+02 -6.3709724e+02 -8.3867698e+02 -1.0071800e+03 -1.1668495e+03 -1.3139659e+03 -1.4579240e+03 -1.5563675e+03 -1.5154521e+03 -1.1846682e+03 -5.0708963e+02 4.3583931e+02 1.4012948e+03 2.0571334e+03 2.2492944e+03 1.9652157e+03 1.4136670e+03 8.0066988e+02 2.8302460e+02 -8.6574698e+01 -3.4941253e+02 -5.5055907e+02 -7.2714216e+02 -8.8777491e+02 -1.0408716e+03 -1.1948029e+03 -1.3449097e+03 -1.4520779e+03 -1.4286297e+03 -1.1287530e+03 -4.6631122e+02 4.8408215e+02 1.4697563e+03 2.1669172e+03 2.3959967e+03 2.1137588e+03 1.5113468e+03 8.0055076e+02 1.6695899e+02 -2.9806819e+02 -6.1480458e+02 -8.2549666e+02 -9.8776160e+02 -1.1362389e+03 -1.2854024e+03 -1.4281247e+03 -1.5122166e+03 -1.4174527e+03 -1.0293448e+03 -2.7808649e+02 7.0226993e+02 1.6319487e+03 2.2246300e+03 2.2944659e+03 1.9206039e+03 1.2680077e+03 5.7556206e+02 6.0499934e+00 -3.9737060e+02 -6.5448770e+02 -8.3410613e+02 -9.8501343e+02 -1.1381240e+03 -1.3092516e+03 -1.4679242e+03 -1.5247670e+03 -1.3550868e+03 -8.1483832e+02 6.6183377e+01 1.0899699e+03 1.9265426e+03 2.2829628e+03 2.1261969e+03 1.5623597e+03 8.5080735e+02 2.0253344e+02 -2.7156408e+02 -5.5998434e+02 -7.3260872e+02 -8.4850836e+02 -9.5742356e+02 -1.0827206e+03 -1.2252460e+03 -1.3414281e+03 -1.3394465e+03 -1.0698094e+03 -4.5939708e+02 4.5582457e+02 1.4110590e+03 2.0666924e+03 2.2495442e+03 1.9274655e+03 1.3081106e+03 6.1094322e+02 9.8932757e+00 -4.0378869e+02 -6.7125300e+02 -8.4432258e+02 -9.8242570e+02 -1.1176842e+03 -1.2553581e+03 -1.3905270e+03 -1.4540633e+03 -1.3165879e+03 -8.6230996e+02 -4.9104201e+01 9.5045077e+02 1.8628067e+03 2.3218985e+03 2.2424356e+03 1.7570174e+03 1.0625191e+03 3.8548078e+02 -1.3479713e+02 -4.8855465e+02 -7.0629875e+02 -8.5517698e+02 -9.7534289e+02 -1.0945943e+03 -1.2281383e+03 -1.3693155e+03 -1.4686727e+03 -1.4261998e+03 -1.0844256e+03 -3.7892812e+02 6.2097615e+02 1.6043187e+03 2.2842511e+03 2.4594124e+03 2.1101206e+03 1.4543447e+03 7.2188165e+02 8.6207970e+01 -3.3980136e+02 -6.0777603e+02 -7.7127567e+02 -8.9067870e+02 -9.9822948e+02 -1.1142701e+03 -1.2466044e+03 -1.3805972e+03 -1.4417110e+03 -1.3110645e+03 -8.3496866e+02 -1.5907393e+01 9.8628979e+02 1.8442531e+03 2.2562018e+03 2.1651345e+03 1.6597101e+03 9.9172280e+02 3.6892230e+02 -1.0082114e+02 -4.0264626e+02 -6.0181762e+02 -7.5154285e+02 -8.9073779e+02 -1.0355745e+03 -1.1881253e+03 -1.3311762e+03 -1.4059718e+03 -1.2868820e+03 -8.6523745e+02 -8.3933014e+01 8.7959327e+02 1.7519829e+03 2.2540202e+03 2.2301559e+03 1.7929581e+03 1.1240399e+03 4.5035192e+02 -9.4304772e+01 -4.6320231e+02 -6.9734496e+02 -8.5827501e+02 -9.8169018e+02 -1.0921046e+03 -1.2006019e+03 -1.3166300e+03 -1.4116110e+03 -1.4122775e+03 -1.1766471e+03 -6.1236948e+02 2.9549247e+02 1.3112112e+03 2.1015240e+03 2.4518136e+03 2.2812606e+03 1.7534292e+03 1.0715040e+03 4.3838590e+02 -4.6940440e+01 -3.8577942e+02 -6.1426360e+02 -7.8442059e+02 -9.1794312e+02 -1.0298395e+03 -1.1293055e+03 -1.2344086e+03 -1.3506594e+03 -1.4428459e+03 -1.4045983e+03 -1.1037552e+03 -4.4654746e+02 5.1074790e+02 1.5000864e+03 2.2009352e+03 2.3792602e+03 2.0833760e+03 1.4426081e+03 7.6416430e+02 1.9449627e+02 -2.1341569e+02 -4.7789708e+02 -6.5975854e+02 -7.9625720e+02 -9.1408970e+02 -1.0222926e+03 -1.1258623e+03 -1.2228387e+03 -1.2850487e+03 -1.2231476e+03 -9.1543991e+02 -2.8087103e+02 5.9652643e+02 1.4801064e+03 2.0821423e+03 2.2052316e+03 1.9092079e+03 1.3178334e+03 6.6372820e+02 1.0660795e+02 -3.0287149e+02 -5.7397922e+02 -7.6314826e+02 -9.0640066e+02 -1.0257146e+03 -1.1384416e+03 -1.2549253e+03 -1.3637677e+03 -1.4102322e+03 -1.2758010e+03 -8.4690843e+02 -6.0535737e+01 9.2348391e+02 1.8178737e+03 2.3528399e+03 2.3662656e+03 1.9610484e+03 1.3209056e+03 6.6795535e+02 1.4178032e+02 -2.3299843e+02 -4.8283893e+02 -6.5939173e+02 -8.0386068e+02 -9.2541767e+02 -1.0330795e+03 -1.1427809e+03 -1.2693541e+03 -1.4046266e+03 -1.4640929e+03 -1.3282419e+03 -8.4766467e+02 -3.5901245e+01 9.2894046e+02 1.7222368e+03 2.0522116e+03 1.8937091e+03 1.3520017e+03 7.1016399e+02 2.1102943e+02 -5.2651366e+01 -1.2123972e+02 -1.4198364e+02 -2.2472901e+02 -3.8757046e+02 -5.9152703e+02 -7.8221920e+02 -9.2594567e+02 -1.0024997e+03 -9.5373025e+02 -7.1542211e+02 -2.2887826e+02 4.2177579e+02 1.0573386e+03 1.4844926e+03 1.5520221e+03 1.3183247e+03 9.0029816e+02 4.5366748e+02 6.5191294e+01 -2.5530179e+02 -5.2640854e+02 -7.4510152e+02 -8.8584582e+02 -9.5115125e+02 -9.6832206e+02 -9.7526950e+02 -9.6263167e+02 -8.6033184e+02 -5.5771519e+02 -2.6110828e+01 6.4837341e+02 1.2540307e+03 1.5772535e+03 1.5665039e+03 1.2558193e+03 8.0552122e+02 3.4766230e+02 -4.4159074e+01 -3.5406880e+02 -5.9636764e+02 -7.7631419e+02 -9.0723792e+02 -1.0052035e+03 -1.0950816e+03 -1.1761385e+03 -1.1977683e+03 -1.0443986e+03 -6.2184143e+02 9.8791941e+01 9.5159175e+02 1.6767121e+03 2.0668942e+03 2.0160333e+03 1.6413621e+03 1.0956876e+03 5.4428030e+02 8.3595025e+01 -2.6784919e+02 -5.2320123e+02 -7.2224823e+02 -8.8353417e+02 -1.0255493e+03 -1.1586163e+03 -1.2797185e+03 -1.3436300e+03 -1.2584900e+03 -8.9480444e+02 -2.2680259e+02 6.2916200e+02 1.3906077e+03 1.7751986e+03 1.7152504e+03 1.2955487e+03 7.4697658e+02 2.5052643e+02 -1.1667336e+02 -3.5809890e+02 -5.3344848e+02 -6.8404006e+02 -8.3942839e+02 -1.0030054e+03 -1.1535100e+03 -1.2343620e+03 -1.1654552e+03 -8.3131794e+02 -2.1161849e+02 6.0036877e+02 1.3509455e+03 1.7703056e+03 1.7773751e+03 1.4338640e+03 9.7149947e+02 5.4665158e+02 2.1717970e+02 -3.8856693e+01 -2.7846106e+02 -5.3705405e+02 -8.3020686e+02 -1.1302473e+03 -1.3832842e+03 -1.4988749e+03 -1.3812673e+03 -9.2947305e+02 -1.8176819e+02 7.0024366e+02 1.4335171e+03 1.7760972e+03 1.7031661e+03 1.3060917e+03 7.9008970e+02 3.2262646e+02 -3.2897613e+01 -2.8434575e+02 -4.9032365e+02 -6.9821229e+02 -9.3300234e+02 -1.1733198e+03 -1.3625511e+03 -1.3866066e+03 -1.1256532e+03 -4.8188713e+02 4.5368900e+02 1.4169805e+03 2.1011264e+03 2.2373963e+03 1.8577457e+03 1.1339549e+03 3.5181802e+02 -2.7506275e+02 -6.8201253e+02 -8.9871205e+02 -1.0281099e+03 -1.1456282e+03 -1.2874312e+03 -1.4450918e+03 -1.5633327e+03 -1.5332331e+03 -1.2349598e+03 -5.6361949e+02 3.9824814e+02 1.4151302e+03 2.1744596e+03 2.4253278e+03 2.1663946e+03 1.5259183e+03 7.6603651e+02 1.0567777e+02 -3.5360030e+02 -6.2734988e+02 -8.0058553e+02 -9.4975613e+02 -1.1212164e+03 -1.3150370e+03 -1.4756924e+03 -1.4765108e+03 -1.1757420e+03 -4.6814443e+02 5.2758813e+02 1.5166576e+03 2.1582337e+03 2.2389407e+03 1.8394051e+03 1.1662139e+03 4.7813169e+02 -6.3840324e+01 -4.3001570e+02 -6.5713182e+02 -8.2589170e+02 -9.9613501e+02 -1.2038056e+03 -1.4552947e+03 -1.6993204e+03 -1.8009593e+03 -1.5841912e+03 -8.8042660e+02 2.2200193e+02 1.4327911e+03 2.3651498e+03 2.7437698e+03 2.5870492e+03 2.0570220e+03 1.3928212e+03 7.4621489e+02 1.7225851e+02 -3.3352464e+02 -7.9377248e+02 -1.2091372e+03 -1.6158709e+03 -1.9976467e+03 -2.3153051e+03 -2.4361477e+03 -2.1979175e+03 -1.3947820e+03 -1.7036829e+02 1.2031367e+03 2.3101144e+03 2.8251265e+03 2.7139290e+03 2.1166559e+03 1.3201035e+03 5.6191895e+02 -2.4837838e+01 -4.1925380e+02 -6.9500181e+02 -9.3047997e+02 -1.1866228e+03 -1.4796411e+03 -1.7665945e+03 -1.9319973e+03 -1.8176097e+03 -1.2557554e+03 -2.9093002e+02 8.9974873e+02 1.9307809e+03 2.4619891e+03 2.4085953e+03 1.8356537e+03 1.0060162e+03 1.6731306e+02 -4.8777823e+02 -8.5073817e+02 -9.4663916e+02 -8.6480005e+02 -7.7823172e+02 -8.4174351e+02 -1.0874097e+03 -1.3957195e+03 -1.5108013e+03 -1.1576733e+03 -3.1199444e+02 8.4681057e+02 1.8896773e+03 2.4688170e+03 2.5047596e+03 2.0641843e+03 1.3663073e+03 6.1185732e+02 -3.4583148e+01 -5.1217520e+02 -8.2540996e+02 -1.0386610e+03 -1.2433351e+03 -1.4815676e+03 -1.7149396e+03 -1.8070207e+03 -1.6101900e+03 -1.0057732e+03 -7.0384170e+01 9.6395987e+02 1.7858637e+03 2.1609089e+03 2.0763519e+03 1.6285027e+03 1.0335920e+03 4.5694372e+02 -3.0141142e+01 -4.3790689e+02 -7.9990623e+02 -1.1342397e+03 -1.4327852e+03 -1.6658030e+03 -1.7885503e+03 -1.7084614e+03 -1.3281664e+03 -5.6397185e+02 4.7472365e+02 1.5341940e+03 2.3074307e+03 2.5723946e+03 2.3393703e+03 1.7437125e+03 1.0088061e+03 3.0752880e+02 -2.6809587e+02 -6.9363305e+02 -9.9416267e+02 -1.2125055e+03 -1.3845537e+03 -1.5370546e+03 -1.6692560e+03 -1.7186251e+03 -1.5743135e+03 -1.0852432e+03 -2.5370151e+02 7.7623885e+02 1.6947698e+03 2.2087451e+03 2.2362435e+03 1.9361099e+03 1.3740352e+03 7.6442636e+02 2.1959668e+02 -2.2418053e+02 -5.7442741e+02 -8.7705721e+02 -1.1555370e+03 -1.3845688e+03 -1.5670602e+03 -1.6060652e+03 -1.3622737e+03 -7.1258418e+02 1.0664544e+02 1.2015263e+03 2.0873996e+03 2.4779692e+03 2.2993252e+03 1.6992232e+03 8.1992171e+02 1.0967506e+02 -4.4254499e+02 -8.3989360e+02 -1.1586468e+03 -1.4727457e+03 -1.8209607e+03 -2.1677484e+03 -2.3867559e+03 -2.2783374e+03 -1.7151482e+03 -6.8268405e+02 6.0425348e+02 1.8715437e+03 2.7883514e+03 3.1481573e+03 2.9004172e+03 2.1368054e+03 1.1396250e+03 1.9611376e+02 -5.5133364e+02 -1.0836911e+03 -1.4832758e+03 -1.7975716e+03 -1.9936143e+03 -1.9478968e+03 -1.5583193e+03 -8.0230385e+02 2.0247315e+02 1.2516014e+03 2.1024449e+03 2.5582174e+03 2.5806789e+03 2.2311016e+03 1.6748879e+03 1.0370956e+03 3.8802324e+02 -2.4689378e+02 -8.5102368e+02 -1.4146529e+03 -1.9317691e+03 -2.3713180e+03 -2.6431268e+03 -2.5835478e+03 -2.0754629e+03 -1.1346044e+03 2.9200140e+01 1.0429471e+03 1.6357142e+03 1.7228320e+03 1.4746837e+03 1.0905732e+03 7.3610430e+02 4.5846508e+02 2.2643446e+02 -4.6560930e+00 -2.7385178e+02 -5.9967325e+02 -9.5296415e+02 -1.2598902e+03 -1.3910281e+03 -1.1860300e+03 -5.8461731e+02 3.3149993e+02 1.2590196e+03 1.9018301e+03 2.0721944e+03 1.7674821e+03 1.1955857e+03 5.6603221e+02 3.1323735e+01 -3.5545572e+02 -6.2008884e+02 -8.1823193e+02 -1.0016378e+03 -1.1952719e+03 -1.3852725e+03 -1.4996842e+03 -1.4141957e+03 -9.9580606e+02 -2.3819065e+02 7.0635524e+02 1.5425772e+03 1.9996059e+03 2.0014996e+03 1.6150238e+03 1.0430180e+03 4.6378930e+02 -1.7534733e+01 -3.7898030e+02 -6.6217632e+02 -9.0639477e+02 -1.1453539e+03 -1.3799013e+03 -1.5678868e+03 -1.6052847e+03 -1.3704198e+03 -7.5199837e+02 1.6888025e+02 1.1568439e+03 1.9029287e+03 2.1809605e+03 1.9948836e+03 1.4622764e+03 8.2191704e+02 2.3402899e+02 -2.2499541e+02 -5.5557230e+02 -8.0751780e+02 -1.0153950e+03 -1.2294816e+03 -1.4371810e+03 -1.5946645e+03 -1.5890797e+03 -1.3002095e+03 -6.0064652e+02 3.8734006e+02 1.3840433e+03 2.0973444e+03 2.3220209e+03 2.0808740e+03 1.5190912e+03 8.6985477e+02 2.7695398e+02 -1.7995471e+02 -5.0375318e+02 -7.4819399e+02 -9.5883786e+02 -1.1734637e+03 -1.3884000e+03 -1.5729598e+03 -1.6303364e+03 -1.4261588e+03 -8.4260525e+02 6.3142532e+01 1.0430117e+03 1.8090478e+03 2.0837293e+03 1.8703994e+03 1.3158138e+03 6.6417299e+02 8.5036086e+01 -3.2845270e+02 -5.9309722e+02 -7.6661207e+02 -8.9999532e+02 -1.0282656e+03 -1.1533199e+03 -1.2383060e+03 -1.1875264e+03 -8.8781245e+02 -2.5711582e+02 6.1035184e+02 1.4744216e+03 2.0525990e+03 2.1390451e+03 1.7797328e+03 1.1335589e+03 4.2703553e+02 -1.7538592e+02 -6.1319381e+02 -9.2158743e+02 -1.1639240e+03 -1.3766634e+03 -1.5460177e+03 -1.6068691e+03 -1.4847735e+03 -1.1165448e+03 -4.6103099e+02 4.1269164e+02 1.2975361e+03 1.9325719e+03 2.1651658e+03 1.9251916e+03 1.3974478e+03 7.6394202e+02 1.8978340e+02 -2.4722668e+02 -5.6045818e+02 -7.9565874e+02 -1.0038688e+03 -1.2122904e+03 -1.4170779e+03 -1.5668369e+03 -1.5596253e+03 -1.2543733e+03 -5.9938571e+02 3.4998054e+02 1.3184901e+03 1.9906333e+03 2.1925289e+03 1.9159021e+03 1.3395062e+03 6.9139789e+02 1.2837624e+02 -2.8477353e+02 -5.7313405e+02 -7.8638207e+02 -9.7259554e+02 -1.1546968e+03 -1.3367496e+03 -1.4802931e+03 -1.5007329e+03 -1.2603960e+03 -6.7161399e+02 2.4738519e+02 1.2357376e+03 1.9819945e+03 2.2699539e+03 2.0598663e+03 1.5188268e+03 8.6127995e+02 2.6681739e+02 -1.7981781e+02 -4.8959170e+02 -7.0556544e+02 -8.7687397e+02 -1.0335041e+03 -1.1935491e+03 -1.3495771e+03 -1.4502568e+03 -1.3798774e+03 -1.0134226e+03 -2.9547434e+02 6.1052280e+02 1.4227506e+03 1.8484778e+03 1.7706275e+03 1.3326956e+03 7.6550639e+02 2.8205786e+02 -2.6977311e+01 -1.9641116e+02 -3.1626818e+02 -4.5888356e+02 -6.4983815e+02 -8.7454497e+02 -1.0937958e+03 -1.2419274e+03 -1.2108689e+03 -8.9687041e+02 -2.5602796e+02 5.7860584e+02 1.3483823e+03 1.7976905e+03 1.7999688e+03 1.4341583e+03 8.7011045e+02 3.0229396e+02 -1.4933441e+02 -4.5111575e+02 -6.6219712e+02 -8.2272837e+02 -9.7047125e+02 -1.1246841e+03 -1.2767100e+03 -1.3786857e+03 -1.3075211e+03 -9.4829963e+02 -2.3703633e+02 7.0184080e+02 1.5977806e+03 2.1665891e+03 2.2655175e+03 1.9717545e+03 1.4550155e+03 9.2264197e+02 4.9082226e+02 1.5622716e+02 -1.6139862e+02 -5.2746308e+02 -9.7709654e+02 -1.4649652e+03 -1.9008192e+03 -2.1884524e+03 -2.2336071e+03 -1.9572032e+03 -1.2658749e+03 -2.1628612e+02 9.6496513e+02 1.9095956e+03 2.3076846e+03 2.1180094e+03 1.5113301e+03 7.8058357e+02 1.5489764e+02 -2.6708503e+02 -5.0048652e+02 -6.2757486e+02 -7.2555447e+02 -8.2654541e+02 -9.2850743e+02 -1.0054930e+03 -1.0076624e+03 -8.6703845e+02 -4.8276543e+02 1.5781906e+02 9.5219262e+02 1.6394349e+03 1.9477317e+03 1.7967442e+03 1.2766811e+03 6.3034945e+02 5.7458549e+01 -3.4637887e+02 -5.8367239e+02 -7.2667762e+02 -8.4063478e+02 -9.6870901e+02 -1.1221938e+03 -1.2764675e+03 -1.3593813e+03 -1.2553329e+03 -8.2604013e+02 -7.6292764e+01 8.7502704e+02 1.7024650e+03 2.1064552e+03 2.0173453e+03 1.5245696e+03 8.4483452e+02 2.4870031e+02 -1.8151459e+02 -4.4320008e+02 -6.0538129e+02 -7.3544983e+02 -8.7584479e+02 -1.0388979e+03 -1.2213448e+03 -1.3795421e+03 -1.4235144e+03 -1.2071931e+03 -6.3041980e+02 2.9257438e+02 1.2905254e+03 2.0228537e+03 2.2580419e+03 1.9664961e+03 1.3471048e+03 6.5221452e+02 6.4992179e+01 -3.2950616e+02 -5.6114335e+02 -6.9669087e+02 -8.0582626e+02 -9.2667111e+02 -1.0757839e+03 -1.2414077e+03 -1.3763873e+03 -1.3705829e+03 -1.0865239e+03 -4.1925208e+02 5.4599328e+02 1.5183598e+03 2.1584474e+03 2.2494830e+03 1.8507392e+03 1.1729024e+03 4.7770116e+02 -6.9213063e+01 -4.2223030e+02 -6.3343475e+02 -7.7704560e+02 -9.0263309e+02 -1.0354000e+03 -1.1826285e+03 -1.3347510e+03 -1.4403824e+03 -1.3905735e+03 -1.0312286e+03 -2.8513814e+02 7.5407465e+02 1.7651174e+03 2.3858706e+03 2.4342097e+03 1.9628106e+03 1.2267143e+03 4.9058182e+02 -6.4784958e+01 -4.3038119e+02 -6.5343795e+02 -8.0889428e+02 -9.5440811e+02 -1.1121765e+03 -1.2839673e+03 -1.4335811e+03 -1.4982764e+03 -1.3594789e+03 -8.9802971e+02 -7.6911329e+01 9.3105543e+02 1.7975182e+03 2.2261537e+03 2.0982386e+03 1.5692904e+03 8.9039942e+02 2.8452844e+02 -1.4905507e+02 -4.3423653e+02 -6.3206366e+02 -8.0602798e+02 -9.9052250e+02 -1.1947204e+03 -1.3994746e+03 -1.5484155e+03 -1.5212790e+03 -1.1788977e+03 -4.2589319e+02 6.2390825e+02 1.6771718e+03 2.3915012e+03 2.5206039e+03 2.1296571e+03 1.4237000e+03 6.6691202e+02 3.8422829e+01 -4.0318549e+02 -7.0370546e+02 -9.2109900e+02 -1.0998832e+03 -1.2670370e+03 -1.4334834e+03 -1.5885675e+03 -1.6707263e+03 -1.5554501e+03 -1.0910848e+03 -2.3283871e+02 8.7489948e+02 1.8940432e+03 2.4814797e+03 2.5079474e+03 2.0386293e+03 1.3238619e+03 6.0620186e+02 3.6320328e+01 -3.5540731e+02 -6.2098052e+02 -8.2280384e+02 -1.0041961e+03 -1.1825559e+03 -1.3630901e+03 -1.5325943e+03 -1.6354905e+03 -1.5534771e+03 -1.1481993e+03 -3.4847035e+02 7.0276247e+02 1.6916623e+03 2.2921128e+03 2.3330105e+03 1.9132628e+03 1.2531429e+03 5.9418931e+02 7.8693432e+01 -2.7155484e+02 -5.0171269e+02 -6.7931600e+02 -8.4319944e+02 -1.0158016e+03 -1.2048843e+03 -1.3929949e+03 -1.5119273e+03 -1.4374548e+03 -1.0173681e+03 -2.2070236e+02 7.9745160e+02 1.6995378e+03 2.1676511e+03 2.1014684e+03 1.6230768e+03 9.8869374e+02 4.1165025e+02 -8.8756107e+00 -2.8031539e+02 -4.6999947e+02 -6.3112808e+02 -7.9970954e+02 -9.9174883e+02 -1.2096604e+03 -1.4269459e+03 -1.5587120e+03 -1.4586746e+03 -9.8529888e+02 -1.1520145e+02 9.3416109e+02 1.8034890e+03 2.1965338e+03 2.0231667e+03 1.4663495e+03 7.9262188e+02 2.2848321e+02 -1.3380649e+02 -3.3210629e+02 -4.5927143e+02 -5.9867473e+02 -7.8721051e+02 -1.0214531e+03 -1.2680948e+03 -1.4556791e+03 -1.4639297e+03 -1.1525311e+03 -4.5125224e+02 5.2685955e+02 1.4956861e+03 2.1329422e+03 2.2622198e+03 1.9299944e+03 1.3183797e+03 6.5283132e+02 8.5125527e+01 -3.3720956e+02 -6.4221230e+02 -8.8862999e+02 -1.1186766e+03 -1.3552866e+03 -1.5867380e+03 -1.7546017e+03 -1.7452166e+03 -1.4218804e+03 -7.1902386e+02 2.8962625e+02 1.3315669e+03 2.0903572e+03 2.3624617e+03 2.1606894e+03 1.6562011e+03 1.0249504e+03 4.4038273e+02 -3.2922301e+01 -3.9771618e+02 -6.9290005e+02 -9.4635738e+02 -1.1698955e+03 -1.3692080e+03 -1.5356535e+03 -1.6144162e+03 -1.5012660e+03 -1.0649433e+03 -2.6247060e+02 7.3625335e+02 1.6383259e+03 2.1553880e+03 2.1787995e+03 1.7895054e+03 1.2013099e+03 6.0880281e+02 1.2833347e+02 -2.2232357e+02 -4.8538885e+02 -7.0500389e+02 -9.1022547e+02 -1.1134922e+03 -1.3147496e+03 -1.4958387e+03 -1.5955405e+03 -1.4966524e+03 -1.0711318e+03 -2.9421489e+02 7.1900150e+02 1.6521035e+03 2.2067247e+03 2.2396898e+03 1.8486583e+03 1.2247354e+03 6.0771551e+02 1.2145712e+02 -2.2009469e+02 -4.5579930e+02 -6.3439759e+02 -7.8597885e+02 -9.2721413e+02 -1.0756397e+03 -1.2302189e+03 -1.3524970e+03 -1.3436308e+03 -1.0602105e+03 -4.1669454e+02 4.9445522e+02 1.3908376e+03 1.9479822e+03 2.0042290e+03 1.6205658e+03 1.0230132e+03 4.3207139e+02 -4.4759792e+01 -3.8013343e+02 -6.2353306e+02 -8.2575021e+02 -1.0238982e+03 -1.2411533e+03 -1.4695945e+03 -1.6769175e+03 -1.7678087e+03 -1.5888842e+03 -9.9904391e+02 1.5669101e+01 1.2572914e+03 2.3548880e+03 2.9597614e+03 2.9365533e+03 2.4300505e+03 1.6954899e+03 9.6015541e+02 3.5389475e+02 -1.3953463e+02 -5.7060874e+02 -9.7993846e+02 -1.3748402e+03 -1.7347273e+03 -2.0411878e+03 -2.2390855e+03 -2.2320851e+03 -1.8996213e+03 -1.1588217e+03 -9.8481347e+01 1.0292876e+03 1.9038163e+03 2.3102775e+03 2.2272422e+03 1.7754993e+03 1.1655282e+03 5.7933373e+02 1.1007462e+02 -2.2955296e+02 -4.8291738e+02 -6.9631033e+02 -9.0374690e+02 -1.1191161e+03 -1.3212091e+03 -1.4444592e+03 -1.3719431e+03 -9.7923864e+02 -2.4859650e+02 6.6545956e+02 1.4691615e+03 1.9254613e+03 1.9400156e+03 1.5927375e+03 1.0710238e+03 5.4135405e+02 1.1707349e+02 -2.3685804e+02 -5.2496495e+02 -7.7251295e+02 -9.9638716e+02 -1.2013932e+03 -1.3901299e+03 -1.5434666e+03 -1.5683582e+03 -1.3435214e+03 -7.6257735e+02 1.4998021e+02 1.1641710e+03 1.9241009e+03 2.2883331e+03 2.1392412e+03 1.6397132e+03 9.9543120e+02 3.9585822e+02 -7.5474504e+01 -4.0974049e+02 -6.5152173e+02 -8.5104951e+02 -1.0347808e+03 -1.2168606e+03 -1.3928989e+03 -1.5223746e+03 -1.5033336e+03 -1.2050695e+03 -5.3717966e+02 4.1463834e+02 1.3899261e+03 2.0735780e+03 2.2569332e+03 1.9777856e+03 1.4120519e+03 7.8166635e+02 2.3865547e+02 -1.6840442e+02 -4.6346938e+02 -6.8965800e+02 -8.8752966e+02 -1.0767663e+03 -1.2647044e+03 -1.4382933e+03 -1.5403442e+03 -1.4665997e+03 -1.0785707e+03 -3.3423079e+02 6.3375757e+02 1.5215470e+03 2.0306839e+03 2.0368642e+03 1.6321016e+03 1.0384715e+03 4.6055580e+02 1.2280232e+01 -2.9211371e+02 -4.9594802e+02 -6.5313613e+02 -8.0340144e+02 -9.7203262e+02 -1.1619592e+03 -1.3352138e+03 -1.3930565e+03 -1.1908692e+03 -6.2973961e+02 2.3992492e+02 1.1803723e+03 1.8800922e+03 2.1239789e+03 1.9119533e+03 1.3893669e+03 7.6774676e+02 2.1570690e+02 -1.9816307e+02 -4.9117367e+02 -7.1107802e+02 -9.0062899e+02 -1.0867188e+03 -1.2761140e+03 -1.4460537e+03 -1.5247362e+03 -1.3919540e+03 -9.3436542e+02 -1.2141335e+02 8.6233606e+02 1.7141923e+03 2.1713211e+03 2.1266484e+03 1.6840901e+03 1.0592839e+03 4.4829605e+02 -3.7219254e+01 -3.8358940e+02 -6.2801640e+02 -8.2131125e+02 -9.9515993e+02 -1.1689245e+03 -1.3417832e+03 -1.4776546e+03 -1.4854717e+03 -1.2347841e+03 -6.2074127e+02 2.8484071e+02 1.2506073e+03 1.9625269e+03 2.2110257e+03 1.9879152e+03 1.4562373e+03 8.2167915e+02 2.5856127e+02 -1.6187793e+02 -4.5098931e+02 -6.5833841e+02 -8.2727849e+02 -9.8406739e+02 -1.1440756e+03 -1.3053941e+03 -1.4276175e+03 -1.4121671e+03 -1.1251907e+03 -4.9409417e+02 4.1159157e+02 1.3254020e+03 1.9421656e+03 2.0906084e+03 1.8026775e+03 1.2659741e+03 6.9258352e+02 2.1642255e+02 -1.2841044e+02 -3.7477993e+02 -5.6949224e+02 -7.4920411e+02 -9.3702491e+02 -1.1497974e+03 -1.3736933e+03 -1.5450841e+03 -1.5347155e+03 -1.1957973e+03 -4.5750423e+02 5.2904731e+02 1.4592122e+03 2.0233169e+03 2.0847874e+03 1.7347704e+03 1.1705599e+03 5.9784370e+02 1.2277080e+02 -2.4089741e+02 -5.2422044e+02 -7.6309443e+02 -9.7923995e+02 -1.1843675e+03 -1.3693188e+03 -1.4878273e+03 -1.4363720e+03 -1.0849731e+03 -3.7649758e+02 5.6200075e+02 1.4780975e+03 2.0693584e+03 2.1829948e+03 1.8677385e+03 1.2953926e+03 6.6793299e+02 1.2483474e+02 -2.7406349e+02 -5.5058800e+02 -7.5038494e+02 -9.1724388e+02 -1.0824045e+03 -1.2567030e+03 -1.4268787e+03 -1.5301272e+03 -1.4534869e+03 -1.0698132e+03 -3.3697279e+02 6.2272711e+02 1.5181070e+03 2.0689452e+03 2.1456479e+03 1.8088673e+03 1.2443165e+03 6.4755719e+02 1.5196049e+02 -2.1603824e+02 -4.7578686e+02 -6.6585638e+02 -8.1773170e+02 -9.5253028e+02 -1.0887920e+03 -1.2324485e+03 -1.3563780e+03 -1.3756735e+03 -1.1584792e+03 -6.0136078e+02 2.5092284e+02 1.1740196e+03 1.8846073e+03 2.1535486e+03 1.9688625e+03 1.4716808e+03 8.7526863e+02 3.3400493e+02 -6.9168512e+01 -3.5568085e+02 -5.7039367e+02 -7.4689420e+02 -8.9995319e+02 -1.0327113e+03 -1.1586733e+03 -1.2827637e+03 -1.3819586e+03 -1.3777041e+03 -1.1490208e+03 -5.8434032e+02 3.1759147e+02 1.2596288e+03 1.9620473e+03 2.2157450e+03 2.0113011e+03 1.5105795e+03 9.3126094e+02 4.1513949e+02 2.5434640e+01 -2.5389449e+02 -4.6354553e+02 -6.3206402e+02 -7.7284877e+02 -8.9465957e+02 -1.0108831e+03 -1.1370795e+03 -1.2643379e+03 -1.3322341e+03 -1.2194558e+03 -8.0733008e+02 -6.8300123e+01 8.2846267e+02 1.5802450e+03 1.9348980e+03 1.8336760e+03 1.4054026e+03 8.6701781e+02 3.7919386e+02 3.2608203e+00 -2.7542220e+02 -4.9174076e+02 -6.6659636e+02 -8.0277487e+02 -9.0856839e+02 -9.9615038e+02 -1.0799814e+03 -1.1437564e+03 -1.1103149e+03 -8.5342819e+02 -2.9132882e+02 5.1179284e+02 1.3305425e+03 1.8906056e+03 2.0296621e+03 1.7647678e+03 1.2487989e+03 6.6179760e+02 1.4384580e+02 -2.5492309e+02 -5.4920388e+02 -7.7778144e+02 -9.7056075e+02 -1.1433068e+03 -1.3029906e+03 -1.4345876e+03 -1.4799619e+03 -1.3305318e+03 -8.7188177e+02 -9.0346091e+01 8.6022727e+02 1.6989275e+03 2.1743344e+03 2.1894774e+03 1.8201907e+03 1.2468362e+03 6.5702770e+02 1.6251689e+02 -2.0936255e+02 -4.8423453e+02 -6.9678303e+02 -8.6595839e+02 -1.0033890e+03 -1.1159290e+03 -1.2182922e+03 -1.3230494e+03 -1.4165817e+03 -1.4315389e+03 -1.2421386e+03 -7.3248858e+02 1.0083774e+02 1.0781022e+03 1.9029227e+03 2.3216139e+03 2.2636504e+03 1.8351157e+03 1.2351071e+03 6.4556439e+02 1.6392179e+02 -1.9620864e+02 -4.6595023e+02 -6.8338729e+02 -8.6589819e+02 -1.0214663e+03 -1.1593721e+03 -1.2897660e+03 -1.4059282e+03 -1.4562039e+03 -1.3333194e+03 -9.1532049e+02 -1.7089067e+02 7.6605597e+02 1.6252640e+03 2.1399206e+03 2.2012493e+03 1.8680440e+03 1.3182827e+03 7.4042128e+02 2.5364245e+02 -1.1037855e+02 -3.7786521e+02 -5.8240766e+02 -7.4819850e+02 -8.8470112e+02 -1.0008248e+03 -1.1105953e+03 -1.2265379e+03 -1.3414713e+03 -1.3975284e+03 -1.2758763e+03 -8.5163680e+02 -9.0370487e+01 8.5316336e+02 1.6904760e+03 2.1594737e+03 2.1623833e+03 1.7973366e+03 1.2554210e+03 7.1126376e+02 2.5620259e+02 -9.6146559e+01 -3.7624082e+02 -6.1204177e+02 -8.1560404e+02 -9.9289353e+02 -1.1526946e+03 -1.3016751e+03 -1.4321291e+03 -1.4972375e+03 -1.3950407e+03 -1.0120788e+03 -2.9693216e+02 6.3407328e+02 1.5318946e+03 2.1171018e+03 2.2433608e+03 1.9614923e+03 1.4399037e+03 8.7005840e+02 3.5317137e+02 -6.8210003e+01 -4.0804785e+02 -6.8744009e+02 -9.1724526e+02 -1.1063033e+03 -1.2630182e+03 -1.4023205e+03 -1.5123901e+03 -1.5285543e+03 -1.3267790e+03 -7.9907027e+02 3.2953680e+01 1.0188303e+03 1.8489317e+03 2.2807826e+03 2.2401087e+03 1.8250547e+03 1.2158741e+03 6.1894515e+02 1.2853995e+02 -2.3984370e+02 -5.1604506e+02 -7.3765567e+02 -9.2706791e+02 -1.0981333e+03 -1.2635992e+03 -1.4275040e+03 -1.5628647e+03 -1.5884387e+03 -1.3689304e+03 -7.9738010e+02 1.0283317e+02 1.1188772e+03 1.9383434e+03 2.3288892e+03 2.2294167e+03 1.7633933e+03 1.1354945e+03 5.3226581e+02 5.6478736e+01 -2.8316577e+02 -5.2321574e+02 -7.0678378e+02 -8.6169247e+02 -1.0052193e+03 -1.1528832e+03 -1.3086716e+03 -1.4404347e+03 -1.4584225e+03 -1.2232204e+03 -6.3590877e+02 2.5466970e+02 1.2088690e+03 1.9114944e+03 2.1621247e+03 1.9497877e+03 1.4363788e+03 8.3836572e+02 3.0684050e+02 -9.8157571e+01 -3.9503819e+02 -6.2238811e+02 -8.0800228e+02 -9.7303249e+02 -1.1213531e+03 -1.2561742e+03 -1.3620981e+03 -1.3772313e+03 -1.1882700e+03 -6.8633257e+02 1.1581626e+02 1.0422034e+03 1.8099945e+03 2.1788531e+03 2.0910360e+03 1.6446247e+03 1.0284706e+03 4.2428857e+02 -6.4550012e+01 -4.1772671e+02 -6.7307229e+02 -8.7632521e+02 -1.0676432e+03 -1.2605950e+03 -1.4435066e+03 -1.5611838e+03 -1.5091180e+03 -1.1559005e+03 -4.4646510e+02 5.1121663e+02 1.4494397e+03 2.0737823e+03 2.2311995e+03 1.9473368e+03 1.3808612e+03 7.4874626e+02 1.8856573e+02 -2.4147716e+02 -5.5681449e+02 -7.9201803e+02 -9.7684620e+02 -1.1362720e+03 -1.2877902e+03 -1.4369539e+03 -1.5511405e+03 -1.5332776e+03 -1.2477883e+03 -5.8556067e+02 3.8042676e+02 1.4122647e+03 2.1971322e+03 2.5080446e+03 2.3263815e+03 1.7909649e+03 1.1017949e+03 4.4582162e+02 -8.2351992e+01 -4.7032482e+02 -7.5131491e+02 -9.6078545e+02 -1.1266210e+03 -1.2716628e+03 -1.4162655e+03 -1.5515597e+03 -1.6118412e+03 -1.4614106e+03 -9.6597595e+02 -1.1009008e+02 9.1399591e+02 1.7767202e+03 2.2111492e+03 2.1325226e+03 1.6834564e+03 1.0818770e+03 5.1750810e+02 7.9241443e+01 -2.4273130e+02 -4.9467891e+02 -7.2118768e+02 -9.4355766e+02 -1.1736944e+03 -1.3968144e+03 -1.5658562e+03 -1.5776850e+03 -1.3032627e+03 -6.5127657e+02 2.9758739e+02 1.2938210e+03 2.0279041e+03 2.2860394e+03 2.0664063e+03 1.5176001e+03 8.5689758e+02 2.4618209e+02 -2.2784470e+02 -5.6805460e+02 -8.1961074e+02 -1.0268413e+03 -1.2201551e+03 -1.3958605e+03 -1.5232120e+03 -1.5087929e+03 -1.2289413e+03 -5.9197599e+02 3.2458640e+02 1.2849349e+03 1.9885792e+03 2.2292934e+03 2.0066619e+03 1.4622802e+03 8.0797804e+02 2.1325283e+02 -2.3813922e+02 -5.5379072e+02 -7.8384230e+02 -9.7358581e+02 -1.1526646e+03 -1.3334251e+03 -1.5045379e+03 -1.6110175e+03 -1.5450745e+03 -1.1616330e+03 -4.0691729e+02 6.0479699e+02 1.5811303e+03 2.2099642e+03 2.3372396e+03 2.0011860e+03 1.3986295e+03 7.4238989e+02 1.8066640e+02 -2.4379219e+02 -5.5353810e+02 -7.9381545e+02 -1.0035245e+03 -1.2031475e+03 -1.3914095e+03 -1.5267935e+03 -1.5235320e+03 -1.2553489e+03 -6.5021192e+02 2.3538642e+02 1.1704469e+03 1.8568603e+03 2.1174152e+03 1.9249402e+03 1.4245792e+03 8.1435865e+02 2.5777420e+02 -1.7178865e+02 -4.7704724e+02 -7.0261462e+02 -8.8975889e+02 -1.0641074e+03 -1.2382845e+03 -1.3996736e+03 -1.4911669e+03 -1.3937176e+03 -9.8044538e+02 -2.0550582e+02 7.8405606e+02 1.6922102e+03 2.2393420e+03 2.2757483e+03 1.8863797e+03 1.2545458e+03 5.8772939e+02 2.5148128e+01 -3.8889856e+02 -6.7731873e+02 -8.8469078e+02 -1.0512963e+03 -1.2079412e+03 -1.3693751e+03 -1.5198811e+03 -1.5873668e+03 -1.4452509e+03 -9.5503126e+02 -1.0752039e+02 9.2379129e+02 1.8162192e+03 2.2697901e+03 2.2191414e+03 1.7587284e+03 1.1176738e+03 5.0375819e+02 2.4237463e+01 -3.1326069e+02 -5.5534480e+02 -7.4638385e+02 -9.2439498e+02 -1.1074349e+03 -1.2959810e+03 -1.4527312e+03 -1.4873192e+03 -1.2597379e+03 -6.6938372e+02 2.3283492e+02 1.1913949e+03 1.8697935e+03 2.0635428e+03 1.7744599e+03 1.2087140e+03 5.9258662e+02 7.9810775e+01 -2.7859321e+02 -5.1390064e+02 -6.7451648e+02 -8.1771212e+02 -9.7678500e+02 -1.1653941e+03 -1.3516995e+03 -1.4386467e+03 -1.2655136e+03 -7.2038348e+02 1.7238690e+02 1.1734169e+03 1.9453612e+03 2.2573929e+03 2.0700228e+03 1.5497133e+03 9.1196103e+02 3.3519236e+02 -1.0248932e+02 -4.1587218e+02 -6.5592450e+02 -8.7699254e+02 -1.1113430e+03 -1.3629332e+03 -1.5840880e+03 -1.6649348e+03 -1.4464452e+03 -8.4715007e+02 7.4652941e+01 1.0527428e+03 1.7568415e+03 1.9946737e+03 1.7711485e+03 1.2601148e+03 6.6790904e+02 1.5526223e+02 -2.2717903e+02 -5.0774655e+02 -7.3967812e+02 -9.6718297e+02 -1.2064119e+03 -1.4331293e+03 -1.5667447e+03 -1.4776665e+03 -1.0242568e+03 -1.9259851e+02 8.5016817e+02 1.7829531e+03 2.2938502e+03 2.2881372e+03 1.8431998e+03 1.1776520e+03 5.0199418e+02 -4.9473758e+01 -4.5916807e+02 -7.5905523e+02 -1.0021502e+03 -1.2287846e+03 -1.4493662e+03 -1.6334330e+03 -1.6810035e+03 -1.4627526e+03 -8.6151122e+02 7.3200260e+01 1.1103254e+03 1.9234655e+03 2.2566877e+03 2.1084898e+03 1.5875344e+03 9.1358795e+02 2.8453998e+02 -2.0054101e+02 -5.5207220e+02 -7.9266786e+02 -9.9194475e+02 -1.1846042e+03 -1.3770147e+03 -1.5351048e+03 -1.5633645e+03 -1.3309552e+03 -7.2502370e+02 2.0216538e+02 1.2134210e+03 1.9859295e+03 2.2802662e+03 2.0821932e+03 1.5372591e+03 8.7245935e+02 2.7005799e+02 -1.9056451e+02 -5.1500928e+02 -7.5497827e+02 -9.5618313e+02 -1.1494072e+03 -1.3436227e+03 -1.5152226e+03 -1.5837817e+03 -1.4229007e+03 -9.1201312e+02 -4.9953130e+01 9.6260215e+02 1.8048340e+03 2.2055331e+03 2.1032072e+03 1.6172395e+03 9.7927181e+02 3.8191262e+02 -7.9642953e+01 -3.9873039e+02 -6.2070367e+02 -7.9280340e+02 -9.5174585e+02 -1.1188953e+03 -1.2948592e+03 -1.4320461e+03 -1.4244083e+03 -1.1224176e+03 -4.6309661e+02 4.6340043e+02 1.3707557e+03 1.9412244e+03 2.0295453e+03 1.6899487e+03 1.1373563e+03 5.7672388e+02 1.2717548e+02 -1.9580503e+02 -4.4150354e+02 -6.6029869e+02 -8.8129830e+02 -1.1146409e+03 -1.3488424e+03 -1.5450356e+03 -1.6154440e+03 -1.4170032e+03 -8.4653533e+02 6.5074890e+01 1.1069819e+03 1.9394921e+03 2.3217969e+03 2.1984426e+03 1.7144104e+03 1.0812195e+03 4.7985941e+02 5.1454873e-03 -3.5583028e+02 -6.2468414e+02 -8.4963827e+02 -1.0600992e+03 -1.2706533e+03 -1.4746155e+03 -1.6219071e+03 -1.5997831e+03 -1.2741445e+03 -5.6826656e+02 4.1394250e+02 1.3874051e+03 2.0496561e+03 2.2208921e+03 1.9416734e+03 1.3823599e+03 7.5552969e+02 2.2343294e+02 -1.8889118e+02 -4.8508402e+02 -7.0946770e+02 -8.9768017e+02 -1.0701123e+03 -1.2433636e+03 -1.4077893e+03 -1.5298922e+03 -1.5163432e+03 -1.2207463e+03 -5.5198750e+02 4.2858074e+02 1.4615415e+03 2.2400138e+03 2.5261487e+03 2.2999362e+03 1.7252061e+03 1.0281210e+03 3.7859907e+02 -1.1620241e+02 -4.7452697e+02 -7.3384340e+02 -9.3396158e+02 -1.1007573e+03 -1.2535133e+03 -1.4070971e+03 -1.5532746e+03 -1.6357744e+03 -1.5439735e+03 -1.1405308e+03 -3.8328251e+02 6.0950132e+02 1.5121873e+03 2.0445323e+03 2.1057712e+03 1.7763743e+03 1.2647008e+03 7.4944138e+02 3.2715090e+02 -2.2112930e+00 -2.7499454e+02 -5.1455014e+02 -7.3088241e+02 -9.2898258e+02 -1.1217173e+03 -1.3171956e+03 -1.4733012e+03 -1.4862542e+03 -1.2171149e+03 -5.7289090e+02 4.1503542e+02 1.3752592e+03 2.0418531e+03 2.2179971e+03 1.9577367e+03 1.4232042e+03 8.3332570e+02 3.0644783e+02 -1.0979897e+02 -4.2684460e+02 -6.8068114e+02 -8.9484784e+02 -1.0873031e+03 -1.2702071e+03 -1.4483000e+03 -1.5873558e+03 -1.6005098e+03 -1.3432498e+03 -7.2374776e+02 2.1862870e+02 1.2444874e+03 2.0300503e+03 2.3665752e+03 2.2159733e+03 1.7342440e+03 1.1202834e+03 5.4539183e+02 9.5453742e+01 -2.4321257e+02 -5.0396734e+02 -7.1836180e+02 -8.9512259e+02 -1.0376760e+03 -1.1575468e+03 -1.2713769e+03 -1.3922926e+03 -1.5027972e+03 -1.5233482e+03 -1.3232325e+03 -7.6487396e+02 1.3792440e+02 1.1923900e+03 2.0765984e+03 2.5123332e+03 2.4457984e+03 1.9877352e+03 1.3452949e+03 7.1337013e+02 1.9628517e+02 -1.8603298e+02 -4.6943276e+02 -6.8772999e+02 -8.6946152e+02 -1.0245035e+03 -1.1657609e+03 -1.3073500e+03 -1.4508738e+03 -1.5560129e+03 -1.5216741e+03 -1.1989247e+03 -5.1303014e+02 4.5646293e+02 1.4352467e+03 2.1016688e+03 2.2898784e+03 2.0066607e+03 1.4656679e+03 8.6784695e+02 3.5086924e+02 -3.8978453e+01 -3.2478278e+02 -5.5193798e+02 -7.4314420e+02 -9.0899993e+02 -1.0582793e+03 -1.2005581e+03 -1.3417733e+03 -1.4645661e+03 -1.5046210e+03 -1.3374802e+03 -8.5033610e+02 -8.0419499e+00 1.0195178e+03 1.9408999e+03 2.4821490e+03 2.5276934e+03 2.1775947e+03 1.6022944e+03 9.8669259e+02 4.3573879e+02 -3.3393821e+01 -4.3706516e+02 -7.8726547e+02 -1.0764953e+03 -1.3001971e+03 -1.4627710e+03 -1.5839432e+03 -1.6801274e+03 -1.7248774e+03 -1.6302030e+03 -1.2790251e+03 -5.8704165e+02 3.6116609e+02 1.3461570e+03 2.0824465e+03 2.3736093e+03 2.2169364e+03 1.7405390e+03 1.1378115e+03 5.5746117e+02 9.9923112e+01 -2.3441867e+02 -4.7826882e+02 -6.6531754e+02 -8.2645096e+02 -9.8413353e+02 -1.1521156e+03 -1.3324315e+03 -1.4926827e+03 -1.5400047e+03 -1.3445062e+03 -7.8623326e+02 8.7773216e+01 1.0676197e+03 1.8374898e+03 2.1612165e+03 2.0277841e+03 1.5716980e+03 9.9791583e+02 4.8220064e+02 8.0699514e+01 -2.1106326e+02 -4.3498016e+02 -6.2212609e+02 -7.9450079e+02 -9.6246045e+02 -1.1361492e+03 -1.3111415e+03 -1.4486388e+03 -1.4491587e+03 -1.1933372e+03 -5.9071428e+02 2.9878058e+02 1.2466029e+03 1.9665544e+03 2.2475254e+03 2.0862396e+03 1.6085074e+03 1.0008979e+03 4.3095009e+02 -2.5384477e+01 -3.6457816e+02 -6.2331915e+02 -8.3080566e+02 -1.0058766e+03 -1.1608927e+03 -1.3111961e+03 -1.4561677e+03 -1.5547654e+03 -1.4995837e+03 -1.1732015e+03 -4.8040454e+02 4.8257044e+02 1.4581516e+03 2.1492742e+03 2.3646891e+03 2.1129978e+03 1.5579363e+03 9.1798587e+02 3.5134062e+02 -8.1449999e+01 -3.8809330e+02 -6.1503896e+02 -7.9403052e+02 -9.5045975e+02 -1.0975973e+03 -1.2482684e+03 -1.3988358e+03 -1.5031309e+03 -1.4426761e+03 -1.0896869e+03 -3.6732636e+02 5.9131777e+02 1.5029400e+03 2.0802773e+03 2.1611388e+03 1.8309684e+03 1.2686862e+03 6.8235795e+02 1.9819371e+02 -1.6107155e+02 -4.2042589e+02 -6.2329496e+02 -8.0101192e+02 -9.7004317e+02 -1.1428081e+03 -1.3175260e+03 -1.4532348e+03 -1.4590924e+03 -1.1955986e+03 -5.8333902e+02 3.2419672e+02 1.2844397e+03 1.9912677e+03 2.2567742e+03 2.0453170e+03 1.5204461e+03 8.7962450e+02 2.9343011e+02 -1.5343145e+02 -4.6934778e+02 -6.9206884e+02 -8.6747362e+02 -1.0250988e+03 -1.1846331e+03 -1.3516621e+03 -1.5015004e+03 -1.5516663e+03 -1.3804770e+03 -8.5387350e+02 1.1280806e+01 1.0332538e+03 1.9044947e+03 2.3529953e+03 2.3196141e+03 1.8840376e+03 1.2516452e+03 6.1486266e+02 9.0031765e+01 -2.9300712e+02 -5.7274874e+02 -7.8463176e+02 -9.6117316e+02 -1.1181439e+03 -1.2700185e+03 -1.4232484e+03 -1.5541486e+03 -1.5751958e+03 -1.3564500e+03 -7.6623699e+02 1.5789434e+02 1.1948738e+03 2.0168502e+03 2.3636420e+03 2.2062600e+03 1.6812806e+03 1.0234415e+03 4.1703773e+02 -5.3927566e+01 -3.8320013e+02 -6.2006742e+02 -8.0439408e+02 -9.6391387e+02 -1.1160674e+03 -1.2708389e+03 -1.4157853e+03 -1.4944669e+03 -1.3799027e+03 -9.5337269e+02 -1.5908302e+02 8.4426359e+02 1.7575325e+03 2.2945086e+03 2.3269093e+03 1.9281047e+03 1.2851372e+03 6.1578403e+02 6.0519942e+01 -3.4913920e+02 -6.4452473e+02 -8.7113367e+02 -1.0671018e+03 -1.2542617e+03 -1.4405375e+03 -1.6088264e+03 -1.6858861e+03 -1.5513184e+03 -1.0559235e+03 -1.8658590e+02 8.9469109e+02 1.8667881e+03 2.4234959e+03 2.4471408e+03 2.0069713e+03 1.3385436e+03 6.5318525e+02 8.8251740e+01 -3.1160505e+02 -5.7661553e+02 -7.6859704e+02 -9.0867478e+02 -1.0226566e+03 -1.1448876e+03 -1.3077307e+03 -1.5026215e+03 -1.6201417e+03 -1.4943913e+03 -9.4925153e+02 -7.1712223e+00 1.1058155e+03 2.0285474e+03 2.4622676e+03 2.3699679e+03 1.8647088e+03 1.1885016e+03 5.4322980e+02 3.2357921e+01 -3.3037888e+02 -5.9270196e+02 -7.9683737e+02 -9.7280744e+02 -1.1376463e+03 -1.3070758e+03 -1.4821962e+03 -1.6255878e+03 -1.6289841e+03 -1.3380445e+03 -6.3452171e+02 3.9930680e+02 1.4788140e+03 2.2562899e+03 2.4788580e+03 2.1865480e+03 1.5616915e+03 8.5584324e+02 2.5006069e+02 -1.9573240e+02 -4.9268029e+02 -7.0003566e+02 -8.5937118e+02 -1.0011057e+03 -1.1464792e+03 -1.3061682e+03 -1.4468952e+03 -1.5274664e+03 -1.3999313e+03 -9.1265623e+02 -5.3558774e+01 1.0049203e+03 1.9866524e+03 2.4318701e+03 2.3336747e+03 1.8267190e+03 1.1285404e+03 4.5225834e+02 -8.4005243e+01 -4.6728938e+02 -7.3298015e+02 -9.4153640e+02 -1.1280327e+03 -1.3146786e+03 -1.5050267e+03 -1.6647319e+03 -1.6921848e+03 -1.4462371e+03 -7.9330799e+02 2.1077362e+02 1.3222595e+03 2.1993401e+03 2.5515485e+03 2.3717646e+03 1.7935622e+03 1.0692240e+03 4.0161328e+02 -1.1500569e+02 -4.7376885e+02 -7.4297808e+02 -9.6210010e+02 -1.1565463e+03 -1.3360258e+03 -1.5066246e+03 -1.6536261e+03 -1.7075021e+03 -1.5290469e+03 -9.9435001e+02 -6.0969020e+01 1.0686406e+03 2.0478931e+03 2.5848974e+03 2.5427250e+03 2.0539322e+03 1.3372551e+03 6.2832936e+02 6.6538848e+01 -3.2889928e+02 -6.0389533e+02 -8.1332776e+02 -9.9309878e+02 -1.1654637e+03 -1.3435353e+03 -1.5249480e+03 -1.6598123e+03 -1.6427532e+03 -1.3088209e+03 -5.8048805e+02 4.6675193e+02 1.5299682e+03 2.2384293e+03 2.4294444e+03 2.0976774e+03 1.4618013e+03 7.6224410e+02 1.6950939e+02 -2.5733041e+02 -5.4277154e+02 -7.4077358e+02 -8.9813139e+02 -1.0438795e+03 -1.1980066e+03 -1.3623296e+03 -1.4936615e+03 -1.4758937e+03 -1.1736372e+03 -4.7402343e+02 5.2440311e+02 1.5491366e+03 2.2658761e+03 2.4562799e+03 2.1521956e+03 1.5204104e+03 8.0642355e+02 1.8618854e+02 -2.8263092e+02 -6.0461258e+02 -8.4162120e+02 -1.0320945e+03 -1.2026122e+03 -1.3673881e+03 -1.5295056e+03 -1.6530626e+03 -1.6510166e+03 -1.3638837e+03 -6.9517445e+02 3.2454454e+02 1.4300522e+03 2.2612123e+03 2.6022937e+03 2.3917383e+03 1.8096365e+03 1.0846125e+03 4.1861435e+02 -9.0330947e+01 -4.4938444e+02 -6.9990395e+02 -8.9562855e+02 -1.0583938e+03 -1.2030986e+03 -1.3419680e+03 -1.4779728e+03 -1.5937928e+03 -1.6052342e+03 -1.3627504e+03 -7.5089420e+02 2.2781244e+02 1.3555022e+03 2.2389890e+03 2.6389706e+03 2.4750216e+03 1.9170537e+03 1.1916978e+03 5.1167083e+02 -2.8672360e+00 -3.7414974e+02 -6.3092486e+02 -8.2245741e+02 -9.7413847e+02 -1.1031648e+03 -1.2296486e+03 -1.3629752e+03 -1.4985867e+03 -1.5758897e+03 -1.4555065e+03 -1.0034058e+03 -1.5102284e+02 9.1967064e+02 1.8670711e+03 2.3978219e+03 2.3682674e+03 1.9202849e+03 1.2682087e+03 6.4182210e+02 1.4497335e+02 -2.1142810e+02 -4.6622051e+02 -6.6958671e+02 -8.4382279e+02 -1.0013647e+03 -1.1524685e+03 -1.3087135e+03 -1.4611949e+03 -1.5538429e+03 -1.4562010e+03 -1.0391315e+03 -2.2059115e+02 8.2800487e+02 1.8043459e+03 2.4093847e+03 2.4694067e+03 2.0830778e+03 1.4426340e+03 7.6430485e+02 1.9999397e+02 -2.1803355e+02 -5.1403332e+02 -7.3976740e+02 -9.2112217e+02 -1.0725733e+03 -1.2029078e+03 -1.3274601e+03 -1.4525993e+03 -1.5497462e+03 -1.5215930e+03 -1.2373659e+03 -5.7531454e+02 3.9683085e+02 1.4433079e+03 2.2408682e+03 2.5380411e+03 2.3460533e+03 1.7900915e+03 1.1038269e+03 4.7551875e+02 -8.6473985e+00 -3.4376658e+02 -5.8033917e+02 -7.5673937e+02 -9.0022550e+02 -1.0202547e+03 -1.1295901e+03 -1.2436225e+03 -1.3672855e+03 -1.4658563e+03 -1.4464849e+03 -1.1561613e+03 -5.0753223e+02 4.4572012e+02 1.4361770e+03 2.1311908e+03 2.3406579e+03 2.0650434e+03 1.5110176e+03 8.9116591e+02 3.5666335e+02 -3.9122440e+01 -3.2584530e+02 -5.4418320e+02 -7.2490643e+02 -8.7854129e+02 -1.0141234e+03 -1.1438641e+03 -1.2811437e+03 -1.4041990e+03 -1.4466624e+03 -1.2692430e+03 -7.6764467e+02 7.8539053e+01 1.0665614e+03 1.8762098e+03 2.3044830e+03 2.2343963e+03 1.7970610e+03 1.1855106e+03 5.9035334e+02 1.0412646e+02 -2.5209763e+02 -5.2164181e+02 -7.4514315e+02 -9.3755579e+02 -1.1086833e+03 -1.2656314e+03 -1.4151176e+03 -1.5352024e+03 -1.5545191e+03 -1.3376031e+03 -7.8987267e+02 9.1060586e+01 1.1017323e+03 1.9245618e+03 2.3429607e+03 2.2691977e+03 1.8416075e+03 1.2451718e+03 6.7032713e+02 2.1126309e+02 -1.2683104e+02 -3.7781080e+02 -5.8537411e+02 -7.6510755e+02 -9.1880681e+02 -1.0449329e+03 -1.1498371e+03 -1.2519889e+03 -1.3612374e+03 -1.4498968e+03 -1.4338764e+03 -1.1625562e+03 -5.4638460e+02 3.8905028e+02 1.3930693e+03 2.1356707e+03 2.4190656e+03 2.2044064e+03 1.6794777e+03 1.0402852e+03 4.6498484e+02 3.1961047e+01 -2.7563510e+02 -4.9710674e+02 -6.7039060e+02 -8.2238666e+02 -9.6145382e+02 -1.0989235e+03 -1.2430271e+03 -1.3805439e+03 -1.4554924e+03 -1.3326434e+03 -9.1013313e+02 -1.3752030e+02 8.1893087e+02 1.6745179e+03 2.1783660e+03 2.1991278e+03 1.8476399e+03 1.2921653e+03 7.2511729e+02 2.5511115e+02 -1.0625985e+02 -3.8365684e+02 -6.1294609e+02 -8.0624770e+02 -9.6790416e+02 -1.1000226e+03 -1.2180651e+03 -1.3354180e+03 -1.4475306e+03 -1.4983334e+03 -1.3771050e+03 -9.3867704e+02 -1.5608963e+02 8.4694170e+02 1.8040898e+03 2.3670635e+03 2.4632864e+03 2.1241384e+03 1.5549293e+03 9.4300104e+02 4.2292783e+02 2.5622010e+01 -2.7419034e+02 -5.1030240e+02 -7.0904224e+02 -8.7256307e+02 -1.0017688e+03 -1.1014892e+03 -1.1884101e+03 -1.2838410e+03 -1.3901857e+03 -1.4612923e+03 -1.3939722e+03 -1.0456849e+03 -3.3797555e+02 6.4061973e+02 1.6101121e+03 2.2506977e+03 2.4090640e+03 2.0923132e+03 1.4986637e+03 8.5729717e+02 3.0673861e+02 -9.7419710e+01 -3.8780174e+02 -6.0147934e+02 -7.7292777e+02 -9.1913070e+02 -1.0517590e+03 -1.1827785e+03 -1.3142784e+03 -1.4112179e+03 -1.3901292e+03 -1.1099175e+03 -5.0243919e+02 3.9034144e+02 1.3271486e+03 2.0073426e+03 2.2602288e+03 2.0505518e+03 1.5490419e+03 9.4278978e+02 3.8987338e+02 -3.8867014e+01 -3.5991311e+02 -6.0507061e+02 -8.0594299e+02 -9.7411729e+02 -1.1206371e+03 -1.2571722e+03 -1.3926980e+03 -1.5060325e+03 -1.5277645e+03 -1.3185484e+03 -7.7999935e+02 1.0351081e+02 1.1243638e+03 1.9745252e+03 2.4178177e+03 2.3661865e+03 1.9380319e+03 1.3168833e+03 6.9830976e+02 1.9472656e+02 -1.8476633e+02 -4.6043198e+02 -6.7877721e+02 -8.5752584e+02 -1.0074628e+03 -1.1360087e+03 -1.2591933e+03 -1.3872402e+03 -1.5051260e+03 -1.5323955e+03 -1.3451748e+03 -8.0046159e+02 8.2250553e+01 1.1275774e+03 1.9991357e+03 2.4232090e+03 2.3550655e+03 1.8820606e+03 1.2361889e+03 6.0689071e+02 1.0309157e+02 -2.5124448e+02 -5.0827162e+02 -7.0388923e+02 -8.6598651e+02 -1.0043098e+03 -1.1299473e+03 -1.2598759e+03 -1.3902460e+03 -1.4735956e+03 -1.4095917e+03 -1.0461506e+03 -3.2338955e+02 6.4618509e+02 1.5813426e+03 2.1682693e+03 2.2863092e+03 1.9583791e+03 1.3974489e+03 8.0106418e+02 2.8962182e+02 -9.1434275e+01 -3.7811681e+02 -6.0521323e+02 -7.9955423e+02 -9.6907871e+02 -1.1243084e+03 -1.2784110e+03 -1.4315497e+03 -1.5376020e+03 -1.4976702e+03 -1.1580902e+03 -4.6523690e+02 5.1563468e+02 1.4997298e+03 2.1656933e+03 2.3600725e+03 2.0802325e+03 1.5027139e+03 8.5139228e+02 2.7448752e+02 -1.5519381e+02 -4.5766894e+02 -6.6572098e+02 -8.2361002e+02 -9.5682025e+02 -1.0867509e+03 -1.2245237e+03 -1.3573409e+03 -1.4218803e+03 -1.3138455e+03 -8.9063826e+02 -1.3782196e+02 8.2056629e+02 1.6967323e+03 2.2001361e+03 2.2387582e+03 1.8635026e+03 1.2487884e+03 5.9661311e+02 4.8039932e+01 -3.4383584e+02 -6.1080809e+02 -7.9774576e+02 -9.4662098e+02 -1.0794072e+03 -1.2105118e+03 -1.3389570e+03 -1.4337596e+03 -1.4064717e+03 -1.1463637e+03 -5.5043159e+02 3.1254454e+02 1.2194506e+03 1.8819386e+03 2.0936002e+03 1.8675174e+03 1.3603572e+03 7.8639199e+02 2.8999283e+02 -8.5845990e+01 -3.5580584e+02 -5.7372648e+02 -7.7278784e+02 -9.7700516e+02 -1.1854643e+03 -1.3761459e+03 -1.4820186e+03 -1.4036465e+03 -9.9586353e+02 -2.5673891e+02 6.9899602e+02 1.5871253e+03 2.1176624e+03 2.1927492e+03 1.8380731e+03 1.2554085e+03 6.2962474e+02 9.9115484e+01 -2.8615798e+02 -5.6283597e+02 -7.7016572e+02 -9.4602727e+02 -1.1097527e+03 -1.2782015e+03 -1.4519600e+03 -1.5879113e+03 -1.5637674e+03 -1.2461518e+03 -5.1725584e+02 5.0432647e+02 1.5375311e+03 2.2562110e+03 2.4351961e+03 2.1321789e+03 1.5009700e+03 8.0096871e+02 2.0494594e+02 -2.3185634e+02 -5.2490268e+02 -7.4120730e+02 -9.1823410e+02 -1.0834221e+03 -1.2428822e+03 -1.3995952e+03 -1.5289078e+03 -1.5570643e+03 -1.3310440e+03 -7.4313523e+02 2.0475035e+02 1.2710036e+03 2.1045174e+03 2.4662443e+03 2.2748338e+03 1.7264034e+03 1.0209273e+03 3.6820278e+02 -1.2573788e+02 -4.6876439e+02 -6.9741739e+02 -8.6687233e+02 -1.0112735e+03 -1.1571905e+03 -1.3193678e+03 -1.4802753e+03 -1.5577720e+03 -1.4199929e+03 -8.8556857e+02 1.0650297e+01 1.0798460e+03 1.9611746e+03 2.3355596e+03 2.1710278e+03 1.6090718e+03 9.0585612e+02 2.8244705e+02 -1.7207025e+02 -4.5725966e+02 -6.4320409e+02 -7.8062901e+02 -9.1024908e+02 -1.0566402e+03 -1.2263615e+03 -1.3907540e+03 -1.4636144e+03 -1.2845464e+03 -7.3289286e+02 1.8299696e+02 1.2212938e+03 2.0266052e+03 2.3554099e+03 2.1306149e+03 1.5614966e+03 8.5312225e+02 2.1658596e+02 -2.5145499e+02 -5.7294085e+02 -7.9497758e+02 -9.7474226e+02 -1.1451166e+03 -1.3163999e+03 -1.4823813e+03 -1.5919756e+03 -1.5190280e+03 -1.1337077e+03 -3.5404754e+02 7.1110372e+02 1.7534235e+03 2.4458281e+03 2.5713419e+03 2.2048713e+03 1.5126485e+03 7.5778441e+02 1.2598694e+02 -3.3662235e+02 -6.4401897e+02 -8.6120592e+02 -1.0292178e+03 -1.1777761e+03 -1.3262431e+03 -1.4802366e+03 -1.6118994e+03 -1.6377560e+03 -1.3942841e+03 -7.6196710e+02 2.3091976e+02 1.3198877e+03 2.1285208e+03 2.4137494e+03 2.1196956e+03 1.4689325e+03 7.3605563e+02 1.1450823e+02 -2.7002104e+02 -4.6331996e+02 -5.5202361e+02 -6.3736014e+02 -7.7808466e+02 -9.7552038e+02 -1.2026964e+03 -1.3923839e+03 -1.4274256e+03 -1.1868613e+03 -5.6207894e+02 3.5786923e+02 1.3326094e+03 2.0433992e+03 2.2532912e+03 1.9943635e+03 1.4052310e+03 7.1592776e+02 1.1753633e+02 -3.3097447e+02 -6.3206556e+02 -8.4104599e+02 -9.9826998e+02 -1.1345605e+03 -1.2726787e+03 -1.4047339e+03 -1.4720971e+03 -1.3674794e+03 -9.3551460e+02 -1.5661360e+02 8.5159605e+02 1.7558288e+03 2.2556232e+03 2.2610984e+03 1.8277771e+03 1.1870289e+03 5.4742255e+02 2.9596036e+01 -3.2565517e+02 -5.6820219e+02 -7.4241179e+02 -8.8219513e+02 -9.9501062e+02 -1.0873692e+03 -1.1721018e+03 -1.2649749e+03 -1.3555976e+03 -1.3789053e+03 -1.1934083e+03 -6.9308192e+02 1.9709796e+02 1.2659786e+03 2.1677413e+03 2.6141846e+03 2.4667842e+03 1.9039262e+03 1.1449986e+03 4.3397895e+02 -9.8001666e+01 -4.5390744e+02 -6.7618374e+02 -8.2845272e+02 -9.4198373e+02 -1.0368580e+03 -1.1297271e+03 -1.2359263e+03 -1.3507167e+03 -1.4199144e+03 -1.3086315e+03 -8.9576461e+02 -1.1716459e+02 8.5508842e+02 1.7085234e+03 2.1661020e+03 2.1044498e+03 1.6754308e+03 1.0703535e+03 5.0199405e+02 7.7786231e+01 -2.0921111e+02 -3.9876632e+02 -5.4222772e+02 -6.7742297e+02 -8.2057846e+02 -9.8475972e+02 -1.1699284e+03 -1.3481103e+03 -1.4446145e+03 -1.3027150e+03 -8.2357263e+02 2.0032630e+01 1.0195690e+03 1.8556688e+03 2.2796173e+03 2.1832696e+03 1.7176105e+03 1.0798482e+03 4.6835265e+02 -1.2492779e+01 -3.6252007e+02 -6.1040961e+02 -8.0973465e+02 -9.7891130e+02 -1.1354346e+03 -1.2897716e+03 -1.4382034e+03 -1.5321053e+03 -1.4716012e+03 -1.1075741e+03 -3.9370354e+02 5.8373692e+02 1.5417183e+03 2.1682810e+03 2.3275611e+03 2.0273859e+03 1.4672877e+03 8.4154205e+02 2.9656692e+02 -1.1146403e+02 -4.1093893e+02 -6.4527880e+02 -8.4693879e+02 -1.0289720e+03 -1.2020332e+03 -1.3692047e+03 -1.5096927e+03 -1.5409552e+03 -1.3462449e+03 -7.9166221e+02 7.4688356e+01 1.0434060e+03 1.7944685e+03 2.0739846e+03 1.8922132e+03 1.4010759e+03 8.3405638e+02 3.4526385e+02 -2.2216689e+01 -2.8735645e+02 -5.0652277e+02 -7.0862150e+02 -9.0264712e+02 -1.0891074e+03 -1.2607030e+03 -1.3747867e+03 -1.3440021e+03 -1.0279267e+03 -3.7725498e+02 5.3495746e+02 1.4416052e+03 2.0377671e+03 2.1812268e+03 1.8671176e+03 1.2851507e+03 6.3251882e+02 6.6932535e+01 -3.4326569e+02 -6.2861358e+02 -8.3663252e+02 -1.0078244e+03 -1.1728981e+03 -1.3414293e+03 -1.4942503e+03 -1.5673343e+03 -1.4329257e+03 -9.7562621e+02 -1.4439031e+02 8.8079767e+02 1.7927560e+03 2.3188758e+03 2.3152226e+03 1.8985985e+03 1.2604320e+03 6.1559504e+02 9.5058535e+01 -2.7752886e+02 -5.2649863e+02 -7.0476363e+02 -8.5931889e+02 -1.0268998e+03 -1.2384044e+03 -1.4810482e+03 -1.6678576e+03 -1.6455048e+03 -1.2326045e+03 -4.1934764e+02 6.2975285e+02 1.5717509e+03 2.0894462e+03 2.1042399e+03 1.7020692e+03 1.1093868e+03 5.2445417e+02 5.4838811e+01 -2.7555585e+02 -5.0996894e+02 -6.8861763e+02 -8.4367603e+02 -1.0023450e+03 -1.1722354e+03 -1.3206211e+03 -1.3577157e+03 -1.1383371e+03 -5.8238629e+02 2.9074700e+02 1.2286385e+03 1.9137981e+03 2.1610505e+03 1.9302699e+03 1.3984198e+03 7.7242522e+02 2.1325025e+02 -2.0771698e+02 -5.1243005e+02 -7.4057463e+02 -9.3534236e+02 -1.1228454e+03 -1.3093889e+03 -1.4751211e+03 -1.5593985e+03 -1.4338916e+03 -9.9370272e+02 -1.9300554e+02 7.8706200e+02 1.6521224e+03 2.1471067e+03 2.1411132e+03 1.7505511e+03 1.1463283e+03 5.3825160e+02 4.0337085e+01 -3.3153544e+02 -6.0275480e+02 -8.2122550e+02 -1.0158929e+03 -1.2041922e+03 -1.3865654e+03 -1.5337214e+03 -1.5556877e+03 -1.3327874e+03 -7.4456129e+02 1.4778742e+02 1.1574718e+03 1.9668759e+03 2.3199551e+03 2.1968445e+03 1.6981865e+03 1.0456965e+03 4.2129626e+02 -8.4703388e+01 -4.5201778e+02 -7.1872009e+02 -9.1812604e+02 -1.0857350e+03 -1.2431178e+03 -1.3952146e+03 -1.5023413e+03 -1.4730128e+03 -1.1611607e+03 -5.0576998e+02 4.3345894e+02 1.3697908e+03 1.9969913e+03 2.1583219e+03 1.8568832e+03 1.2904561e+03 6.7238960e+02 1.4474663e+02 -2.3393385e+02 -4.9200274e+02 -6.7621229e+02 -8.3597031e+02 -9.9754397e+02 -1.1723934e+03 -1.3347828e+03 -1.4201736e+03 -1.2973717e+03 -8.5996457e+02 -8.0649499e+01 8.4246630e+02 1.6043037e+03 1.9646745e+03 1.8448449e+03 1.4103041e+03 8.6709124e+02 3.9021932e+02 5.1209336e+01 -1.7520966e+02 -3.3944602e+02 -4.9176843e+02 -6.6471816e+02 -8.7903095e+02 -1.1329415e+03 -1.4060397e+03 -1.5750766e+03 -1.4843247e+03 -9.7724990e+02 -1.2118637e+02 8.3642003e+02 1.5712953e+03 1.8441966e+03 1.6651297e+03 1.1850788e+03 6.5127862e+02 2.4468347e+02 3.5177064e+00 -1.0612432e+02 -1.9546023e+02 -3.3175712e+02 -5.3485732e+02 -7.9667437e+02 -1.0688839e+03 -1.2647057e+03 -1.2590555e+03 -9.0412744e+02 -2.0477846e+02 6.8413959e+02 1.4538585e+03 1.8248796e+03 1.7408236e+03 1.3078078e+03 7.5053264e+02 2.4219266e+02 -1.4187223e+02 -4.0628776e+02 -6.0221298e+02 -7.7446073e+02 -9.4870202e+02 -1.1324550e+03 -1.3133338e+03 -1.4390359e+03 -1.4099948e+03 -1.0838464e+03 -4.1073588e+02 5.2100731e+02 1.4354753e+03 2.0304751e+03 2.1658079e+03 1.8595107e+03 1.3053270e+03 6.9416812e+02 1.6329191e+02 -2.3766891e+02 -5.3002990e+02 -7.5873135e+02 -9.5687225e+02 -1.1456774e+03 -1.3331036e+03 -1.4950200e+03 -1.5583783e+03 -1.3809303e+03 -8.5927989e+02 1.7631302e+01 1.0378558e+03 1.8839918e+03 2.3105378e+03 2.2295498e+03 1.7755470e+03 1.1373345e+03 5.1147510e+02 8.6705903e+00 -3.5897362e+02 -6.1860802e+02 -8.1555521e+02 -9.7991090e+02 -1.1378686e+03 -1.3058879e+03 -1.4771062e+03 -1.5919143e+03 -1.5338671e+03 -1.1453688e+03 -3.9136488e+02 5.9794002e+02 1.5067303e+03 2.0271676e+03 2.0667933e+03 1.7100550e+03 1.1837506e+03 6.6489881e+02 2.3840159e+02 -9.1842338e+01 -3.6409546e+02 -6.0394602e+02 -8.3098972e+02 -1.0454838e+03 -1.2448086e+03 -1.4006207e+03 -1.4433553e+03 -1.2419356e+03 -7.1237236e+02 1.3110019e+02 1.0700555e+03 1.8042621e+03 2.1258050e+03 1.9797999e+03 1.5133938e+03 9.1208945e+02 3.4936652e+02 -8.8514651e+01 -4.0532878e+02 -6.3296149e+02 -8.0995048e+02 -9.6398176e+02 -1.1118284e+03 -1.2658345e+03 -1.4163257e+03 -1.5027016e+03 -1.4120984e+03 -1.0022546e+03 -2.4617782e+02 7.3183595e+02 1.6389710e+03 2.1842324e+03 2.2629808e+03 1.9219414e+03 1.3637869e+03 7.7010670e+02 2.5952880e+02 -1.3350239e+02 -4.3777712e+02 -6.8011841e+02 -8.8969478e+02 -1.0696101e+03 -1.2305181e+03 -1.3806830e+03 -1.5088068e+03 -1.5462888e+03 -1.3737149e+03 -8.5850902e+02 -1.0357676e+01 9.9187670e+02 1.8325275e+03 2.2413028e+03 2.1763391e+03 1.7341299e+03 1.1376897e+03 5.6569617e+02 1.0797447e+02 -2.2448047e+02 -4.7944249e+02 -6.8254303e+02 -8.6302762e+02 -1.0342075e+03 -1.2072368e+03 -1.3776235e+03 -1.5002186e+03 -1.4646212e+03 -1.1416754e+03 -4.4366669e+02 5.1235593e+02 1.4493648e+03 2.0611172e+03 2.1720013e+03 1.8591299e+03 1.3044165e+03 7.2091355e+02 2.3530405e+02 -1.2622347e+02 -3.8654936e+02 -5.9043886e+02 -7.6378780e+02 -9.2506305e+02 -1.0878490e+03 -1.2556258e+03 -1.3971002e+03 -1.4254331e+03 -1.1987843e+03 -6.3488422e+02 2.1428403e+02 1.0917970e+03 1.6874908e+03 1.8442916e+03 1.5953541e+03 1.1409776e+03 6.6833492e+02 2.7750139e+02 -2.4057933e+01 -2.7797574e+02 -5.1430508e+02 -7.3621959e+02 -9.4653775e+02 -1.1410554e+03 -1.2929712e+03 -1.3332076e+03 -1.1432308e+03 -6.3028711e+02 1.9672723e+02 1.1310790e+03 1.8834512e+03 2.2432248e+03 2.1307690e+03 1.6538195e+03 9.6113088e+02 2.3302667e+02 -3.8974297e+02 -8.3715600e+02 -1.1002428e+03 -1.2412753e+03 -1.3275885e+03 -1.4143726e+03 -1.5072564e+03 -1.5458907e+03 -1.3982386e+03 -9.3183754e+02 -1.1386691e+02 8.8716991e+02 1.7697147e+03 2.2638400e+03 2.2514084e+03 1.8398299e+03 1.2171069e+03 5.8616279e+02 6.8112912e+01 -3.1372741e+02 -5.8658663e+02 -8.0003346e+02 -9.8699674e+02 -1.1706170e+03 -1.3508787e+03 -1.4935556e+03 -1.5041777e+03 -1.2563080e+03 -6.4480631e+02 2.6385901e+02 1.2359083e+03 1.9529648e+03 2.1913499e+03 1.9694830e+03 1.4328262e+03 8.0071915e+02 2.3235174e+02 -2.1325055e+02 -5.3976844e+02 -7.8813121e+02 -9.9090741e+02 -1.1738917e+03 -1.3587795e+03 -1.5326807e+03 -1.6293755e+03 -1.5300138e+03 -1.0795182e+03 -2.5507142e+02 7.9653948e+02 1.7651783e+03 2.3199759e+03 2.3578097e+03 1.9417695e+03 1.3103727e+03 6.6416455e+02 1.4342743e+02 -2.3015215e+02 -4.9886625e+02 -7.0621337e+02 -8.9076206e+02 -1.0720127e+03 -1.2611337e+03 -1.4354755e+03 -1.5175492e+03 -1.3631137e+03 -8.7412354e+02 -4.6065341e+01 9.2173252e+02 1.6331705e+03 1.9090797e+03 1.7243766e+03 1.2629247e+03 7.3027034e+02 3.3386171e+02 -6.5038000e+00 -2.6746270e+02 -4.7879996e+02 -6.7819934e+02 -8.8778483e+02 -1.1122435e+03 -1.3591292e+03 -1.4724212e+03 -1.3489666e+03 -8.8378132e+02 -5.9049661e+01 9.1666531e+02 1.7470673e+03 2.1423537e+03 2.0451340e+03 1.5901120e+03 9.7034656e+02 3.7254736e+02 -1.0261595e+02 -4.5321290e+02 -7.1009959e+02 -9.1817330e+02 -1.1064160e+03 -1.2897736e+03 -1.4551402e+03 -1.5448739e+03 -1.4361668e+03 -1.0093006e+03 -2.1062016e+02 8.0646857e+02 1.7581671e+03 2.3697428e+03 2.4919956e+03 2.1729352e+03 1.5303920e+03 7.4729458e+02 -2.1206341e+01 -6.6566596e+02 -1.1324403e+03 -1.4272241e+03 -1.5908226e+03 -1.6765736e+03 -1.7100103e+03 -1.6707272e+03 -1.4718352e+03 -1.0012733e+03 -2.0586705e+02 7.7254689e+02 1.6564055e+03 2.1779849e+03 2.1985387e+03 1.8145245e+03 1.2135377e+03 5.9957937e+02 9.3250577e+01 -2.8414801e+02 -5.6266543e+02 -7.9174231e+02 -1.0149827e+03 -1.2413884e+03 -1.4420456e+03 -1.5353463e+03 -1.3776762e+03 -8.5806182e+02 2.6622607e+00 9.8286340e+02 1.7631134e+03 2.1134934e+03 1.9734491e+03 1.4970518e+03 8.8569963e+02 3.1545974e+02 -1.2681496e+02 -4.4730891e+02 -6.8215416e+02 -8.7580928e+02 -1.0564841e+03 -1.2375771e+03 -1.4099561e+03 -1.5174263e+03 -1.4375120e+03 -1.0423977e+03 -2.7593967e+02 7.0321130e+02 1.5880191e+03 2.0868437e+03 2.0696566e+03 1.6546233e+03 1.0463042e+03 4.5468589e+02 -1.2864770e+01 -3.4566571e+02 -5.7791955e+02 -7.5845504e+02 -9.1843281e+02 -1.0778883e+03 -1.2401072e+03 -1.3706433e+03 -1.3756552e+03 -1.1309362e+03 -5.3104715e+02 3.5146829e+02 1.2791230e+03 1.9381230e+03 2.1209121e+03 1.8609967e+03 1.3173740e+03 7.0961037e+02 1.8222399e+02 -2.1778581e+02 -5.0799401e+02 -7.3515401e+02 -9.3258368e+02 -1.1237228e+03 -1.3143485e+03 -1.4906586e+03 -1.5800587e+03 -1.4606762e+03 -9.8331773e+02 -1.4575710e+02 8.9185628e+02 1.8147593e+03 2.3051991e+03 2.2957002e+03 1.8641066e+03 1.2349877e+03 6.0245615e+02 7.2806980e+01 -3.0912124e+02 -5.9256475e+02 -8.1290080e+02 -9.9479430e+02 -1.1504284e+03 -1.2950358e+03 -1.4369583e+03 -1.5589120e+03 -1.5718991e+03 -1.3410248e+03 -7.2924024e+02 2.2371715e+02 1.3103072e+03 2.1470683e+03 2.4903529e+03 2.3210258e+03 1.7805334e+03 1.1088418e+03 4.9909710e+02 2.4220005e+01 -3.1067363e+02 -5.5140799e+02 -7.3582949e+02 -8.8946252e+02 -1.0233278e+03 -1.1530408e+03 -1.2895145e+03 -1.4315545e+03 -1.5274199e+03 -1.4619945e+03 -1.0772950e+03 -3.5130136e+02 6.6258871e+02 1.6277035e+03 2.2061361e+03 2.2801611e+03 1.9110253e+03 1.3423337e+03 7.5701222e+02 3.0850075e+02 -2.5061686e+01 -2.9133062e+02 -5.2523572e+02 -7.3881868e+02 -9.2657630e+02 -1.0959121e+03 -1.2552673e+03 -1.4128555e+03 -1.5426497e+03 -1.5605999e+03 -1.3177854e+03 -7.0850232e+02 2.4355892e+02 1.2978588e+03 2.1223039e+03 2.4852175e+03 2.3389750e+03 1.8533154e+03 1.2275208e+03 6.4708850e+02 1.9526721e+02 -1.3854826e+02 -3.9292163e+02 -6.0749852e+02 -7.8744138e+02 -9.3339041e+02 -1.0419978e+03 -1.1232885e+03 -1.1981499e+03 -1.2900028e+03 -1.4002917e+03 -1.4778430e+03 -1.3920454e+03 -9.9202934e+02 -1.9183813e+02 8.6785415e+02 1.8854149e+03 2.5112228e+03 2.5945281e+03 2.2247069e+03 1.6039088e+03 9.5492817e+02 4.1592068e+02 4.3566931e+00 -3.0363455e+02 -5.4946737e+02 -7.5403811e+02 -9.2454357e+02 -1.0602903e+03 -1.1715507e+03 -1.2718839e+03 -1.3802578e+03 -1.4900378e+03 -1.5412951e+03 -1.4053980e+03 -9.5541318e+02 -1.2776893e+02 9.0660578e+02 1.8328291e+03 2.3635730e+03 2.3821814e+03 2.0171846e+03 1.4650992e+03 9.2662146e+02 4.8225064e+02 1.3120574e+02 -1.5732215e+02 -4.1091579e+02 -6.3237704e+02 -8.1970162e+02 -9.6492240e+02 -1.0749615e+03 -1.1661435e+03 -1.2613471e+03 -1.3720460e+03 -1.4677126e+03 -1.4539654e+03 -1.1904105e+03 -5.5522360e+02 4.0443636e+02 1.4544792e+03 2.2583265e+03 2.5868626e+03 2.4200452e+03 1.8960283e+03 1.2425532e+03 6.3354463e+02 1.5049331e+02 -2.0746071e+02 -4.8030481e+02 -6.9815282e+02 -8.7676530e+02 -1.0186074e+03 -1.1326175e+03 -1.2353502e+03 -1.3480968e+03 -1.4656231e+03 -1.5299036e+03 -1.4098997e+03 -9.7140424e+02 -1.3814600e+02 8.8447446e+02 1.7917491e+03 2.2943704e+03 2.2780568e+03 1.8652080e+03 1.2694788e+03 6.8653331e+02 2.2548584e+02 -1.0219554e+02 -3.3078490e+02 -5.0684892e+02 -6.5460188e+02 -7.8705912e+02 -9.0331614e+02 -1.0134781e+03 -1.1299172e+03 -1.2559093e+03 -1.3573034e+03 -1.3465349e+03 -1.0792460e+03 -4.7094891e+02 4.3746289e+02 1.3933428e+03 2.0842506e+03 2.3324681e+03 2.1028147e+03 1.5929282e+03 9.9504763e+02 4.5920758e+02 4.4783169e+01 -2.6415780e+02 -5.0021123e+02 -6.9553493e+02 -8.5730980e+02 -9.9283054e+02 -1.1147670e+03 -1.2417811e+03 -1.3797275e+03 -1.4892239e+03 -1.4706158e+03 -1.1897724e+03 -5.4619492e+02 3.8981697e+02 1.3760994e+03 2.0986623e+03 2.3568758e+03 2.1546158e+03 1.6354256e+03 1.0145845e+03 4.5458806e+02 2.4424441e+01 -2.7856382e+02 -5.0126518e+02 -6.7690581e+02 -8.2379308e+02 -9.5072862e+02 -1.0704455e+03 -1.1961239e+03 -1.3320538e+03 -1.4312297e+03 -1.3895343e+03 -1.0569314e+03 -3.7063381e+02 5.9035142e+02 1.5033332e+03 2.0697333e+03 2.1555676e+03 1.8199823e+03 1.2759058e+03 7.2416515e+02 2.7306887e+02 -5.6008965e+01 -3.0205033e+02 -5.0278774e+02 -6.8057703e+02 -8.4154728e+02 -9.9328907e+02 -1.1456082e+03 -1.2973714e+03 -1.4077570e+03 -1.3818094e+03 -1.0805406e+03 -4.2866791e+02 4.8664320e+02 1.4099093e+03 2.0446059e+03 2.2293393e+03 1.9713409e+03 1.4391205e+03 8.2069179e+02 2.7450192e+02 -1.4373402e+02 -4.4855677e+02 -6.7708191e+02 -8.6468027e+02 -1.0306118e+03 -1.1921729e+03 -1.3536029e+03 -1.4938921e+03 -1.5381370e+03 -1.3630512e+03 -8.3696930e+02 2.5703292e+01 1.0346846e+03 1.8830445e+03 2.3157352e+03 2.2654710e+03 1.8294160e+03 1.2261513e+03 6.1030569e+02 1.0538702e+02 -2.6502197e+02 -5.3882358e+02 -7.5256815e+02 -9.3460575e+02 -1.0924332e+03 -1.2437602e+03 -1.3973499e+03 -1.5312561e+03 -1.5628694e+03 -1.3584988e+03 -8.0148473e+02 1.0258109e+02 1.1357195e+03 1.9644616e+03 2.3247844e+03 2.1885468e+03 1.6694830e+03 1.0286797e+03 4.3971881e+02 -1.1350340e+01 -3.2569211e+02 -5.5093673e+02 -7.2716894e+02 -8.8401618e+02 -1.0380949e+03 -1.2007129e+03 -1.3661813e+03 -1.4853611e+03 -1.4455124e+03 -1.1047964e+03 -3.9323766e+02 5.7533402e+02 1.5206936e+03 2.1354114e+03 2.2527336e+03 1.9361899e+03 1.3460280e+03 7.0273417e+02 1.5250852e+02 -2.5931769e+02 -5.5275691e+02 -7.7858378e+02 -9.7364259e+02 -1.1546553e+03 -1.3312549e+03 -1.4853551e+03 -1.5506176e+03 -1.4082911e+03 -9.3613806e+02 -1.0550844e+02 9.2580353e+02 1.8531269e+03 2.3933770e+03 2.4429009e+03 2.0617989e+03 1.4437374e+03 7.7127701e+02 1.5883847e+02 -3.6174727e+02 -8.0048876e+02 -1.1564000e+03 -1.4178987e+03 -1.5927931e+03 -1.7031334e+03 -1.7691180e+03 -1.7675435e+03 -1.5922655e+03 -1.0913270e+03 -2.2021915e+02 8.8444768e+02 1.9087445e+03 2.5306633e+03 2.5930487e+03 2.1756785e+03 1.4902723e+03 7.6368031e+02 1.6229049e+02 -2.6781534e+02 -5.5573993e+02 -7.6357999e+02 -9.3757302e+02 -1.1107480e+03 -1.2964411e+03 -1.4799159e+03 -1.5925030e+03 -1.5068090e+03 -1.0808988e+03 -2.8242764e+02 7.4668037e+02 1.6701576e+03 2.1709429e+03 2.1526154e+03 1.7008409e+03 1.0290195e+03 4.0650725e+02 -7.4989368e+01 -4.0411840e+02 -6.3108515e+02 -8.1002506e+02 -9.7337614e+02 -1.1525437e+03 -1.3393905e+03 -1.4906525e+03 -1.5059479e+03 -1.2314327e+03 -5.7460413e+02 4.3050965e+02 1.4663660e+03 2.2161873e+03 2.4650405e+03 2.1946604e+03 1.5792284e+03 8.4796873e+02 1.8932183e+02 -3.0421383e+02 -6.4297556e+02 -8.7649466e+02 -1.0581619e+03 -1.2224691e+03 -1.3877624e+03 -1.5491230e+03 -1.6532572e+03 -1.5787659e+03 -1.1769430e+03 -3.7328682e+02 6.4993931e+02 1.6734089e+03 2.3231589e+03 2.4061342e+03 2.0066647e+03 1.3242606e+03 5.8555677e+02 1.8903824e+01 -3.6467200e+02 -6.0376069e+02 -7.6704578e+02 -9.0792537e+02 -1.0587691e+03 -1.2279486e+03 -1.4146623e+03 -1.5441860e+03 -1.4942669e+03 -1.0970928e+03 -3.0442157e+02 8.2974693e+02 1.8309850e+03 2.4213734e+03 2.4494908e+03 1.9861895e+03 1.2617745e+03 5.1973290e+02 -8.4931101e+01 -5.0298775e+02 -7.7231331e+02 -9.5330930e+02 -1.0983038e+03 -1.2370366e+03 -1.3804890e+03 -1.5080767e+03 -1.5532621e+03 -1.3943508e+03 -9.0426002e+02 -4.9578658e+01 1.0017400e+03 1.9339721e+03 2.4439789e+03 2.4051617e+03 1.9164675e+03 1.1961324e+03 4.7682773e+02 -9.8321791e+01 -4.9619473e+02 -7.6022121e+02 -9.5368324e+02 -1.1229372e+03 -1.2943576e+03 -1.4694438e+03 -1.6156410e+03 -1.6368971e+03 -1.3911780e+03 -7.5860299e+02 2.2007109e+02 1.3110336e+03 2.1556695e+03 2.5011810e+03 2.3136795e+03 1.7432093e+03 1.0331646e+03 3.8729936e+02 -9.4274394e+01 -4.1914073e+02 -6.4766598e+02 -8.3453853e+02 -1.0087147e+03 -1.1800931e+03 -1.3528758e+03 -1.5247130e+03 -1.6468650e+03 -1.6029168e+03 -1.2392349e+03 -4.6211267e+02 6.1320249e+02 1.6773636e+03 2.3961377e+03 2.5557108e+03 2.2061958e+03 1.5441895e+03 8.2207846e+02 2.0493851e+02 -2.2964743e+02 -5.2262841e+02 -7.3494253e+02 -9.0919228e+02 -1.0659055e+03 -1.2140161e+03 -1.3617706e+03 -1.5016326e+03 -1.5830999e+03 -1.4928831e+03 -1.0895896e+03 -2.9872075e+02 7.6844863e+02 1.7860084e+03 2.4313648e+03 2.5340111e+03 2.1513551e+03 1.4885602e+03 7.9735458e+02 2.0711133e+02 -2.1769679e+02 -5.0435582e+02 -7.1006031e+02 -8.7353764e+02 -1.0174262e+03 -1.1564747e+03 -1.3003271e+03 -1.4468002e+03 -1.5460615e+03 -1.4824148e+03 -1.1079231e+03 -3.6193955e+02 6.5536164e+02 1.6266102e+03 2.2210843e+03 2.2754426e+03 1.8810736e+03 1.2488895e+03 6.2035352e+02 1.2398493e+02 -2.2303313e+02 -4.6042439e+02 -6.3885507e+02 -7.9066447e+02 -9.3369484e+02 -1.0853816e+03 -1.2491359e+03 -1.3997003e+03 -1.4552882e+03 -1.2767472e+03 -7.3514574e+02 1.4832025e+02 1.1604805e+03 1.9753683e+03 2.3385675e+03 2.1937025e+03 1.6827706e+03 1.0249490e+03 4.1128559e+02 -6.2219347e+01 -3.9563964e+02 -6.3334170e+02 -8.2256157e+02 -9.9272888e+02 -1.1607897e+03 -1.3357915e+03 -1.5016018e+03 -1.5905945e+03 -1.4737191e+03 -1.0168725e+03 -1.8687480e+02 8.5669376e+02 1.7860503e+03 2.3000600e+03 2.2899635e+03 1.8462327e+03 1.1831909e+03 5.3379578e+02 1.7393763e+01 -3.4272959e+02 -5.8746194e+02 -7.6765605e+02 -9.1946963e+02 -1.0653512e+03 -1.2175503e+03 -1.3696630e+03 -1.4706880e+03 -1.4091130e+03 -1.0454846e+03 -3.1530917e+02 6.5508103e+02 1.5699540e+03 2.1197819e+03 2.1658053e+03 1.7914917e+03 1.2079373e+03 6.1447818e+02 1.3268629e+02 -2.1971587e+02 -4.7921609e+02 -6.9068279e+02 -8.8218104e+02 -1.0655172e+03 -1.2474304e+03 -1.4168360e+03 -1.5197088e+03 -1.4431504e+03 -1.0543179e+03 -3.1842154e+02 6.6424557e+02 1.5894741e+03 2.1583300e+03 2.2359298e+03 1.8792632e+03 1.2819030e+03 6.5698700e+02 1.3466449e+02 -2.4865162e+02 -5.2295887e+02 -7.3208078e+02 -9.0848029e+02 -1.0694665e+03 -1.2286531e+03 -1.3828057e+03 -1.4942391e+03 -1.4666532e+03 -1.1676460e+03 -4.8836724e+02 4.6138717e+02 1.4323567e+03 2.1072400e+03 2.2992247e+03 2.0256772e+03 1.4665335e+03 8.2993069e+02 2.7752833e+02 -1.2554757e+02 -3.9693426e+02 -5.8854205e+02 -7.4202154e+02 -8.8387846e+02 -1.0249190e+03 -1.1769753e+03 -1.3351198e+03 -1.4537263e+03 -1.4287860e+03 -1.1321206e+03 -4.7064453e+02 4.5038969e+02 1.3529164e+03 1.9239754e+03 2.0044178e+03 1.6728556e+03 1.1318206e+03 6.1683848e+02 2.2490635e+02 -4.7205737e+01 -2.5583474e+02 -4.4998720e+02 -6.4190931e+02 -8.4546471e+02 -1.0501637e+03 -1.2425494e+03 -1.3768318e+03 -1.3595566e+03 -1.0523785e+03 -3.9944407e+02 4.9733821e+02 1.3822752e+03 1.9722225e+03 2.1095980e+03 1.8247192e+03 1.2914855e+03 6.8569575e+02 1.5763510e+02 -2.3979295e+02 -5.2545389e+02 -7.3857297e+02 -9.1259098e+02 -1.0628617e+03 -1.2043139e+03 -1.3429457e+03 -1.4559599e+03 -1.4667117e+03 -1.2482692e+03 -6.8953707e+02 1.8428402e+02 1.1703806e+03 1.9614884e+03 2.3244175e+03 2.2094368e+03 1.7352731e+03 1.1160823e+03 5.3098125e+02 7.4433332e+01 -2.5228650e+02 -4.9310093e+02 -6.8597569e+02 -8.5078196e+02 -9.8646924e+02 -1.0944793e+03 -1.1874836e+03 -1.2830123e+03 -1.3805506e+03 -1.4305820e+03 -1.3166917e+03 -8.9860438e+02 -1.2332254e+02 8.8327435e+02 1.8276141e+03 2.3979933e+03 2.4801321e+03 2.1203076e+03 1.5109153e+03 8.6478740e+02 3.1830694e+02 -9.1037090e+01 -3.9161818e+02 -6.2451492e+02 -8.1580192e+02 -9.7293645e+02 -1.1015559e+03 -1.2157131e+03 -1.3306269e+03 -1.4435257e+03 -1.4963377e+03 -1.3671330e+03 -9.1835873e+02 -1.1383397e+02 8.9738498e+02 1.7828194e+03 2.2593435e+03 2.2279078e+03 1.8005408e+03 1.1974125e+03 6.1741880e+02 1.7743785e+02 -1.4843199e+02 -3.8775936e+02 -5.8187336e+02 -7.5310260e+02 -9.0659201e+02 -1.0515750e+03 -1.1870523e+03 -1.3184799e+03 -1.4146816e+03 -1.3873845e+03 -1.1067955e+03 -4.7891405e+02 4.3600815e+02 1.4071735e+03 2.1144570e+03 2.3503405e+03 2.1112847e+03 1.5660487e+03 9.2328380e+02 3.6200667e+02 -6.5224336e+01 -3.7655919e+02 -6.1658229e+02 -8.1747636e+02 -9.9096405e+02 -1.1475326e+03 -1.2963015e+03 -1.4416885e+03 -1.5573718e+03 -1.5581182e+03 -1.3070011e+03 -6.7695782e+02 2.7304093e+02 1.3189506e+03 2.1382245e+03 2.4890919e+03 2.3384092e+03 1.8250229e+03 1.1705454e+03 5.6297106e+02 9.1175373e+01 -2.4657450e+02 -4.9762410e+02 -7.0151371e+02 -8.7636032e+02 -1.0320635e+03 -1.1720822e+03 -1.3094947e+03 -1.4514533e+03 -1.5726762e+03 -1.5871570e+03 -1.3507989e+03 -7.4120105e+02 2.2063435e+02 1.3062427e+03 2.1693941e+03 2.5517672e+03 2.3980499e+03 1.8635962e+03 1.1818898e+03 5.4984249e+02 6.4246462e+01 -2.7796427e+02 -5.2196384e+02 -7.1600829e+02 -8.7916208e+02 -1.0199575e+03 -1.1480336e+03 -1.2760196e+03 -1.4032499e+03 -1.4849902e+03 -1.4113825e+03 -1.0416400e+03 -3.0564198e+02 6.8117545e+02 1.6228470e+03 2.2073684e+03 2.2789239e+03 1.9108764e+03 1.3095545e+03 6.8949495e+02 1.8249918e+02 -1.8838188e+02 -4.5472938e+02 -6.6486819e+02 -8.4482605e+02 -1.0064613e+03 -1.1592211e+03 -1.3077739e+03 -1.4420194e+03 -1.4976964e+03 -1.3511115e+03 -8.7048749e+02 -3.2225948e+01 9.9749119e+02 1.9153019e+03 2.4011625e+03 2.3640807e+03 1.9040480e+03 1.2325059e+03 5.6372273e+02 3.2366214e+01 -3.4169175e+02 -5.9622590e+02 -7.8466889e+02 -9.4215943e+02 -1.0873642e+03 -1.2342955e+03 -1.3897060e+03 -1.5274960e+03 -1.5625301e+03 -1.3464937e+03 -7.5770301e+02 1.8128443e+02 1.2096122e+03 2.0249843e+03 2.3509818e+03 2.1568367e+03 1.6027591e+03 9.3066758e+02 3.2379544e+02 -1.1486207e+02 -4.0664115e+02 -6.0738819e+02 -7.6562521e+02 -9.1001038e+02 -1.0572042e+03 -1.2107505e+03 -1.3628811e+03 -1.4419777e+03 -1.3204040e+03 -8.6694140e+02 -5.7192886e+01 9.5214277e+02 1.7958483e+03 2.2181858e+03 2.1398912e+03 1.6692410e+03 1.0204872e+03 3.9525495e+02 -9.6315011e+01 -4.4363770e+02 -6.8386956e+02 -8.6622400e+02 -1.0248691e+03 -1.1796057e+03 -1.3344352e+03 -1.4519720e+03 -1.4443910e+03 -1.1760917e+03 -5.5765396e+02 3.5474810e+02 1.3137569e+03 2.0201628e+03 2.2680239e+03 2.0428518e+03 1.4968504e+03 8.4361577e+02 2.5621532e+02 -1.8617389e+02 -4.9317817e+02 -7.1556531e+02 -8.9789414e+02 -1.0654662e+03 -1.2308485e+03 -1.3910153e+03 -1.5279050e+03 -1.5568251e+03 -1.3436238e+03 -7.7606076e+02 1.3182532e+02 1.1671278e+03 2.0064614e+03 2.3528824e+03 2.1970200e+03 1.6737453e+03 1.0080031e+03 3.9412231e+02 -5.5086020e+01 -3.8113051e+02 -6.1015620e+02 -7.9821592e+02 -9.7714048e+02 -1.1606653e+03 -1.3534047e+03 -1.5159310e+03 -1.5721687e+03 -1.3892479e+03 -8.5090428e+02 3.9881398e+01 1.0769574e+03 1.9220745e+03 2.3468515e+03 2.2589397e+03 1.7759625e+03 1.1172370e+03 4.8416348e+02 -2.1083123e+01 -3.6510958e+02 -6.0883193e+02 -8.0165002e+02 -9.6766079e+02 -1.1162438e+03 -1.2522352e+03 -1.3801992e+03 -1.5002842e+03 -1.5383686e+03 -1.3757494e+03 -8.6859134e+02 -6.1580233e+00 1.1324256e+03 2.0249986e+03 2.4833215e+03 2.4121517e+03 1.9373503e+03 1.2761019e+03 6.3801328e+02 1.3329153e+02 -2.2897127e+02 -4.9308127e+02 -7.0720536e+02 -8.9280899e+02 -1.0551669e+03 -1.1994028e+03 -1.3369548e+03 -1.4676964e+03 -1.5505238e+03 -1.4769570e+03 -1.1107363e+03 -3.9185323e+02 6.0807700e+02 1.5859994e+03 2.2192117e+03 2.3348182e+03 1.9846941e+03 1.3708148e+03 7.1830050e+02 1.9858140e+02 -1.6856864e+02 -4.2013341e+02 -6.1228405e+02 -7.8044634e+02 -9.3937845e+02 -1.1029494e+03 -1.2713914e+03 -1.4209638e+03 -1.4774840e+03 -1.3096176e+03 -8.0458063e+02 4.2218992e+01 1.0348435e+03 1.8491406e+03 2.2286672e+03 2.1114751e+03 1.6299393e+03 1.0027828e+03 4.1573266e+02 -4.0551016e+01 -3.6808288e+02 -6.1116893e+02 -8.1145050e+02 -9.9751986e+02 -1.1741074e+03 -1.3475996e+03 -1.4919357e+03 -1.5239410e+03 -1.3172692e+03 -7.5877582e+02 1.1487796e+02 1.1216664e+03 1.9340188e+03 2.3028776e+03 2.1747652e+03 1.6753524e+03 1.0032517e+03 3.8457466e+02 -9.7177909e+01 -4.3471661e+02 -6.7554860e+02 -8.6509778e+02 -1.0315574e+03 -1.1921256e+03 -1.3526766e+03 -1.4967466e+03 -1.5614276e+03 -1.4216914e+03 -9.5095836e+02 -1.0751155e+02 9.2936541e+02 1.8502736e+03 2.3719924e+03 2.3704750e+03 1.9431796e+03 1.3015391e+03 6.4197862e+02 1.0495381e+02 -2.8244785e+02 -5.5563209e+02 -7.6317121e+02 -9.3522708e+02 -1.0871687e+03 -1.2299302e+03 -1.3722781e+03 -1.4959773e+03 -1.5299883e+03 -1.3391161e+03 -8.0835427e+02 7.5721516e+01 1.1052823e+03 1.9458496e+03 2.3340319e+03 2.2012432e+03 1.6824383e+03 1.0203141e+03 4.1255356e+02 -4.4340962e+01 -3.5724422e+02 -5.7421382e+02 -7.4498668e+02 -8.9415271e+02 -1.0443247e+03 -1.2012586e+03 -1.3581773e+03 -1.4668271e+03 -1.4220014e+03 -1.0734475e+03 -3.6499329e+02 6.0378401e+02 1.5479455e+03 2.1497525e+03 2.2573217e+03 1.9140122e+03 1.3200863e+03 6.8598771e+02 1.5073458e+02 -2.4480451e+02 -5.3146650e+02 -7.5180573e+02 -9.3790005e+02 -1.1055141e+03 -1.2666063e+03 -1.4183692e+03 -1.5211725e+03 -1.4715519e+03 -1.1412073e+03 -4.3711206e+02 5.5423520e+02 1.5617565e+03 2.2656779e+03 2.4611752e+03 2.1664333e+03 1.5445711e+03 8.4072876e+02 2.3046711e+02 -2.1560470e+02 -5.1269741e+02 -7.1966434e+02 -8.8040003e+02 -1.0235956e+03 -1.1584004e+03 -1.2949010e+03 -1.4371331e+03 -1.5584599e+03 -1.5683199e+03 -1.3210151e+03 -6.9332450e+02 2.7054359e+02 1.3237988e+03 2.1228629e+03 2.4186537e+03 2.2187990e+03 1.6852817e+03 1.0525503e+03 4.9209740e+02 6.4009150e+01 -2.5053783e+02 -4.9374647e+02 -7.0476880e+02 -8.9226514e+02 -1.0617416e+03 -1.2247057e+03 -1.3867565e+03 -1.5197162e+03 -1.5321897e+03 -1.2851302e+03 -6.6877876e+02 2.6976831e+02 1.2940092e+03 2.0833430e+03 2.4031003e+03 2.2317214e+03 1.7124335e+03 1.0643269e+03 4.6665298e+02 3.3054312e-01 -3.3561125e+02 -5.8446828e+02 -7.8410442e+02 -9.4988531e+02 -1.0928601e+03 -1.2287501e+03 -1.3725680e+03 -1.5156455e+03 -1.5781062e+03 -1.4289451e+03 -9.1865878e+02 -3.4655435e+01 1.0384714e+03 1.9636979e+03 2.4545150e+03 2.4161569e+03 1.9490012e+03 1.2800774e+03 6.2596700e+02 1.1006333e+02 -2.4889149e+02 -4.9575944e+02 -6.8394168e+02 -8.4314983e+02 -9.8116011e+02 -1.1029418e+03 -1.2177471e+03 -1.3378461e+03 -1.4413044e+03 -1.4502836e+03 -1.2250670e+03 -6.4900979e+02 2.6423149e+02 1.2872738e+03 2.0568662e+03 2.3569497e+03 2.1539321e+03 1.6228648e+03 9.8862670e+02 4.3812970e+02 1.3584980e+01 -2.8580997e+02 -5.0752819e+02 -6.9031753e+02 -8.5462576e+02 -1.0155181e+03 -1.1785898e+03 -1.3450721e+03 -1.4791034e+03 -1.4895921e+03 -1.2326813e+03 -6.1625138e+02 2.9876631e+02 1.2935432e+03 2.0336011e+03 2.3079327e+03 2.0952075e+03 1.5561318e+03 8.9723557e+02 3.0964998e+02 -1.4052260e+02 -4.6917901e+02 -7.2077126e+02 -9.3567487e+02 -1.1340665e+03 -1.3238676e+03 -1.4929066e+03 -1.5892320e+03 -1.4992848e+03 -1.1017992e+03 -3.4171265e+02 6.4013574e+02 1.5688193e+03 2.1564941e+03 2.2531584e+03 1.9204263e+03 1.3317313e+03 6.9608469e+02 1.4834104e+02 -2.6483530e+02 -5.6300647e+02 -7.9068566e+02 -9.8035263e+02 -1.1518442e+03 -1.3157177e+03 -1.4604084e+03 -1.5349080e+03 -1.4364308e+03 -1.0301783e+03 -2.7427536e+02 6.7673979e+02 1.6136435e+03 2.2108661e+03 2.3194597e+03 1.9871430e+03 1.3941587e+03 7.4529445e+02 1.8611114e+02 -2.0899405e+02 -4.8675978e+02 -6.9075637e+02 -8.5610235e+02 -1.0006676e+03 -1.1379906e+03 -1.2824000e+03 -1.4261461e+03 -1.5125610e+03 -1.4266411e+03 -1.0208147e+03 -2.4393135e+02 7.5347173e+02 1.6648914e+03 2.1837713e+03 2.2031502e+03 1.7995281e+03 1.1932881e+03 5.9707337e+02 1.1502357e+02 -2.2315981e+02 -4.6145622e+02 -6.4646616e+02 -8.0799526e+02 -9.6048715e+02 -1.1092388e+03 -1.2544466e+03 -1.3669225e+03 -1.3610973e+03 -1.1194573e+03 -5.4938799e+02 2.8456875e+02 1.1887451e+03 1.8649968e+03 2.1156664e+03 1.9357067e+03 1.4590626e+03 8.6292969e+02 3.2962614e+02 -9.1111931e+01 -4.0043061e+02 -6.3448307e+02 -8.2246684e+02 -9.8769225e+02 -1.1508706e+03 -1.3171808e+03 -1.4498569e+03 -1.4528780e+03 -1.1809435e+03 -5.5847149e+02 3.4622458e+02 1.2681011e+03 1.9099361e+03 2.1097893e+03 1.8690870e+03 1.3543205e+03 7.6460509e+02 2.3916794e+02 -1.5420557e+02 -4.3409899e+02 -6.4261808e+02 -8.1689646e+02 -9.7660338e+02 -1.1320749e+03 -1.2802087e+03 -1.3894915e+03 -1.3707477e+03 -1.1061152e+03 -5.0153302e+02 3.5295897e+02 1.2699481e+03 1.9407540e+03 2.1661725e+03 1.9447717e+03 1.4176350e+03 7.7845758e+02 2.1452581e+02 -2.0782130e+02 -4.9365784e+02 -6.9192994e+02 -8.4605971e+02 -9.8646854e+02 -1.1277053e+03 -1.2700283e+03 -1.3754720e+03 -1.3590886e+03 -1.0934166e+03 -5.0733704e+02 3.4197667e+02 1.2049267e+03 1.7923592e+03 1.9478133e+03 1.6880042e+03 1.1886127e+03 6.4035826e+02 1.7068319e+02 -1.8089553e+02 -4.2957166e+02 -6.0756206e+02 -7.4428321e+02 -8.6386699e+02 -9.9285159e+02 -1.1323106e+03 -1.2427296e+03 -1.2112643e+03 -9.1077373e+02 -2.7003373e+02 5.7292311e+02 1.3915773e+03 1.9125829e+03 1.9927044e+03 1.6887885e+03 1.1612488e+03 5.9336656e+02 9.9036426e+01 -2.6860552e+02 -5.3895725e+02 -7.5304873e+02 -9.3965139e+02 -1.1174350e+03 -1.2886971e+03 -1.4331556e+03 -1.4747567e+03 -1.3010041e+03 -7.9717046e+02 1.6729626e+01 9.5775454e+02 1.7408775e+03 2.1288990e+03 2.0628730e+03 1.6343146e+03 1.0390643e+03 4.5725664e+02 -7.5433174e+00 -3.4213310e+02 -5.8509352e+02 -7.8345754e+02 -9.7388181e+02 -1.1769116e+03 -1.3965893e+03 -1.5809508e+03 -1.6379345e+03 -1.4138004e+03 -8.1415802e+02 1.3176552e+02 1.1757607e+03 1.9737123e+03 2.3356631e+03 2.1909945e+03 1.6907192e+03 1.0433867e+03 4.3467181e+02 -4.4094391e+01 -3.8209636e+02 -6.2319590e+02 -8.1494856e+02 -9.8938453e+02 -1.1680118e+03 -1.3536643e+03 -1.5114830e+03 -1.5424328e+03 -1.3151799e+03 -7.1512647e+02 1.9267213e+02 1.1682655e+03 1.9004700e+03 2.1459397e+03 1.9340747e+03 1.4159239e+03 8.1598307e+02 2.9043566e+02 -1.0589171e+02 -3.9912709e+02 -6.3286296e+02 -8.4095249e+02 -1.0431187e+03 -1.2433602e+03 -1.4221206e+03 -1.5100683e+03 -1.4155855e+03 -1.0040054e+03 -2.2340856e+02 7.6579976e+02 1.6675549e+03 2.2177671e+03 2.1866804e+03 1.7293647e+03 1.0667687e+03 4.1153779e+02 -1.0821335e+02 -4.6395832e+02 -7.0181760e+02 -8.7411769e+02 -1.0273475e+03 -1.1844615e+03 -1.3499022e+03 -1.4951976e+03 -1.5425084e+03 -1.3534392e+03 -8.1616969e+02 7.4023592e+01 1.1025441e+03 1.9386114e+03 2.3353800e+03 2.2082545e+03 1.7171863e+03 1.0723981e+03 4.6233780e+02 -2.0071754e+01 -3.7996196e+02 -6.5188023e+02 -8.8628041e+02 -1.1035521e+03 -1.3116903e+03 -1.4947278e+03 -1.6009362e+03 -1.5156568e+03 -1.1231837e+03 -3.5753042e+02 6.4410489e+02 1.5930997e+03 2.1918611e+03 2.2640481e+03 1.8865053e+03 1.2365056e+03 5.4707171e+02 -2.3674639e+01 -4.3286456e+02 -7.0610191e+02 -9.0306933e+02 -1.0632898e+03 -1.2144104e+03 -1.3650841e+03 -1.4948451e+03 -1.5249162e+03 -1.3334213e+03 -7.8575757e+02 1.0200412e+02 1.1406135e+03 2.0101884e+03 2.4280974e+03 2.3355300e+03 1.8233262e+03 1.1326808e+03 4.6313216e+02 -7.3384176e+01 -4.5398984e+02 -7.2620375e+02 -9.3147575e+02 -1.1111839e+03 -1.2805552e+03 -1.4456275e+03 -1.5799409e+03 -1.6056711e+03 -1.3761888e+03 -7.8299582e+02 1.4726789e+02 1.1804806e+03 1.9798089e+03 2.3194182e+03 2.1330208e+03 1.6122128e+03 9.4487050e+02 3.3537854e+02 -1.1999726e+02 -4.3069492e+02 -6.4289661e+02 -8.1398922e+02 -9.8225297e+02 -1.1665266e+03 -1.3565061e+03 -1.4955680e+03 -1.4615495e+03 -1.1255854e+03 -4.1645228e+02 5.4709780e+02 1.4741333e+03 2.0626634e+03 2.1403637e+03 1.7817571e+03 1.1693972e+03 5.3706758e+02 2.1364739e+01 -3.4946663e+02 -6.0600427e+02 -8.0573874e+02 -9.8661480e+02 -1.1691931e+03 -1.3507716e+03 -1.4869264e+03 -1.4724057e+03 -1.1800299e+03 -5.1502104e+02 4.5086167e+02 1.4214582e+03 2.1064526e+03 2.2945674e+03 2.0195430e+03 1.4315319e+03 7.8214819e+02 1.9084719e+02 -2.5908139e+02 -5.7342056e+02 -8.0337313e+02 -9.9462884e+02 -1.1771158e+03 -1.3665109e+03 -1.5290496e+03 -1.5903112e+03 -1.4271548e+03 -9.0342662e+02 -3.6194755e+01 9.6758217e+02 1.8155719e+03 2.2134892e+03 2.1029757e+03 1.5968301e+03 9.3106259e+02 3.1757350e+02 -1.4038370e+02 -4.4396283e+02 -6.4423183e+02 -8.0539666e+02 -9.7113856e+02 -1.1559510e+03 -1.3397818e+03 -1.4506938e+03 -1.3759958e+03 -9.8477041e+02 -2.4760833e+02 6.9915697e+02 1.5937767e+03 2.0734972e+03 2.0735254e+03 1.6590042e+03 1.0472542e+03 4.3706605e+02 -5.4446058e+01 -3.9786562e+02 -6.4571070e+02 -8.4216926e+02 -1.0236442e+03 -1.2022261e+03 -1.3647367e+03 -1.4534469e+03 -1.3676456e+03 -9.7513826e+02 -2.5110581e+02 6.8710090e+02 1.5589959e+03 2.0716525e+03 2.1207039e+03 1.7467638e+03 1.1497483e+03 5.2897725e+02 1.5414110e+01 -3.4971340e+02 -6.0430614e+02 -7.9026765e+02 -9.5134579e+02 -1.1107317e+03 -1.2766903e+03 -1.4292719e+03 -1.5032044e+03 -1.3769070e+03 -9.3125297e+02 -1.2984198e+02 8.5956006e+02 1.7339981e+03 2.2241316e+03 2.2021066e+03 1.7773292e+03 1.1475552e+03 5.2045474e+02 1.8180004e+01 -3.4476373e+02 -5.9286935e+02 -7.9079604e+02 -9.5953187e+02 -1.1178148e+03 -1.2736179e+03 -1.4150855e+03 -1.4843821e+03 -1.3682832e+03 -9.3427874e+02 -1.6600228e+02 8.0118509e+02 1.6743218e+03 2.1637523e+03 2.1821815e+03 1.7913617e+03 1.1946705e+03 5.8933641e+02 9.5488399e+01 -2.5655488e+02 -5.0832133e+02 -6.9710570e+02 -8.5759507e+02 -1.0063728e+03 -1.1554930e+03 -1.3038483e+03 -1.4157369e+03 -1.3928122e+03 -1.1137528e+03 -4.8156555e+02 4.1447253e+02 1.3219662e+03 1.9423476e+03 2.0817737e+03 1.7929356e+03 1.2483420e+03 6.6507250e+02 1.8091716e+02 -1.7372144e+02 -4.2141772e+02 -6.1162078e+02 -7.7542638e+02 -9.3174973e+02 -1.0917898e+03 -1.2520588e+03 -1.3706543e+03 -1.3572708e+03 -1.0718895e+03 -4.5070754e+02 4.3902923e+02 1.3376312e+03 1.9375043e+03 2.0870274e+03 1.8090274e+03 1.2771655e+03 6.9054443e+02 1.8419249e+02 -1.9739179e+02 -4.7882632e+02 -7.0046581e+02 -8.8157140e+02 -1.0461221e+03 -1.2072000e+03 -1.3584289e+03 -1.4528740e+03 -1.3849736e+03 -1.0316908e+03 -3.2698494e+02 6.1222223e+02 1.5151089e+03 2.0991246e+03 2.2048836e+03 1.8738793e+03 1.3011843e+03 6.9114068e+02 1.7903385e+02 -2.0363084e+02 -4.8052392e+02 -6.9993200e+02 -8.9305053e+02 -1.0747889e+03 -1.2530391e+03 -1.4237430e+03 -1.5443483e+03 -1.5230278e+03 -1.2144818e+03 -5.5238475e+02 3.9694415e+02 1.3665454e+03 2.0354577e+03 2.2343771e+03 1.9593247e+03 1.4008235e+03 7.6853234e+02 2.2236444e+02 -1.7223073e+02 -4.4137172e+02 -6.2977407e+02 -7.8193938e+02 -9.2378210e+02 -1.0708630e+03 -1.2245102e+03 -1.3550131e+03 -1.3746784e+03 -1.1691977e+03 -6.1979354e+02 2.2663568e+02 1.1496370e+03 1.8444658e+03 2.0873916e+03 1.8711358e+03 1.3543961e+03 7.5607144e+02 2.3184130e+02 -1.6468212e+02 -4.4375371e+02 -6.5101857e+02 -8.1666140e+02 -9.6301665e+02 -1.1048427e+03 -1.2459010e+03 -1.3526573e+03 -1.3408559e+03 -1.0789610e+03 -4.8756166e+02 3.7892620e+02 1.2804147e+03 1.9186167e+03 2.1232862e+03 1.8908511e+03 1.3730012e+03 7.6664781e+02 2.2588306e+02 -1.8357819e+02 -4.7734800e+02 -6.9933360e+02 -8.8534310e+02 -1.0500827e+03 -1.2108256e+03 -1.3621053e+03 -1.4652151e+03 -1.4179366e+03 -1.1154779e+03 -4.5790175e+02 4.5782404e+02 1.3863692e+03 2.0410096e+03 2.2291077e+03 1.9795307e+03 1.4391167e+03 8.2007687e+02 2.7620138e+02 -1.3601824e+02 -4.2487577e+02 -6.3833154e+02 -8.0896235e+02 -9.5906578e+02 -1.1036797e+03 -1.2541367e+03 -1.3999556e+03 -1.4840623e+03 -1.3810687e+03 -9.6943923e+02 -1.9594279e+02 7.7649715e+02 1.6464202e+03 2.1412082e+03 2.1287482e+03 1.7195989e+03 1.1098395e+03 5.1173028e+02 5.0073532e+01 -2.6448849e+02 -4.7137774e+02 -6.2709338e+02 -7.7043123e+02 -9.1981425e+02 -1.0838388e+03 -1.2519159e+03 -1.3727044e+03 -1.3472830e+03 -1.0363696e+03 -3.8564021e+02 5.1401576e+02 1.3948734e+03 1.9594545e+03 2.0719279e+03 1.7649947e+03 1.2221702e+03 6.4086387e+02 1.5228937e+02 -2.0434758e+02 -4.6292937e+02 -6.6845371e+02 -8.4683856e+02 -1.0137131e+03 -1.1768488e+03 -1.3336263e+03 -1.4523050e+03 -1.4397347e+03 -1.1687901e+03 -5.4170992e+02 3.6155489e+02 1.3153353e+03 2.0290454e+03 2.2830479e+03 2.1063031e+03 1.6054182e+03 9.9223007e+02 4.3198829e+02 -2.6342222e+00 -3.1196663e+02 -5.4628748e+02 -7.3565256e+02 -8.9779408e+02 -1.0345768e+03 -1.1541584e+03 -1.2686504e+03 -1.3822868e+03 -1.4594516e+03 -1.4166539e+03 -1.1073184e+03 -4.5382455e+02 4.9143820e+02 1.4752030e+03 2.1944759e+03 2.4300293e+03 2.1795674e+03 1.6285570e+03 9.7669186e+02 3.9206659e+02 -4.4207544e+01 -3.5899147e+02 -5.9449007e+02 -7.8300468e+02 -9.3974452e+02 -1.0764330e+03 -1.2056473e+03 -1.3379804e+03 -1.4428360e+03 -1.4463652e+03 -1.2057949e+03 -6.3333246e+02 2.5141574e+02 1.2024954e+03 1.9234414e+03 2.2082893e+03 2.0132492e+03 1.5090616e+03 8.9897940e+02 3.5514548e+02 -4.8620443e+01 -3.2341094e+02 -5.1780813e+02 -6.7624410e+02 -8.1765429e+02 -9.5312448e+02 -1.0910453e+03 -1.2352266e+03 -1.3610099e+03 -1.3975530e+03 -1.2083408e+03 -6.9744219e+02 1.4398853e+02 1.1065589e+03 1.8837740e+03 2.2579668e+03 2.1444580e+03 1.6856567e+03 1.0666470e+03 4.8119751e+02 1.4288362e+01 -3.2619723e+02 -5.7402982e+02 -7.7249096e+02 -9.4131809e+02 -1.0955410e+03 -1.2410715e+03 -1.3815716e+03 -1.4832274e+03 -1.4641751e+03 -1.1805006e+03 -5.5910609e+02 3.4520313e+02 1.3244070e+03 2.0543354e+03 2.3444665e+03 2.1503250e+03 1.6334827e+03 9.8227121e+02 3.9966021e+02 -3.9047936e+01 -3.5252719e+02 -5.8239515e+02 -7.7228330e+02 -9.3551733e+02 -1.0794480e+03 -1.2122880e+03 -1.3445106e+03 -1.4663777e+03 -1.5198209e+03 -1.3701852e+03 -8.9460737e+02 -4.4356752e+01 9.9464590e+02 1.9018143e+03 2.4027700e+03 2.3624744e+03 1.9142131e+03 1.2518061e+03 6.0013103e+02 9.2190567e+01 -2.6043848e+02 -4.9640412e+02 -6.7595814e+02 -8.2905799e+02 -9.7328720e+02 -1.1126992e+03 -1.2528961e+03 -1.3878929e+03 -1.4756452e+03 -1.4035968e+03 -1.0455346e+03 -3.1086230e+02 6.7710756e+02 1.6364840e+03 2.2624651e+03 2.3619083e+03 2.0040618e+03 1.3770819e+03 7.1655783e+02 1.7511221e+02 -2.1677839e+02 -4.8692461e+02 -6.9245417e+02 -8.6735192e+02 -1.0209450e+03 -1.1581329e+03 -1.2894503e+03 -1.4156746e+03 -1.5027876e+03 -1.4439038e+03 -1.1134956e+03 -4.0163467e+02 5.9073828e+02 1.6017336e+03 2.3153612e+03 2.5065967e+03 2.2214993e+03 1.6103166e+03 9.1773629e+02 3.2098424e+02 -1.2050875e+02 -4.2523583e+02 -6.5127512e+02 -8.3627787e+02 -9.9595007e+02 -1.1321720e+03 -1.2547550e+03 -1.3734995e+03 -1.4838432e+03 -1.5299713e+03 -1.3959594e+03 -9.2609497e+02 -8.8926417e+01 9.7317390e+02 1.9622949e+03 2.4816655e+03 2.4713223e+03 1.9928586e+03 1.2980991e+03 6.1179835e+02 7.6801546e+01 -2.8885312e+02 -5.3410128e+02 -7.1238906e+02 -8.6289765e+02 -9.9945042e+02 -1.1326989e+03 -1.2761152e+03 -1.4251711e+03 -1.5329300e+03 -1.4916468e+03 -1.1289476e+03 -3.7858132e+02 6.7373331e+02 1.7227449e+03 2.3986737e+03 2.5348393e+03 2.1434663e+03 1.4681803e+03 7.4916296e+02 1.5521706e+02 -2.5717001e+02 -5.4022492e+02 -7.4826832e+02 -9.2599781e+02 -1.0897608e+03 -1.2477771e+03 -1.4107820e+03 -1.5616262e+03 -1.6288040e+03 -1.4900666e+03 -9.8538454e+02 -8.4261528e+01 1.0191296e+03 1.9929297e+03 2.5040231e+03 2.4725212e+03 1.9742440e+03 1.2690344e+03 5.8306934e+02 3.4246016e+01 -3.3919630e+02 -5.8913323e+02 -7.6254012e+02 -9.0376162e+02 -1.0418864e+03 -1.1961356e+03 -1.3720574e+03 -1.5292491e+03 -1.5552688e+03 -1.3128711e+03 -6.7153068e+02 2.9213121e+02 1.3451991e+03 2.1428119e+03 2.4218002e+03 2.1929072e+03 1.5957682e+03 8.7886843e+02 2.5817698e+02 -1.9335603e+02 -4.7840519e+02 -6.6780727e+02 -8.0979356e+02 -9.3422123e+02 -1.0533058e+03 -1.1770505e+03 -1.3097300e+03 -1.4242189e+03 -1.4247852e+03 -1.1798822e+03 -5.4665081e+02 3.9643848e+02 1.4070934e+03 2.1463345e+03 2.3537929e+03 2.0666145e+03 1.4531328e+03 7.5776493e+02 1.7696095e+02 -2.2826297e+02 -4.7631973e+02 -6.4016966e+02 -7.6945784e+02 -8.9467283e+02 -1.0296284e+03 -1.1781055e+03 -1.3220372e+03 -1.4007868e+03 -1.2840166e+03 -8.6186498e+02 -7.1090907e+01 9.1400970e+02 1.7863294e+03 2.2714856e+03 2.2255745e+03 1.7730035e+03 1.1038895e+03 4.4229299e+02 -7.6948181e+01 -4.3947304e+02 -6.8020757e+02 -8.5990564e+02 -1.0113555e+03 -1.1584189e+03 -1.3084790e+03 -1.4491907e+03 -1.5174630e+03 -1.4031176e+03 -9.4221037e+02 -1.3563205e+02 8.8894080e+02 1.8198987e+03 2.3422383e+03 2.3629334e+03 1.9343789e+03 1.2874789e+03 6.1463578e+02 6.6804290e+01 -3.1397672e+02 -5.7509883e+02 -7.6730971e+02 -9.3357249e+02 -1.0801455e+03 -1.2222701e+03 -1.3642834e+03 -1.4868428e+03 -1.5096620e+03 -1.3175519e+03 -7.6439948e+02 1.2248986e+02 1.1456701e+03 1.9761991e+03 2.3309370e+03 2.1832891e+03 1.6388295e+03 9.6583739e+02 3.5658032e+02 -9.9694520e+01 -3.9699498e+02 -5.9861606e+02 -7.4896919e+02 -8.8293717e+02 -1.0146108e+03 -1.1522404e+03 -1.2876957e+03 -1.3762450e+03 -1.3062504e+03 -9.6273443e+02 -2.6895546e+02 6.4586586e+02 1.5174337e+03 2.0718687e+03 2.1372186e+03 1.8068192e+03 1.2243151e+03 6.0862078e+02 1.0044810e+02 -2.6889169e+02 -5.2261744e+02 -7.1594886e+02 -8.7979396e+02 -1.0352723e+03 -1.1917325e+03 -1.3422058e+03 -1.4352821e+03 -1.3739601e+03 -1.0140079e+03 -3.1910716e+02 6.1497617e+02 1.5117304e+03 2.0727885e+03 2.1778867e+03 1.8497015e+03 1.2710565e+03 6.4412876e+02 1.1874022e+02 -2.4744328e+02 -4.9057726e+02 -6.6303129e+02 -8.1006631e+02 -9.5179815e+02 -1.0986442e+03 -1.2478614e+03 -1.3725145e+03 -1.3930044e+03 -1.1996682e+03 -6.7453788e+02 1.3799157e+02 1.0494692e+03 1.7656774e+03 2.0413972e+03 1.8785602e+03 1.3828525e+03 7.7631744e+02 2.2655098e+02 -1.9541893e+02 -4.9176149e+02 -7.2237482e+02 -9.3271685e+02 -1.1425129e+03 -1.3262926e+03 -1.4111274e+03 -1.2606095e+03 -7.8976678e+02 1.6399571e+00 9.2004693e+02 1.6668193e+03 2.0294213e+03 1.9216954e+03 1.4841093e+03 8.9773918e+02 3.5185645e+02 -5.1080896e+01 -3.2488601e+02 -5.1212459e+02 -6.6428417e+02 -7.9812435e+02 -9.1087232e+02 -1.0060106e+03 -1.0894754e+03 -1.1797233e+03 -1.2840821e+03 -1.3655531e+03 -1.3224913e+03 -9.8875085e+02 -2.8968382e+02 7.1620696e+02 1.7402780e+03 2.4339039e+03 2.6219449e+03 2.2820049e+03 1.6444663e+03 9.2918049e+02 3.0922965e+02 -1.4274157e+02 -4.5951393e+02 -6.8277100e+02 -8.5977050e+02 -1.0044376e+03 -1.1299623e+03 -1.2485485e+03 -1.3690813e+03 -1.4688380e+03 -1.4835388e+03 -1.2765802e+03 -7.3575400e+02 1.4689972e+02 1.1590944e+03 1.9718731e+03 2.3454483e+03 2.1607052e+03 1.6201283e+03 9.3962743e+02 3.2480973e+02 -1.2071488e+02 -4.1583275e+02 -6.1010186e+02 -7.6185283e+02 -8.9865732e+02 -1.0356391e+03 -1.1817338e+03 -1.3318144e+03 -1.4384468e+03 -1.4045018e+03 -1.0683019e+03 -3.6732172e+02 6.2159209e+02 1.6004127e+03 2.2317964e+03 2.3372943e+03 1.9544346e+03 1.3206608e+03 6.5921963e+02 1.1870869e+02 -2.5584690e+02 -5.1195234e+02 -6.9528994e+02 -8.4501355e+02 -9.7884436e+02 -1.1147558e+03 -1.2662820e+03 -1.4163603e+03 -1.4930323e+03 -1.3665317e+03 -8.7282183e+02 -1.7547504e+01 1.0254636e+03 1.9134714e+03 2.3307683e+03 2.2206846e+03 1.6767147e+03 9.6526812e+02 3.0985735e+02 -1.7346020e+02 -4.6298687e+02 -6.3670989e+02 -7.5145980e+02 -8.5615264e+02 -9.7596937e+02 -1.1191619e+03 -1.2766365e+03 -1.3829392e+03 -1.3176250e+03 -9.5668919e+02 -2.1640130e+02 7.5959782e+02 1.6741786e+03 2.2410020e+03 2.2750180e+03 1.8688814e+03 1.2015880e+03 5.1358269e+02 -3.8792920e+01 -4.2728942e+02 -6.7522194e+02 -8.5541713e+02 -1.0086488e+03 -1.1583451e+03 -1.3089573e+03 -1.4387901e+03 -1.4831984e+03 -1.3312977e+03 -8.4221541e+02 -2.0527757e+01 9.7622109e+02 1.8363355e+03 2.2668368e+03 2.1923607e+03 1.7016304e+03 1.0362122e+03 4.0049370e+02 -9.1738374e+01 -4.1238210e+02 -6.3399078e+02 -7.9833270e+02 -9.4079677e+02 -1.0734127e+03 -1.2038140e+03 -1.3323402e+03 -1.4277852e+03 -1.3951386e+03 -1.1168161e+03 -4.7280697e+02 4.5947089e+02 1.4434024e+03 2.1617927e+03 2.3757685e+03 2.1166448e+03 1.5253062e+03 8.4670252e+02 2.5820817e+02 -1.7570213e+02 -4.6065480e+02 -6.6066133e+02 -8.1603545e+02 -9.5332832e+02 -1.0841692e+03 -1.2173817e+03 -1.3458430e+03 -1.4297128e+03 -1.3544368e+03 -1.0029400e+03 -2.8836384e+02 6.5352660e+02 1.5546120e+03 2.0955957e+03 2.1259930e+03 1.7479030e+03 1.1446073e+03 5.3781590e+02 6.1639267e+01 -2.7175527e+02 -4.9535730e+02 -6.6642996e+02 -8.1651815e+02 -9.6375534e+02 -1.1148455e+03 -1.2631991e+03 -1.3574315e+03 -1.3083442e+03 -9.7684361e+02 -3.1655327e+02 5.8982840e+02 1.4624925e+03 2.0236322e+03 2.1323336e+03 1.7990080e+03 1.2261875e+03 6.0894736e+02 8.8589645e+01 -2.8288363e+02 -5.4393039e+02 -7.3722536e+02 -9.0351341e+02 -1.0608520e+03 -1.2176529e+03 -1.3634671e+03 -1.4500035e+03 -1.3654200e+03 -9.9919812e+02 -2.7807889e+02 6.6154459e+02 1.5439263e+03 2.1118403e+03 2.1955532e+03 1.8674238e+03 1.2816308e+03 6.5481082e+02 1.3124848e+02 -2.5503762e+02 -5.1608759e+02 -7.1199127e+02 -8.7425073e+02 -1.0239929e+03 -1.1719739e+03 -1.3216817e+03 -1.4373894e+03 -1.4422310e+03 -1.1957474e+03 -6.1654895e+02 2.7064774e+02 1.2246183e+03 1.9267113e+03 2.1988853e+03 1.9870735e+03 1.4707155e+03 8.4975672e+02 2.9879419e+02 -9.7030423e+01 -3.6943770e+02 -5.5479913e+02 -7.0361120e+02 -8.4108773e+02 -9.8259983e+02 -1.1359492e+03 -1.2849438e+03 -1.3649186e+03 -1.2704358e+03 -8.6069619e+02 -1.2952959e+02 7.8274782e+02 1.5891645e+03 1.9902063e+03 1.9388728e+03 1.5196653e+03 9.5084647e+02 4.1168596e+02 -1.3496931e+00 -2.9212199e+02 -5.0489965e+02 -6.8004295e+02 -8.4428863e+02 -1.0070491e+03 -1.1692060e+03 -1.3093178e+03 -1.3660560e+03 -1.2158041e+03 -7.6355957e+02 1.5841294e+01 9.3628581e+02 1.7008554e+03 2.1051111e+03 2.0264893e+03 1.5943054e+03 9.8296872e+02 3.8846825e+02 -7.9625563e+01 -4.0610756e+02 -6.2442497e+02 -7.9261033e+02 -9.4073762e+02 -1.0861311e+03 -1.2335722e+03 -1.3664190e+03 -1.4234704e+03 -1.2997352e+03 -8.5856364e+02 -9.2199586e+01 8.6412222e+02 1.7211393e+03 2.1863082e+03 2.1826923e+03 1.7668430e+03 1.1521491e+03 5.3151303e+02 2.7956719e+01 -3.2163068e+02 -5.6589548e+02 -7.4278355e+02 -8.8818753e+02 -1.0189436e+03 -1.1499284e+03 -1.2896333e+03 -1.4122633e+03 -1.4351403e+03 -1.2338561e+03 -6.7727508e+02 1.9300550e+02 1.1635882e+03 1.9257913e+03 2.2234835e+03 2.0493297e+03 1.5304038e+03 9.0655990e+02 3.5578341e+02 -5.3048488e+01 -3.2140619e+02 -5.1229167e+02 -6.6775965e+02 -8.1415680e+02 -9.6357856e+02 -1.1193465e+03 -1.2776665e+03 -1.3861660e+03 -1.3252676e+03 -9.7820088e+02 -2.7020050e+02 6.5018496e+02 1.5108593e+03 2.0022895e+03 1.9958824e+03 1.5993501e+03 1.0005741e+03 4.1549140e+02 -2.4322790e+01 -3.1556257e+02 -4.9324725e+02 -6.2710275e+02 -7.6174391e+02 -9.1757164e+02 -1.0939732e+03 -1.2655568e+03 -1.3645408e+03 -1.2865257e+03 -8.9063760e+02 -1.6212209e+02 7.7726523e+02 1.6417856e+03 2.1302533e+03 2.1520870e+03 1.7498185e+03 1.1349091e+03 5.0053206e+02 -3.0716948e+01 -4.0507549e+02 -6.6873772e+02 -8.6427046e+02 -1.0307478e+03 -1.1876606e+03 -1.3408396e+03 -1.4650662e+03 -1.4953122e+03 -1.2970912e+03 -7.7582269e+02 7.9675158e+01 1.0602550e+03 1.8583826e+03 2.2403328e+03 2.1200271e+03 1.6455328e+03 1.0117820e+03 4.1466013e+02 -4.1464238e+01 -3.6142871e+02 -5.8521781e+02 -7.6570873e+02 -9.2962556e+02 -1.0921516e+03 -1.2596750e+03 -1.4213645e+03 -1.5151650e+03 -1.4348105e+03 -1.0324047e+03 -2.7542097e+02 7.1710501e+02 1.6331778e+03 2.1881375e+03 2.2552365e+03 1.8723245e+03 1.2616721e+03 6.2915066e+02 1.1117425e+02 -2.5542167e+02 -4.9936845e+02 -6.7684109e+02 -8.2669446e+02 -9.6793590e+02 -1.1124561e+03 -1.2551124e+03 -1.3763072e+03 -1.3786006e+03 -1.1451096e+03 -5.6049067e+02 2.9901483e+02 1.2152965e+03 1.8668873e+03 2.0452165e+03 1.8002290e+03 1.2835589e+03 7.1024753e+02 2.2042004e+02 -1.4282498e+02 -4.0432895e+02 -6.0531608e+02 -7.7399282e+02 -9.3193717e+02 -1.0919509e+03 -1.2532876e+03 -1.3687086e+03 -1.3469866e+03 -1.0485564e+03 -4.1895905e+02 4.6982731e+02 1.3592310e+03 1.9535015e+03 2.1146061e+03 1.8331320e+03 1.2921925e+03 6.8282966e+02 1.5459802e+02 -2.3162151e+02 -5.0472488e+02 -7.0412875e+02 -8.7023811e+02 -1.0223156e+03 -1.1718583e+03 -1.3151134e+03 -1.4137037e+03 -1.3698515e+03 -1.0708960e+03 -4.2917318e+02 4.5864402e+02 1.3545966e+03 1.9799522e+03 2.1442740e+03 1.8897552e+03 1.3558818e+03 7.5289064e+02 2.3055358e+02 -1.4542617e+02 -4.1342922e+02 -6.0807092e+02 -7.6231094e+02 -9.0048690e+02 -1.0363489e+03 -1.1777645e+03 -1.3129492e+03 -1.3672317e+03 -1.2203194e+03 -7.7179364e+02 -7.7697104e+00 8.7708471e+02 1.5804933e+03 1.9147453e+03 1.7939357e+03 1.3724442e+03 8.4001238e+02 3.6643675e+02 2.5548333e+01 -2.0752190e+02 -3.8492055e+02 -5.5408991e+02 -7.2875773e+02 -9.0381299e+02 -1.0688204e+03 -1.2052169e+03 -1.2576615e+03 -1.1374002e+03 -7.3098164e+02 -4.5079651e+01 7.8245477e+02 1.4962520e+03 1.8512379e+03 1.8041954e+03 1.4249317e+03 8.9844189e+02 3.8332306e+02 -3.0108588e+01 -3.2434147e+02 -5.4370290e+02 -7.2298498e+02 -8.8932086e+02 -1.0518986e+03 -1.2054931e+03 -1.3144128e+03 -1.3087457e+03 -1.0700264e+03 -5.4079316e+02 2.4327612e+02 1.0730161e+03 1.6916460e+03 1.9349597e+03 1.7749651e+03 1.3511674e+03 8.2408260e+02 3.3669487e+02 -4.3834489e+01 -3.2787614e+02 -5.4213695e+02 -7.1742228e+02 -8.6572731e+02 -9.9854306e+02 -1.1269496e+03 -1.2501142e+03 -1.3319724e+03 -1.2859048e+03 -9.8310121e+02 -3.7418492e+02 4.7162546e+02 1.3144473e+03 1.8860207e+03 2.0507576e+03 1.8162747e+03 1.3463494e+03 8.1109886e+02 3.4104607e+02 -1.2657067e+01 -2.7867497e+02 -4.8821872e+02 -6.6929841e+02 -8.2927431e+02 -9.7396790e+02 -1.1120729e+03 -1.2467419e+03 -1.3513571e+03 -1.3527112e+03 -1.1236179e+03 -5.8531726e+02 2.3398603e+02 1.1095149e+03 1.7652028e+03 2.0185806e+03 1.8387994e+03 1.3861492e+03 8.4456315e+02 3.7379969e+02 2.0385607e+01 -2.2795868e+02 -4.0850706e+02 -5.5809461e+02 -6.9026757e+02 -8.1388495e+02 -9.3863157e+02 -1.0710570e+03 -1.1941354e+03 -1.2428260e+03 -1.0878918e+03 -6.3498181e+02 1.3124109e+02 9.9346400e+02 1.6647429e+03 1.9409299e+03 1.7643631e+03 1.2911530e+03 7.1095023e+02 1.9239611e+02 -1.8617752e+02 -4.3830886e+02 -5.9564179e+02 -6.9725133e+02 -7.6769325e+02 -8.3805331e+02 -9.3776181e+02 -1.0692497e+03 -1.1760747e+03 -1.1382562e+03 -8.0425914e+02 -1.4338621e+02 7.3389051e+02 1.5464160e+03 2.0135703e+03 2.0328674e+03 1.6466370e+03 1.0566016e+03 4.4912059e+02 -3.7891773e+01 -3.7873354e+02 -6.1653003e+02 -8.0008934e+02 -9.6921465e+02 -1.1392282e+03 -1.3091093e+03 -1.4346611e+03 -1.4279964e+03 -1.1525632e+03 -5.4287733e+02 3.4960782e+02 1.2663490e+03 1.9009310e+03 2.0846815e+03 1.8073816e+03 1.2522339e+03 6.2403983e+02 8.7848149e+01 -2.9713442e+02 -5.5545442e+02 -7.3194947e+02 -8.6930385e+02 -9.8762376e+02 -1.1038831e+03 -1.2202039e+03 -1.3165941e+03 -1.3146647e+03 -1.0930628e+03 -5.3256351e+02 3.3260948e+02 1.2909926e+03 2.0670503e+03 2.3934056e+03 2.2497158e+03 1.7547995e+03 1.1374874e+03 5.6231369e+02 1.3866345e+02 -1.5808921e+02 -3.8515628e+02 -5.9128406e+02 -8.0918725e+02 -1.0526246e+03 -1.3290623e+03 -1.6189745e+03 -1.8554461e+03 -1.9155364e+03 -1.6668198e+03 -1.0058416e+03 -2.2198323e+01 9.9011195e+02 1.7119639e+03 1.9419977e+03 1.7412314e+03 1.2937159e+03 8.1988431e+02 4.2690059e+02 1.2775267e+02 -1.1419013e+02 -3.3679067e+02 -5.5223379e+02 -7.6488396e+02 -9.8159277e+02 -1.1931165e+03 -1.3492478e+03 -1.3405229e+03 -1.0138878e+03 -3.1292859e+02 6.4935449e+02 1.6072253e+03 2.2227288e+03 2.3437068e+03 1.9864310e+03 1.3615043e+03 6.7854911e+02 9.9898243e+01 -3.1998137e+02 -6.1736122e+02 -8.3970920e+02 -1.0321006e+03 -1.2186539e+03 -1.4065448e+03 -1.5707845e+03 -1.6387327e+03 -1.4779586e+03 -9.8307337e+02 -1.4621375e+02 8.2610081e+02 1.6191729e+03 1.9948509e+03 1.8821349e+03 1.4330555e+03 8.5643139e+02 3.4164874e+02 -2.3595555e+01 -2.6608698e+02 -4.4028966e+02 -6.0269057e+02 -7.7826094e+02 -9.6896178e+02 -1.1615771e+03 -1.3098743e+03 -1.3228087e+03 -1.0847549e+03 -5.0057345e+02 3.5859056e+02 1.2622855e+03 1.9261097e+03 2.1377062e+03 1.9079208e+03 1.3739017e+03 7.6080957e+02 2.3938146e+02 -1.2518478e+02 -3.4290205e+02 -4.8744745e+02 -6.2227059e+02 -7.9323047e+02 -1.0240115e+03 -1.2995030e+03 -1.5689253e+03 -1.7190148e+03 -1.5884875e+03 -1.0760908e+03 -1.9229007e+02 8.3165147e+02 1.6847418e+03 2.1152150e+03 2.0658065e+03 1.6660289e+03 1.0960849e+03 5.3199435e+02 6.8674655e+01 -2.7876831e+02 -5.3417136e+02 -7.3125953e+02 -8.8919998e+02 -1.0245813e+03 -1.1494107e+03 -1.2631558e+03 -1.3223316e+03 -1.2308886e+03 -8.5739643e+02 -1.6024428e+02 7.5310011e+02 1.5977178e+03 2.1036736e+03 2.1450898e+03 1.7692807e+03 1.1842924e+03 5.8551624e+02 8.4076680e+01 -2.6429822e+02 -5.1576646e+02 -7.1292317e+02 -8.8299602e+02 -1.0366044e+03 -1.1809296e+03 -1.3141874e+03 -1.4144120e+03 -1.3914958e+03 -1.1261852e+03 -5.1652715e+02 3.6180447e+02 1.2670226e+03 1.8867184e+03 2.0214219e+03 1.7233795e+03 1.1720950e+03 5.9460243e+02 1.3206482e+02 -1.9419799e+02 -4.1583305e+02 -5.8644234e+02 -7.3745490e+02 -8.8607036e+02 -1.0399814e+03 -1.1931411e+03 -1.3010003e+03 -1.2697459e+03 -9.5972118e+02 -3.1401144e+02 5.8420414e+02 1.4702097e+03 2.0197042e+03 2.1179142e+03 1.8203230e+03 1.3336785e+03 8.3717988e+02 4.1644825e+02 6.1857399e+01 -2.7783678e+02 -6.2661597e+02 -9.7765774e+02 -1.3135814e+03 -1.6162273e+03 -1.8424550e+03 -1.9132572e+03 -1.6992607e+03 -1.1299598e+03 -2.4592572e+02 7.1994139e+02 1.4757851e+03 1.8059188e+03 1.6902835e+03 1.2984349e+03 8.4383015e+02 4.8829285e+02 2.6667381e+02 1.0792517e+02 -7.5286915e+01 -3.0831544e+02 -5.7049261e+02 -8.2835647e+02 -1.0529804e+03 -1.2007153e+03 -1.1887687e+03 -9.2649017e+02 -3.6205606e+02 3.9760839e+02 1.1398210e+03 1.6421819e+03 1.7691406e+03 1.5572056e+03 1.1189576e+03 6.1655842e+02 1.6706385e+02 -1.8517994e+02 -4.5249023e+02 -6.6397681e+02 -8.4858556e+02 -1.0204439e+03 -1.1839872e+03 -1.3301156e+03 -1.4148676e+03 -1.3485194e+03 -1.0144673e+03 -3.7132377e+02 4.8415496e+02 1.3033305e+03 1.8270958e+03 1.9356769e+03 1.6645885e+03 1.1830434e+03 6.6528605e+02 2.2996459e+02 -8.8894742e+01 -3.1721960e+02 -4.9947778e+02 -6.5991091e+02 -8.1129318e+02 -9.6315199e+02 -1.1194628e+03 -1.2605334e+03 -1.3152957e+03 -1.1685825e+03 -7.0889074e+02 4.4751850e+01 9.1457212e+02 1.6176972e+03 1.9294614e+03 1.8224456e+03 1.4008894e+03 8.6332770e+02 3.6731898e+02 -1.3775481e+01 -2.8086732e+02 -4.7429392e+02 -6.2868220e+02 -7.6812204e+02 -9.0654766e+02 -1.0508269e+03 -1.1861277e+03 -1.2542515e+03 -1.1440034e+03 -7.5316305e+02 -6.6022435e+01 7.5522763e+02 1.4436624e+03 1.7778173e+03 1.6939014e+03 1.3102427e+03 8.0678149e+02 3.3980841e+02 -2.2778479e+01 -2.9179808e+02 -5.0327640e+02 -6.9572904e+02 -8.8041512e+02 -1.0614317e+03 -1.2252369e+03 -1.3209751e+03 -1.2374748e+03 -8.6667696e+02 -1.7355386e+02 6.9530399e+02 1.4732234e+03 1.9122387e+03 1.9030390e+03 1.5307018e+03 9.5988833e+02 3.8114664e+02 -8.9299346e+01 -4.2911546e+02 -6.6747250e+02 -8.5575616e+02 -1.0210178e+03 -1.1811856e+03 -1.3294348e+03 -1.4242057e+03 -1.3714879e+03 -1.0589204e+03 -3.9944487e+02 5.2078985e+02 1.4693724e+03 2.1627678e+03 2.4120657e+03 2.2242203e+03 1.7165310e+03 1.0905854e+03 4.8991492e+02 -1.3121433e+01 -4.1011379e+02 -7.2566462e+02 -9.7800717e+02 -1.1950200e+03 -1.3855384e+03 -1.5526125e+03 -1.6670297e+03 -1.6582878e+03 -1.4148916e+03 -8.7331787e+02 -8.6274151e+01 7.1531655e+02 1.2545542e+03 1.3936726e+03 1.1805372e+03 8.2578917e+02 5.3559530e+02 3.9648580e+02 3.6330515e+02 3.2214116e+02 1.9510866e+02 -2.8826321e+01 -3.1796567e+02 -6.3689675e+02 -9.4106531e+02 -1.1626730e+03 -1.1981161e+03 -9.4080889e+02 -3.4735894e+02 4.8220500e+02 1.2964232e+03 1.8300153e+03 1.9305276e+03 1.6417375e+03 1.1028277e+03 5.2311636e+02 2.7389407e+01 -3.4096900e+02 -6.0118562e+02 -7.9824272e+02 -9.6377404e+02 -1.1202726e+03 -1.2746327e+03 -1.4124178e+03 -1.4767795e+03 -1.3648733e+03 -9.5410127e+02 -2.1131401e+02 7.1429486e+02 1.5558952e+03 2.0525029e+03 2.0985966e+03 1.7502094e+03 1.1948587e+03 6.0912376e+02 1.2196701e+02 -2.3117131e+02 -4.8349643e+02 -6.7785230e+02 -8.4632696e+02 -1.0035332e+03 -1.1566391e+03 -1.3053131e+03 -1.4207430e+03 -1.4220514e+03 -1.1893877e+03 -6.3851523e+02 2.1263794e+02 1.1521650e+03 1.8879765e+03 2.1981859e+03 2.0670315e+03 1.6033437e+03 1.0243930e+03 4.9370231e+02 7.9776831e+01 -2.2238130e+02 -4.5558937e+02 -6.5073682e+02 -8.1914940e+02 -9.6581405e+02 -1.0968052e+03 -1.2237062e+03 -1.3449625e+03 -1.4156787e+03 -1.3331972e+03 -9.6635642e+02 -2.6736972e+02 6.5122010e+02 1.5117827e+03 2.0325232e+03 2.0937208e+03 1.7577359e+03 1.2152005e+03 6.5777661e+02 2.0353685e+02 -1.2216727e+02 -3.5702991e+02 -5.4223296e+02 -7.0050203e+02 -8.3964521e+02 -9.6499340e+02 -1.0851619e+03 -1.2029876e+03 -1.2901409e+03 -1.2646374e+03 -1.0028641e+03 -4.2373538e+02 4.2208766e+02 1.3066897e+03 1.9459786e+03 2.1631011e+03 1.9579893e+03 1.4855875e+03 9.3255668e+02 4.3811218e+02 4.9300866e+01 -2.4706135e+02 -5.0786079e+02 -7.4285141e+02 -9.5375394e+02 -1.1446656e+03 -1.3247442e+03 -1.4957355e+03 -1.6168380e+03 -1.5811865e+03 -1.2532161e+03 -5.7020912e+02 3.7755654e+02 1.3155382e+03 1.9426704e+03 2.1165184e+03 1.8676322e+03 1.3886549e+03 8.7455258e+02 4.5222363e+02 1.5129897e+02 -6.5905130e+01 -2.4384586e+02 -4.1872459e+02 -6.1941095e+02 -8.7305266e+02 -1.1925474e+03 -1.5249157e+03 -1.7506248e+03 -1.6755690e+03 -1.1404011e+03 -2.0876897e+02 8.6759178e+02 1.7557528e+03 2.1437488e+03 2.0398808e+03 1.5769432e+03 9.7397567e+02 4.0898527e+02 -2.8422588e+01 -3.3435844e+02 -5.6397716e+02 -7.5168607e+02 -9.2488276e+02 -1.0939704e+03 -1.2557860e+03 -1.3797707e+03 -1.3833299e+03 -1.1494152e+03 -5.9500233e+02 2.4682623e+02 1.1681486e+03 1.8686986e+03 2.1944416e+03 2.0433147e+03 1.5326455e+03 8.5035213e+02 2.0367387e+02 -2.8835189e+02 -6.3052127e+02 -8.3938063e+02 -9.8269546e+02 -1.0965434e+03 -1.2104874e+03 -1.3378064e+03 -1.4511660e+03 -1.4601824e+03 -1.2320922e+03 -6.4408098e+02 2.6015999e+02 1.2726224e+03 2.0846858e+03 2.4492220e+03 2.3235617e+03 1.8648241e+03 1.2929074e+03 7.7608095e+02 3.7649406e+02 7.0469800e+01 -2.1758873e+02 -5.2418135e+02 -8.6053033e+02 -1.2243732e+03 -1.6078665e+03 -1.9797481e+03 -2.2701788e+03 -2.3312517e+03 -2.0193075e+03 -1.2616494e+03 -1.9646818e+02 9.1311558e+02 1.7907627e+03 2.2214926e+03 2.2178808e+03 1.8769088e+03 1.3745909e+03 8.6498272e+02 4.3896080e+02 1.1022273e+02 -1.6160676e+02 -4.1383617e+02 -6.6402008e+02 -9.1011230e+02 -1.1377034e+03 -1.3112972e+03 -1.3583120e+03 -1.1741554e+03 -6.8092658e+02 9.2856831e+01 9.4540984e+02 1.5984238e+03 1.8451793e+03 1.6665641e+03 1.2119939e+03 6.7404127e+02 1.9839050e+02 -1.5793485e+02 -4.2728974e+02 -6.4401922e+02 -8.3623226e+02 -1.0184904e+03 -1.1975118e+03 -1.3640439e+03 -1.4740190e+03 -1.4171915e+03 -1.0719523e+03 -3.7118096e+02 5.7626669e+02 1.5058796e+03 2.1216690e+03 2.2580339e+03 1.9517925e+03 1.3698492e+03 7.2676020e+02 1.7251439e+02 -2.3917313e+02 -5.2487901e+02 -7.4727434e+02 -9.2779901e+02 -1.0883609e+03 -1.2409782e+03 -1.3888417e+03 -1.5039856e+03 -1.4950369e+03 -1.2279723e+03 -6.0867696e+02 3.2681749e+02 1.3380119e+03 2.1080883e+03 2.4095871e+03 2.2074282e+03 1.6601048e+03 9.8242285e+02 3.6363020e+02 -1.0570486e+02 -4.2270662e+02 -6.5382872e+02 -8.3532201e+02 -9.9475848e+02 -1.1502536e+03 -1.3105957e+03 -1.4682648e+03 -1.5456402e+03 -1.4302010e+03 -9.9018433e+02 -2.0672564e+02 7.5876905e+02 1.5993750e+03 2.0534150e+03 2.0622819e+03 1.7130629e+03 1.2023688e+03 6.7984259e+02 2.1480661e+02 -1.9571327e+02 -5.5084881e+02 -8.6278785e+02 -1.1289737e+03 -1.3499829e+03 -1.5218871e+03 -1.6074329e+03 -1.5285321e+03 -1.1711075e+03 -4.7700182e+02 4.8806052e+02 1.4798740e+03 2.1909445e+03 2.4179931e+03 2.1375810e+03 1.5302190e+03 8.2827582e+02 2.2475541e+02 -1.9669015e+02 -4.5112303e+02 -6.0590299e+02 -7.2258561e+02 -8.4759411e+02 -1.0081960e+03 -1.2047991e+03 -1.3887806e+03 -1.4466481e+03 -1.2315585e+03 -6.5728271e+02 1.9033548e+02 1.0566574e+03 1.6408465e+03 1.7698773e+03 1.4828862e+03 9.0586157e+02 2.5748359e+02 -2.9347535e+02 -6.5980215e+02 -8.1342939e+02 -7.9494974e+02 -6.9922016e+02 -6.2886855e+02 -6.4687425e+02 -7.5231641e+02 -8.8235143e+02 -9.1225432e+02 -6.8620335e+02 -1.1926890e+02 7.1706632e+02 1.5687930e+03 2.1449551e+03 2.2756152e+03 1.9641648e+03 1.3824624e+03 7.2945544e+02 1.5596023e+02 -2.8175752e+02 -5.9931371e+02 -8.3704955e+02 -1.0331021e+03 -1.2009983e+03 -1.3529600e+03 -1.4902430e+03 -1.5821539e+03 -1.5397127e+03 -1.2371513e+03 -5.9013898e+02 3.3250137e+02 1.2915368e+03 1.9850512e+03 2.2215731e+03 2.0144202e+03 1.5056241e+03 9.0623549e+02 3.7149244e+02 -3.8278728e+01 -3.3672219e+02 -5.6955347e+02 -7.6351585e+02 -9.3865004e+02 -1.1067451e+03 -1.2749057e+03 -1.4253623e+03 -1.4877244e+03 -1.3367384e+03 -8.5700570e+02 -5.0789446e+01 8.8171596e+02 1.6357069e+03 1.9789636e+03 1.8715145e+03 1.4574062e+03 9.3280270e+02 4.4977917e+02 6.5364273e+01 -2.3510087e+02 -4.8310504e+02 -7.1305919e+02 -9.3449333e+02 -1.1514324e+03 -1.3481147e+03 -1.4668470e+03 -1.3920623e+03 -1.0036470e+03 -2.6920642e+02 6.5996484e+02 1.5010344e+03 1.9867445e+03 2.0019476e+03 1.6232108e+03 1.0412293e+03 4.5565258e+02 -6.1462151e+00 -3.1495862e+02 -5.1151365e+02 -6.6331500e+02 -8.2029748e+02 -1.0071107e+03 -1.2099000e+03 -1.3660454e+03 -1.3621084e+03 -1.0678995e+03 -4.3161291e+02 4.5595405e+02 1.3288149e+03 1.9003771e+03 2.0100294e+03 1.6977467e+03 1.1268739e+03 5.1456646e+02 7.3200953e+00 -3.4514930e+02 -5.6980692e+02 -7.2339872e+02 -8.4917808e+02 -9.7202463e+02 -1.1033684e+03 -1.2353448e+03 -1.3190750e+03 -1.2496888e+03 -9.0011747e+02 -2.2234292e+02 6.5246472e+02 1.4422054e+03 1.8758569e+03 1.8521738e+03 1.4659749e+03 9.3439956e+02 4.1742811e+02 2.1416078e+01 -2.4711024e+02 -4.3335452e+02 -5.8142723e+02 -7.2382072e+02 -8.7991711e+02 -1.0479709e+03 -1.1998266e+03 -1.2509428e+03 -1.0749645e+03 -5.7815892e+02 1.9339121e+02 1.0336161e+03 1.6562742e+03 1.8737451e+03 1.6765208e+03 1.2116585e+03 6.6537562e+02 1.8537006e+02 -1.7489258e+02 -4.3389361e+02 -6.3377516e+02 -8.1080301e+02 -9.8498014e+02 -1.1567101e+03 -1.3113259e+03 -1.3779665e+03 -1.2405294e+03 -7.9867035e+02 -4.7101885e+01 8.6117115e+02 1.6065300e+03 1.9845612e+03 1.9283404e+03 1.5328815e+03 9.7492089e+02 4.2674745e+02 -1.4248504e+01 -3.3307365e+02 -5.6263449e+02 -7.4387027e+02 -9.0566624e+02 -1.0662514e+03 -1.2307988e+03 -1.3762386e+03 -1.4296055e+03 -1.2696333e+03 -7.8841408e+02 3.9639584e+00 9.1271287e+02 1.6773784e+03 2.0603304e+03 1.9974175e+03 1.5832573e+03 1.0123302e+03 4.5969090e+02 1.7103439e+01 -2.8589198e+02 -4.9845477e+02 -6.6258433e+02 -8.0616726e+02 -9.4587167e+02 -1.0924528e+03 -1.2431169e+03 -1.3532696e+03 -1.3221041e+03 -1.0185957e+03 -3.7613623e+02 5.0184777e+02 1.3532695e+03 1.8923907e+03 1.9798773e+03 1.6711190e+03 1.1446765e+03 5.9626324e+02 1.5058243e+02 -1.7545648e+02 -4.0760546e+02 -5.9105092e+02 -7.5526406e+02 -9.1625335e+02 -1.0825417e+03 -1.2451023e+03 -1.3621483e+03 -1.3376217e+03 -1.0448607e+03 -4.1378649e+02 4.6938586e+02 1.3388980e+03 1.9405376e+03 2.0978038e+03 1.8268684e+03 1.2947739e+03 6.9442031e+02 1.6068853e+02 -2.3484488e+02 -5.2184084e+02 -7.4082581e+02 -9.2532020e+02 -1.0961078e+03 -1.2618331e+03 -1.4085609e+03 -1.4840370e+03 -1.3721578e+03 -9.5435543e+02 -1.9153447e+02 7.7020151e+02 1.6615526e+03 2.1854369e+03 2.2306145e+03 1.8668995e+03 1.2755345e+03 6.5779754e+02 1.4802278e+02 -2.3596014e+02 -5.1819080e+02 -7.4151946e+02 -9.3282689e+02 -1.1067344e+03 -1.2718450e+03 -1.4345560e+03 -1.5543040e+03 -1.5486679e+03 -1.2849789e+03 -6.6186176e+02 2.6974859e+02 1.2564067e+03 1.9991472e+03 2.2711019e+03 2.0586443e+03 1.5269655e+03 8.9539884e+02 3.3764696e+02 -7.6124251e+01 -3.5938310e+02 -5.6443646e+02 -7.3358809e+02 -8.9092182e+02 -1.0508559e+03 -1.2145722e+03 -1.3684062e+03 -1.4348429e+03 -1.2885807e+03 -8.0571378e+02 8.1393020e+00 9.8460985e+02 1.7771947e+03 2.1447609e+03 2.0306246e+03 1.5578070e+03 9.3734397e+02 3.5331733e+02 -9.5163710e+01 -4.1545857e+02 -6.4390214e+02 -8.2364140e+02 -9.8528082e+02 -1.1462483e+03 -1.3088399e+03 -1.4325872e+03 -1.4241322e+03 -1.1517980e+03 -5.2673846e+02 3.8360677e+02 1.3298871e+03 2.0078442e+03 2.2240642e+03 1.9710134e+03 1.4091798e+03 7.5193562e+02 1.6989176e+02 -2.6922912e+02 -5.7001843e+02 -7.8561577e+02 -9.6118202e+02 -1.1263349e+03 -1.2933601e+03 -1.4439882e+03 -1.5180465e+03 -1.3934231e+03 -9.4478415e+02 -1.4250790e+02 8.4996685e+02 1.7335116e+03 2.2310996e+03 2.2148016e+03 1.7852417e+03 1.1465026e+03 5.0633684e+02 -1.1368699e+01 -3.7717328e+02 -6.3575428e+02 -8.3171440e+02 -1.0006510e+03 -1.1646460e+03 -1.3302024e+03 -1.4725179e+03 -1.5101108e+03 -1.3081379e+03 -7.5707149e+02 1.2099021e+02 1.1081750e+03 1.8807609e+03 2.1987537e+03 2.0270650e+03 1.4963742e+03 8.3272402e+02 2.2645846e+02 -2.2701848e+02 -5.2904707e+02 -7.2044616e+02 -8.5341022e+02 -9.6391554e+02 -1.0726646e+03 -1.1801498e+03 -1.2489120e+03 -1.1855841e+03 -8.6811675e+02 -2.3022213e+02 6.3080416e+02 1.4528156e+03 1.9530227e+03 1.9830496e+03 1.6042435e+03 1.0128766e+03 4.1864011e+02 -4.8520183e+01 -3.6884673e+02 -5.8699002e+02 -7.6162430e+02 -9.3594239e+02 -1.1225475e+03 -1.3130111e+03 -1.4604236e+03 -1.4625248e+03 -1.1742870e+03 -5.2135142e+02 4.1588291e+02 1.3763050e+03 2.0504993e+03 2.2409589e+03 1.9648662e+03 1.3848330e+03 7.1692673e+02 1.3436619e+02 -2.9503674e+02 -5.8968190e+02 -8.0159280e+02 -9.8007795e+02 -1.1488084e+03 -1.3188300e+03 -1.4682646e+03 -1.5222789e+03 -1.3570981e+03 -8.6438402e+02 -2.0891832e+01 9.7856179e+02 1.8236926e+03 2.2483505e+03 2.1663526e+03 1.6883038e+03 1.0199224e+03 3.8656752e+02 -1.1182659e+02 -4.6173088e+02 -7.0708140e+02 -8.9595217e+02 -1.0607329e+03 -1.2173876e+03 -1.3666486e+03 -1.4741990e+03 -1.4534682e+03 -1.1717825e+03 -5.4246797e+02 3.7837790e+02 1.3473174e+03 2.0475434e+03 2.2776752e+03 2.0270220e+03 1.4595912e+03 8.0058538e+02 2.1078851e+02 -2.2797714e+02 -5.2863938e+02 -7.4165260e+02 -9.1469192e+02 -1.0793399e+03 -1.2474100e+03 -1.4059741e+03 -1.4951265e+03 -1.3954204e+03 -9.7900494e+02 -2.1217774e+02 7.4581651e+02 1.6185612e+03 2.1025621e+03 2.0849664e+03 1.6541774e+03 1.0261845e+03 3.9821772e+02 -8.2405780e+01 -4.1167894e+02 -6.3194128e+02 -7.9648537e+02 -9.4402662e+02 -1.0945402e+03 -1.2512682e+03 -1.3756350e+03 -1.3711636e+03 -1.1037803e+03 -4.8526566e+02 4.1689981e+02 1.3614267e+03 2.0079692e+03 2.1780511e+03 1.8913896e+03 1.3182468e+03 6.7511753e+02 1.2401983e+02 -2.8716686e+02 -5.7511682e+02 -7.8897330e+02 -9.6960746e+02 -1.1409345e+03 -1.3092440e+03 -1.4511180e+03 -1.4913886e+03 -1.3064575e+03 -7.8434397e+02 6.0593352e+01 1.0289078e+03 1.8164270e+03 2.1781389e+03 2.0508866e+03 1.5508209e+03 8.8562361e+02 2.5188100e+02 -2.4163933e+02 -5.6843821e+02 -7.6398478e+02 -8.7627481e+02 -9.5364186e+02 -1.0394224e+03 -1.1531980e+03 -1.2608511e+03 -1.2599811e+03 -1.0048428e+03 -4.0937668e+02 4.5548432e+02 1.3452219e+03 1.9668379e+03 2.1326018e+03 1.8554737e+03 1.2983333e+03 6.6529060e+02 1.1324739e+02 -2.9013149e+02 -5.6364301e+02 -7.5872379e+02 -9.1141769e+02 -1.0477570e+03 -1.1822544e+03 -1.3140211e+03 -1.4081505e+03 -1.3729273e+03 -1.0867818e+03 -4.6785776e+02 4.1555316e+02 1.3264400e+03 1.9678482e+03 2.1801257e+03 1.9479206e+03 1.4252309e+03 8.1240553e+02 2.7077003e+02 -1.3232818e+02 -4.1992920e+02 -6.1664832e+02 -7.7306657e+02 -9.1148875e+02 -1.0453746e+03 -1.1833360e+03 -1.3132564e+03 -1.3870243e+03 -1.2916138e+03 -9.0438647e+02 -1.8587967e+02 7.2526338e+02 1.5487455e+03 2.0192386e+03 2.0233333e+03 1.6577179e+03 1.1122623e+03 5.7257700e+02 1.4394018e+02 -1.6041796e+02 -3.8026590e+02 -5.5397212e+02 -7.0552425e+02 -8.4798479e+02 -9.9295337e+02 -1.1493946e+03 -1.3005158e+03 -1.3830779e+03 -1.2722210e+03 -8.4770452e+02 -8.7530361e+01 8.3620166e+02 1.6173202e+03 2.0258388e+03 1.9697227e+03 1.5607940e+03 9.9941896e+02 4.6386525e+02 4.1091695e+01 -2.5481656e+02 -4.6731580e+02 -6.3324553e+02 -7.7353554e+02 -9.0400746e+02 -1.0387790e+03 -1.1803070e+03 -1.2987594e+03 -1.3033779e+03 -1.0635509e+03 -4.8910038e+02 3.6821087e+02 1.3014621e+03 1.9683060e+03 2.1983120e+03 1.9698789e+03 1.4333786e+03 7.9315164e+02 2.5021086e+02 -1.7759836e+02 -4.7832303e+02 -6.8943118e+02 -8.5184450e+02 -9.9225768e+02 -1.1209095e+03 -1.2561534e+03 -1.3729947e+03 -1.4415770e+03 -1.3686016e+03 -1.0209312e+03 -3.3560234e+02 6.0116169e+02 1.5067049e+03 2.0852800e+03 2.1919668e+03 1.8623836e+03 1.2873941e+03 6.7417938e+02 1.6673255e+02 -1.8177127e+02 -3.9579334e+02 -5.4000083e+02 -6.7420227e+02 -8.1626739e+02 -9.5032756e+02 -1.0602291e+03 -1.1285504e+03 -1.1000275e+03 -8.7614751e+02 -3.6819382e+02 3.8479063e+02 1.1797001e+03 1.7593077e+03 1.9355516e+03 1.6931327e+03 1.1487008e+03 5.0566596e+02 -4.6358908e+01 -4.2602428e+02 -6.3764771e+02 -7.5033853e+02 -8.2529315e+02 -8.9097761e+02 -9.5314159e+02 -1.0162097e+03 -1.0942013e+03 -1.1913898e+03 -1.2717513e+03 -1.2403318e+03 -9.5710552e+02 -3.4339565e+02 5.4393183e+02 1.4570865e+03 2.0971578e+03 2.2950146e+03 2.0642677e+03 1.5633096e+03 1.0030533e+03 5.1643816e+02 1.5357393e+02 -1.0839457e+02 -3.0745009e+02 -4.6948320e+02 -6.0343568e+02 -7.0740846e+02 -7.8698773e+02 -8.6578592e+02 -9.7346752e+02 -1.1075591e+03 -1.1937537e+03 -1.0906487e+03 -6.6129864e+02 8.3339223e+01 9.5118670e+02 1.6489908e+03 1.9422060e+03 1.7956925e+03 1.3064542e+03 6.6211285e+02 3.9500699e+01 -4.4638863e+02 -7.5051736e+02 -8.9619914e+02 -9.4535836e+02 -9.6809630e+02 -1.0026583e+03 -1.0547676e+03 -1.1160244e+03 -1.1702456e+03 -1.1739185e+03 -1.0337451e+03 -6.1931531e+02 1.1900349e+02 1.0646673e+03 1.9405211e+03 2.4518244e+03 2.4825683e+03 2.0961485e+03 1.4944789e+03 8.8009041e+02 3.7419780e+02 3.7668349e+00 -2.7494611e+02 -5.0185012e+02 -7.0050253e+02 -8.7447312e+02 -1.0238419e+03 -1.1564444e+03 -1.2830582e+03 -1.4116883e+03 -1.5164337e+03 -1.5116038e+03 -1.2731621e+03 -6.9108849e+02 1.9188066e+02 1.1699835e+03 1.9339500e+03 2.2481024e+03 2.0885194e+03 1.5901214e+03 9.7600559e+02 4.2176835e+02 8.1400097e+00 -2.7194385e+02 -4.6887907e+02 -6.2321419e+02 -7.5600313e+02 -8.7783695e+02 -1.0001057e+03 -1.1324671e+03 -1.2594111e+03 -1.3080967e+03 -1.1532198e+03 -6.6495606e+02 1.2855666e+02 1.0239639e+03 1.7125361e+03 1.9588379e+03 1.7563873e+03 1.2869882e+03 7.2763347e+02 2.6050599e+02 -5.9205130e+01 -2.6429217e+02 -4.1254195e+02 -5.4885827e+02 -6.9152755e+02 -8.3627605e+02 -9.8954568e+02 -1.1477153e+03 -1.2766559e+03 -1.2804072e+03 -1.0298380e+03 -4.2315315e+02 4.6423300e+02 1.3806355e+03 2.0200085e+03 2.1818612e+03 1.8907469e+03 1.3130157e+03 6.6981879e+02 1.2001064e+02 -2.8481846e+02 -5.6578062e+02 -7.7543669e+02 -9.4127571e+02 -1.1084358e+03 -1.2711238e+03 -1.4092914e+03 -1.4573753e+03 -1.2956251e+03 -7.7175279e+02 4.3138225e+01 9.8231340e+02 1.7517379e+03 2.1029373e+03 1.9848158e+03 1.5101287e+03 8.9509529e+02 2.9734914e+02 -1.6439685e+02 -4.8309747e+02 -7.0488371e+02 -8.8162071e+02 -1.0523974e+03 -1.2147482e+03 -1.3583509e+03 -1.4203130e+03 -1.2965827e+03 -8.6404455e+02 -1.2519388e+02 8.0435168e+02 1.6434367e+03 2.1163920e+03 2.1139286e+03 1.7017034e+03 1.0723174e+03 4.1835136e+02 -9.6012650e+01 -4.4953818e+02 -6.8404113e+02 -8.5268698e+02 -9.9830783e+02 -1.1420019e+03 -1.2888628e+03 -1.4101720e+03 -1.4306788e+03 -1.2210000e+03 -6.8371116e+02 1.6908759e+02 1.1315668e+03 1.8964753e+03 2.2440575e+03 2.1075143e+03 1.6182223e+03 9.7689172e+02 3.8003576e+02 -7.8808162e+01 -3.8962591e+02 -5.9632774e+02 -7.5133410e+02 -8.8743093e+02 -1.0254248e+03 -1.1720150e+03 -1.3168982e+03 -1.4022814e+03 -1.3196949e+03 -9.3322457e+02 -2.1883987e+02 6.7857589e+02 1.4783876e+03 1.8971062e+03 1.8471567e+03 1.4108582e+03 8.0011377e+02 2.0922397e+02 -2.6011734e+02 -6.0332569e+02 -8.6990305e+02 -1.0753133e+03 -1.1659123e+03 -1.0241584e+03 -5.8581526e+02 1.0197282e+02 8.1586487e+02 1.2875504e+03 1.3630087e+03 1.0482580e+03 4.8876085e+02 -1.1129342e+02 -6.2815252e+02 -1.0042235e+03 -1.2190305e+03 -1.2068952e+03 -8.9782524e+02 -2.7225208e+02 5.1291552e+02 1.1793283e+03 1.4871722e+03 1.3425806e+03 8.5476143e+02 2.1502564e+02 -3.6597657e+02 -7.9630832e+02 -1.0913235e+03 -1.2987481e+03 -1.4274194e+03 -1.3869285e+03 -1.0463009e+03 -3.2631064e+02 6.4410701e+02 1.5656164e+03 2.1321064e+03 2.1804314e+03 1.7861423e+03 1.1500014e+03 5.0407364e+02 3.7261667e+00 -3.1936016e+02 -5.0889199e+02 -6.3412957e+02 -7.4058403e+02 -8.3689069e+02 -9.1626886e+02 -9.7451442e+02 -1.0205255e+03 -1.0779637e+03 -1.1685183e+03 -1.2834346e+03 -1.3476707e+03 -1.2175776e+03 -7.1954887e+02 1.7639798e+02 1.2525802e+03 2.2284850e+03 2.7324747e+03 2.6554489e+03 2.1262388e+03 1.4042534e+03 7.0499350e+02 1.9458666e+02 -1.4834271e+02 -3.8600705e+02 -5.7046603e+02 -7.2960451e+02 -8.6542793e+02 -9.7489015e+02 -1.0581759e+03 -1.1244498e+03 -1.1936348e+03 -1.2827708e+03 -1.3802995e+03 -1.4164286e+03 -1.2457140e+03 -7.3403659e+02 1.5938837e+02 1.2456164e+03 2.1861520e+03 2.6831129e+03 2.6160333e+03 2.1035666e+03 1.3773292e+03 6.7418940e+02 1.3195146e+02 -2.3827595e+02 -4.8813224e+02 -6.7556955e+02 -8.3144182e+02 -9.6093530e+02 -1.0606505e+03 -1.1386946e+03 -1.2138127e+03 -1.3074271e+03 -1.4117727e+03 -1.4622692e+03 -1.3205986e+03 -8.4603079e+02 1.4824648e+01 1.0907255e+03 2.0366788e+03 2.5603324e+03 2.5246633e+03 2.0471234e+03 1.3515250e+03 6.7677833e+02 1.5373600e+02 -2.0096512e+02 -4.3610505e+02 -6.1401814e+02 -7.6589213e+02 -8.9764627e+02 -1.0053252e+03 -1.0935366e+03 -1.1790174e+03 -1.2780141e+03 -1.3751426e+03 -1.3941282e+03 -1.1905822e+03 -6.4575457e+02 2.4241399e+02 1.2582664e+03 2.0700560e+03 2.4317446e+03 2.2767813e+03 1.7646552e+03 1.1199756e+03 5.3503515e+02 9.7949794e+01 -2.0881452e+02 -4.3498520e+02 -6.2330645e+02 -7.8557804e+02 -9.1890332e+02 -1.0206929e+03 -1.1018460e+03 -1.1814911e+03 -1.2721029e+03 -1.3479154e+03 -1.3288035e+03 -1.0737207e+03 -4.8605368e+02 4.1241966e+02 1.3781896e+03 2.1356578e+03 2.4535223e+03 2.2799107e+03 1.7609129e+03 1.1097298e+03 5.1267121e+02 5.9728417e+01 -2.5448995e+02 -4.7918429e+02 -6.5900795e+02 -8.1062105e+02 -9.3463409e+02 -1.0298426e+03 -1.1074203e+03 -1.1887266e+03 -1.2861147e+03 -1.3715177e+03 -1.3539093e+03 -1.0832103e+03 -4.6302976e+02 4.4876190e+02 1.4038327e+03 2.0845476e+03 2.3082027e+03 2.0661150e+03 1.5418312e+03 9.4297510e+02 4.2923420e+02 5.9331791e+01 -1.9723996e+02 -3.8920113e+02 -5.4844776e+02 -6.9303432e+02 -8.1789344e+02 -9.2242852e+02 -1.0180949e+03 -1.1224477e+03 -1.2406885e+03 -1.3396628e+03 -1.3159683e+03 -1.0305327e+03 -4.0578002e+02 5.0098509e+02 1.4443289e+03 2.1227000e+03 2.3499779e+03 2.1153572e+03 1.5902930e+03 9.7850731e+02 4.4132596e+02 4.6748004e+01 -2.3270566e+02 -4.4586219e+02 -6.2512217e+02 -7.7892438e+02 -9.0392655e+02 -9.9841769e+02 -1.0754707e+03 -1.1546091e+03 -1.2512021e+03 -1.3435734e+03 -1.3507056e+03 -1.1283985e+03 -5.8700182e+02 2.7978573e+02 1.2607054e+03 2.0414965e+03 2.3929345e+03 2.2553766e+03 1.7650966e+03 1.1059669e+03 5.2518805e+02 9.2186377e+01 -2.0638836e+02 -4.1559878e+02 -5.8420244e+02 -7.2841406e+02 -8.5587938e+02 -9.6286725e+02 -1.0565262e+03 -1.1513315e+03 -1.2578505e+03 -1.3571533e+03 -1.3777308e+03 -1.1827825e+03 -6.6158672e+02 1.9730515e+02 1.1940507e+03 2.0161661e+03 2.4215782e+03 2.3286749e+03 1.8695656e+03 1.2477164e+03 6.5524829e+02 1.9142581e+02 -1.4907581e+02 -4.0456308e+02 -6.1833585e+02 -8.0247093e+02 -9.5468202e+02 -1.0700879e+03 -1.1581351e+03 -1.2372495e+03 -1.3287665e+03 -1.4231238e+03 -1.4555137e+03 -1.2902265e+03 -7.9788868e+02 7.1325420e+01 1.1240404e+03 2.0480151e+03 2.5638777e+03 2.5432198e+03 2.1032278e+03 1.4529925e+03 8.1267051e+02 3.0928668e+02 -5.0853395e+01 -3.1005630e+02 -5.2106928e+02 -7.0651918e+02 -8.6953534e+02 -1.0059401e+03 -1.1187875e+03 -1.2209679e+03 -1.3316221e+03 -1.4556330e+03 -1.5519016e+03 -1.4983235e+03 -1.1508757e+03 -4.0166190e+02 6.3552800e+02 1.6694379e+03 2.3704814e+03 2.5290434e+03 2.2112457e+03 1.6083982e+03 9.6855202e+02 4.4861320e+02 7.2517775e+01 -2.0334662e+02 -4.4212424e+02 -6.6192556e+02 -8.5398933e+02 -1.0012700e+03 -1.1049226e+03 -1.1802948e+03 -1.2501077e+03 -1.3166226e+03 -1.3354475e+03 -1.1917615e+03 -7.6571094e+02 2.7499264e+00 9.7197853e+02 1.8432914e+03 2.3497119e+03 2.3459718e+03 1.9295225e+03 1.2872141e+03 6.3061920e+02 1.2190868e+02 -2.2959582e+02 -4.6018777e+02 -6.3139003e+02 -7.7060812e+02 -8.8596602e+02 -9.7566691e+02 -1.0539965e+03 -1.1389479e+03 -1.2432191e+03 -1.3457576e+03 -1.3678339e+03 -1.1580512e+03 -6.1491493e+02 2.6698564e+02 1.2634422e+03 2.0510547e+03 2.4046301e+03 2.2500995e+03 1.7518344e+03 1.1004071e+03 4.9762623e+02 4.4850089e+01 -2.6731429e+02 -4.8583694e+02 -6.6344214e+02 -8.0908445e+02 -9.2775534e+02 -1.0173106e+03 -1.0910010e+03 -1.1679400e+03 -1.2512202e+03 -1.2976996e+03 -1.2053999e+03 -8.2833966e+02 -1.2335789e+02 8.0846218e+02 1.6913772e+03 2.2312405e+03 2.3030965e+03 1.9407596e+03 