-4.6853010e-04
2.8281104e-03
3.9464644e-03
2.4286084e-03
8.2253762e-05
-1.2587281e-03
-1.4927179e-03
-1.7163155e-03
-2.4924098e-03
-2.8866650e-03
-2.8131635e-03
-2.5450397e-03
-1.6464177e-03
-1.0320992e-03
-1.5228181e-03
-1.8529462e-03
-7.7182703e-04
-4.7603022e-04
-2.0625523e-03
-3.0068491e-03
-2.6349613e-03
-1.0528180e-03
1.5934519e-03
3.8712903e-03
5.8299200e-03
7.8241850e-03
7.9878669e-03
4.5731488e-03
-1.0533663e-03
-6.1079537e-03
-8.8966835e-03
-9.4827860e-03
-1.0039412e-02
-1.1791819e-02
-1.3588869e-02
-1.3458925e-02
-1.0856537e-02
-6.7716097e-03
-6.1322547e-04
8.0971312e-03
1.6747690e-02
2.2364427e-02
2.4997292e-02
2.6522066e-02
2.8032080e-02
2.6947516e-02
1.8142618e-02
-5.2832534e-05
-2.2812421e-02
-4.1035974e-02
-4.9695479e-02
-4.9949688e-02
-4.3778150e-02
-3.3729929e-02
-2.2171139e-02
-1.0785903e-02
-1.5949888e-03
3.5050585e-03
3.1634132e-03
-3.0123848e-03
-1.5811070e-02
-3.6052360e-02
-6.1267468e-02
-8.6080063e-02
-1.0708649e-01
-1.2515271e-01
-1.4278067e-01
-1.6084889e-01
-1.7932497e-01
-1.9673092e-01
-2.0976567e-01
-2.1421991e-01
-2.0035165e-01
-1.4789940e-01
-2.1853990e-02
1.4957207e-01
2.6595344e-01
3.0040071e-01
2.9102005e-01
2.5965653e-01
2.1778584e-01
1.7358815e-01
1.3147917e-01
9.2520867e-02
6.0105534e-02
3.7395544e-02
2.3308836e-02
1.7704220e-02
2.1976861e-02
3.3991386e-02
5.1565176e-02
7.3736573e-02
9.9348591e-02
1.2953291e-01
1.6394742e-01
1.9727780e-01
2.2195830e-01
2.2821728e-01
1.9700019e-01
9.4582774e-02
-5.3581604e-02
-1.5577364e-01
-1.8831920e-01
-1.8597374e-01
-1.6845138e-01
-1.4598758e-01
-1.2274542e-01
-1.0029770e-01
-8.0777338e-02
-6.6393526e-02
-5.7931481e-02
-5.5203411e-02
-5.6461361e-02
-5.9371566e-02
-6.4947065e-02
-7.4859202e-02
-8.9038310e-02
-1.0766918e-01
-1.3239139e-01
-1.6291123e-01
-1.9248811e-01
-2.1393011e-01
-2.1845896e-01
-1.8589295e-01
-8.0626764e-02
7.1413716e-02
1.7602436e-01
2.0940705e-01
2.0645387e-01
1.8675896e-01
1.6088860e-01
1.3315407e-01
1.0574686e-01
8.1731383e-02
6.2523199e-02
4.6401710e-02
3.3444972e-02
2.5386778e-02
2.0963672e-02
1.6647199e-02
1.0408789e-02
5.2140197e-03
2.7305293e-03
-7.0722414e-04
-5.7282235e-03
-9.6000605e-03
-1.1208639e-02
-1.0579323e-02
-9.7793946e-03
-9.2446361e-03
-6.0014881e-03
-8.9559974e-04
3.1078277e-03
6.1933609e-03
9.3686115e-03
1.1507150e-02
1.1231507e-02
1.0005949e-02
9.4294962e-03
8.6443964e-03
7.6977974e-03
7.4461289e-03
6.8287113e-03
4.1356175e-03
9.2344542e-04
8.8089856e-04
3.1258584e-03
3.3815209e-03
1.9741098e-03
2.7930452e-03
5.7323026e-03
7.9645713e-03
8.4454996e-03
7.5946556e-03
4.8632472e-03
6.2799220e-04
-2.9764623e-03
-5.5476575e-03
-7.0614570e-03
-6.7209088e-03
-4.7165742e-03
-2.9076775e-03
-2.6973121e-03
-3.9067121e-03
-5.4687839e-03
-6.1241385e-03
-5.2454396e-03
-2.8947830e-03
-7.6840467e-04
-1.4120201e-03
-3.9128915e-03
-4.4251570e-03
-2.9854155e-03
-2.4804249e-03
-2.4637221e-03
-1.8821287e-03
-1.7992972e-03
-1.4857841e-03
-8.2337893e-04
1.3486570e-04
2.6132142e-03
3.9882815e-03
3.3384258e-03
2.6773296e-03
1.2378558e-03
-6.9222606e-04
-5.4695983e-05
3.6055601e-03
7.7651965e-03
1.1847157e-02
1.6654598e-02
2.2911107e-02
3.1904967e-02
4.4168798e-02
5.8405854e-02
7.5518651e-02
9.7065525e-02
1.2051077e-01
1.4506934e-01
1.7194215e-01
1.9826907e-01
2.1722534e-01
2.1941090e-01
1.8595394e-01
7.7928655e-02
-8.0742495e-02
-1.9035004e-01
-2.2479205e-01
-2.2105364e-01
-1.9883642e-01
-1.6938901e-01
-1.3945790e-01
-1.1355168e-01
-9.3718621e-02
-7.8935906e-02
-6.7530651e-02
-5.9493866e-02
-5.7411123e-02
-6.2099823e-02
-7.0972494e-02
-8.2472719e-02
-9.7003866e-02
-1.1709430e-01
-1.4444905e-01
-1.7590323e-01
-2.0495885e-01
-2.2507137e-01
-2.2750949e-01
-1.9193683e-01
-7.9781271e-02
8.1994398e-02
1.9279765e-01
2.2772660e-01
2.2376741e-01
2.0001352e-01
1.6923538e-01
1.3980097e-01
1.1310010e-01
8.9282089e-02
7.1028057e-02
5.9516634e-02
5.3879071e-02
5.3394495e-02
5.7652634e-02
6.5670607e-02
7.6715543e-02
9.2184708e-02
1.1442915e-01
1.4179943e-01
1.7005244e-01
1.9788035e-01
2.2137836e-01
2.2834593e-01
1.9630852e-01
8.8873654e-02
-6.7175210e-02
-1.7499092e-01
-2.0954184e-01
-2.0779492e-01
-1.8990087e-01
-1.6471299e-01
-1.3696837e-01
-1.1121342e-01
-9.0303239e-02
-7.4213737e-02
-6.3558815e-02
-5.9702510e-02
-6.1069319e-02
-6.4632477e-02
-6.9339937e-02
-7.7540948e-02
-9.3931415e-02
-1.1992011e-01
-1.5140816e-01
-1.8455848e-01
-2.1593838e-01
-2.3842710e-01
-2.4182582e-01
-2.0609072e-01
-9.2248912e-02
7.3269130e-02
1.8760082e-01
2.2325765e-01
2.2064426e-01
2.0190993e-01
1.7545475e-01
1.4550287e-01
1.1583286e-01
9.0804201e-02
7.2161147e-02
5.7277693e-02
4.3710549e-02
3.2192432e-02
2.4057950e-02
1.8504437e-02
1.4525837e-02
1.1829934e-02
1.0056013e-02
7.5790295e-03
4.8901988e-03
3.8391645e-03
2.9238504e-03
1.5344554e-03
1.2170755e-03
1.6657723e-03
1.9680784e-03
2.1461660e-03
1.0650338e-03
-5.3421820e-04
-2.6327321e-04
1.8462438e-03
3.3348287e-03
2.4486103e-03
2.0193533e-03
4.7084108e-03
6.3216615e-03
3.6459060e-03
-1.1389500e-04
-2.2665051e-03
-2.8815930e-03
-4.2801414e-03
-6.9868308e-03
-7.6592076e-03
-6.3145912e-03
-5.3144761e-03
-4.3921413e-03
-3.4336025e-03
-2.6570846e-03
-2.0956001e-03
-2.3040642e-03
-2.7606648e-03
-1.9076623e-03
8.2888882e-05
1.2928279e-03
-9.4198096e-05
-3.5367644e-03
-5.1484838e-03
-3.8850616e-03
-2.2634490e-03
-5.1353802e-05
2.2177622e-03
1.1620098e-03
-2.0156268e-03
-3.9065806e-03
-4.8210459e-03
-4.5404539e-03
-1.4475573e-03
2.0823885e-03
2.9185730e-03
9.9337574e-04
-3.5732127e-03
-8.9522707e-03
-1.2350612e-02
-1.1631616e-02
-5.7524565e-03
2.7558823e-04
2.8213510e-03
4.6350161e-03
5.2057590e-03
4.1088003e-03
4.0786318e-03
6.1021269e-03
1.0058456e-02
1.5320037e-02
2.0877404e-02
2.5577039e-02
3.0096677e-02
3.7354301e-02
4.8790131e-02
6.2628896e-02
7.7991882e-02
9.7065004e-02
1.2113943e-01
1.4830529e-01
1.7578462e-01
2.0391926e-01
2.2909745e-01
2.3554828e-01
1.9939899e-01
8.3629108e-02
-8.4638793e-02
-2.0185213e-01
-2.3900145e-01
-2.3315724e-01
-2.0785947e-01
-1.7719521e-01
-1.4550873e-01
-1.1455098e-01
-8.7583480e-02
-6.7401761e-02
-5.3858977e-02
-4.3879071e-02
-3.4879574e-02
-2.7526823e-02
-2.3768743e-02
-2.1326181e-02
-1.6459719e-02
-1.0513886e-02
-6.8635970e-03
-6.1493839e-03
-6.0555052e-03
-4.7412012e-03
-3.1728871e-03
-2.2839530e-03
-2.1538662e-03
-1.6651016e-03
1.1796870e-04
1.7139567e-03
1.8169831e-03
9.0981270e-05
-2.8511397e-03
-5.3543683e-03
-6.7899913e-03
-7.1693702e-03
-6.9246301e-03
-7.0311456e-03
-5.8347052e-03
-1.8612986e-03
1.5649817e-03
1.9115279e-03
1.7800730e-03
3.6231132e-03
7.2313482e-03
1.1742228e-02
1.4475720e-02
1.3760989e-02
1.2283518e-02
1.1379664e-02
9.4306483e-03
6.0897041e-03
2.5967706e-03
8.0767707e-04
-6.0579688e-05
-1.7834441e-03
-3.1569289e-03
-3.1129381e-03
-3.3532589e-03
-5.5160802e-03
-8.7072806e-03
-1.2222006e-02
-1.6565761e-02
-2.2065142e-02
-2.9100581e-02
-3.9233801e-02
-5.3522842e-02
-7.0795841e-02
-8.9908892e-02
-1.1257843e-01
-1.4094527e-01
-1.7219280e-01
-2.0072941e-01
-2.2195028e-01
-2.2641848e-01
-1.9272597e-01
-8.4520577e-02
7.3615624e-02
1.8533399e-01
2.2265861e-01
2.1962512e-01
1.9618448e-01
1.6586533e-01
1.3700308e-01
1.1248893e-01
9.3242619e-02
7.8530254e-02
6.8611634e-02
6.4878191e-02
6.5190565e-02
6.7122084e-02
7.1466586e-02
7.9984385e-02
9.2766133e-02
1.0898170e-01
1.2980150e-01
1.5542457e-01
1.8257371e-01
2.0541536e-01
2.1184768e-01
1.8207180e-01
8.1586539e-02
-6.8292544e-02
-1.7377669e-01
-2.0722009e-01
-2.0324772e-01
-1.8219795e-01
-1.5548285e-01
-1.2875578e-01
-1.0548653e-01
-8.7220713e-02
-7.3448508e-02
-6.4118610e-02
-5.8708472e-02
-5.6604038e-02
-5.7896512e-02
-6.3620483e-02
-7.5095555e-02
-9.2674121e-02
-1.1585012e-01
-1.4201644e-01
-1.6859719e-01
-1.9534494e-01
-2.1850129e-01
-2.2555767e-01
-1.9340540e-01
-8.4966008e-02
7.2991880e-02
1.8328936e-01
2.1958513e-01
2.1597933e-01
1.9328296e-01
1.6427076e-01
1.3412012e-01
1.0454901e-01
7.9198117e-02
5.9498749e-02
4.3176097e-02
3.0768549e-02
2.3685775e-02
2.0438270e-02
1.7723428e-02
1.3466959e-02
9.0346161e-03
5.6376396e-03
3.1127988e-03
1.5531129e-03
4.1640916e-04
-1.0831890e-03
-3.3392103e-03
-5.7469514e-03
-6.1319880e-03
-4.5486337e-03
-3.0227315e-03
-1.0711256e-03
1.9489778e-03
5.4221069e-03
9.8938131e-03
1.4992823e-02
1.7965812e-02
1.9218659e-02
2.2230757e-02
2.7111300e-02
3.1935669e-02
3.7313084e-02
4.5569518e-02
5.7402393e-02
7.2092177e-02
8.8621019e-02
1.0783548e-01
1.3306666e-01
1.6408765e-01
1.9508585e-01
2.1815513e-01
2.2248243e-01
1.8698931e-01
7.5888688e-02
-8.2618402e-02
-1.9086558e-01
-2.2405811e-01
-2.1942019e-01
-1.9917811e-01
-1.7441751e-01
-1.4795373e-01
-1.2235301e-01
-1.0155866e-01
-8.6424059e-02
-7.5503072e-02
-6.6886490e-02
-6.0878577e-02
-6.0020810e-02
-6.5039519e-02
-7.5823973e-02
-9.2370117e-02
-1.1396740e-01
-1.4130907e-01
-1.7347750e-01
-2.0394685e-01
-2.2451760e-01
-2.2513027e-01
-1.8658743e-01
-7.3571309e-02
8.7817163e-02
1.9830511e-01
2.3150257e-01
2.2651165e-01
2.0393549e-01
1.7382357e-01
1.4359924e-01
1.1601600e-01
9.1713703e-02
7.3147116e-02
6.1148182e-02
5.5367263e-02
5.5080268e-02
5.8536727e-02
6.6057072e-02
7.6704640e-02
9.0876001e-02
1.1406842e-01
1.4592333e-01
1.7885659e-01
2.0712811e-01
2.2696808e-01
2.2946874e-01
1.9394615e-01
8.3950448e-02
-7.5179628e-02
-1.8545396e-01
-2.1942066e-01
-2.1504148e-01
-1.9404564e-01
-1.6667089e-01
-1.3951678e-01
-1.1587080e-01
-9.6289024e-02
-8.0549718e-02
-6.8656992e-02
-6.1592960e-02
-5.9797419e-02
-6.2560748e-02
-6.8675035e-02
-7.8723858e-02
-9.4122606e-02
-1.1455682e-01
-1.3963075e-01
-1.6662553e-01
-1.9150581e-01
-2.1099527e-01
-2.1529650e-01
-1.8276807e-01
-7.7251829e-02
7.5866438e-02
1.8092311e-01
2.1281512e-01
2.0742919e-01
1.8581747e-01
1.5926511e-01
1.3254437e-01
1.0792165e-01
8.7752538e-02
7.3558358e-02
6.3583698e-02
5.6593937e-02
5.4233762e-02
5.7717451e-02
6.6379878e-02
7.8651177e-02
9.3472226e-02
1.1157713e-01
1.3472530e-01
1.6258405e-01
1.9085120e-01
2.1253215e-01
2.1755776e-01
1.8630367e-01
8.3198254e-02
-6.6645861e-02
-1.6974527e-01
-2.0256248e-01
-1.9958392e-01
-1.7970302e-01
-1.5449961e-01
-1.3085130e-01
-1.1074800e-01
-9.2083582e-02
-7.5244985e-02
-6.3849519e-02
-5.8228468e-02
-5.6625159e-02
-5.7706780e-02
-6.2389539e-02
-7.3444315e-02
-8.9832822e-02
-1.0922495e-01
-1.3251844e-01
-1.5924401e-01
-1.8579783e-01
-2.0676626e-01
-2.1096072e-01
-1.7757087e-01
-7.1238978e-02
8.3472397e-02
1.9209299e-01
2.2970266e-01
2.2887042e-01
2.0669921e-01
1.7629628e-01
1.4487403e-01
1.1549441e-01
9.1157909e-02
7.1827889e-02
5.5544054e-02
4.1555126e-02
3.0903181e-02
2.4040975e-02
1.9445677e-02
1.5706021e-02
1.1410603e-02
4.7436676e-03
-3.7084978e-03
-9.2863815e-03
-9.4071201e-03
-6.4817910e-03
-3.3262446e-03
-1.4816971e-03
-2.4070992e-03
-5.6205360e-03
-7.9655460e-03
-7.8352351e-03
-4.5405561e-03
2.2259482e-03
1.0093343e-02
1.8064892e-02
2.8424723e-02
3.9923088e-02
4.9074976e-02
5.7054590e-02
6.6059547e-02
7.5995530e-02
8.4941269e-02
8.8635563e-02
8.7893422e-02
9.0751998e-02
9.9741339e-02
1.0989975e-01
1.1921473e-01
1.2925855e-01
1.3758558e-01
1.3376113e-01
1.0008169e-01
8.3781561e-03
-1.2029101e-01
-2.0701543e-01
-2.3007425e-01
-2.2023168e-01
-1.9634166e-01
-1.6711156e-01
-1.3657439e-01
-1.0915086e-01
-8.8619509e-02
-7.3950231e-02
-6.1827368e-02
-5.1717805e-02
-4.3536675e-02
-3.5891186e-02
-2.8620767e-02
-2.1508146e-02
-1.3287771e-02
-5.0427122e-03
4.3262805e-04
2.1838074e-03
9.1180270e-04
-1.2514317e-03
-1.1631514e-03
6.6893730e-04
1.9334178e-03
2.6586004e-03
2.4690516e-03
8.0890084e-04
-1.3295422e-03
-1.9333101e-03
2.5684569e-05
2.6056136e-03
2.9203931e-03
9.5425168e-05
-5.0749175e-03
-1.0798052e-02
-1.4641109e-02
-1.6404808e-02
-1.9799017e-02
-2.8112773e-02
-4.0803687e-02
-5.6804302e-02
-7.7041288e-02
-1.0272451e-01
-1.3279441e-01
-1.6281258e-01
-1.8485442e-01
-1.8804023e-01
-1.5729303e-01
-6.5342867e-02
6.5775395e-02
1.5536159e-01
1.8159945e-01
1.7499821e-01
1.5552429e-01
1.3423929e-01
1.1324172e-01
9.2213086e-02
7.2522932e-02
5.4715588e-02
3.9461301e-02
2.8160899e-02
2.1933061e-02
1.9232504e-02
1.5023709e-02
7.0649882e-03
-1.3363814e-03
-4.2175199e-03
3.5852028e-04
6.4917060e-03
8.0847801e-03
3.7628527e-03
-4.5564189e-03
-1.0461216e-02
-8.7119070e-03
-2.5692730e-03
5.2903842e-04
-1.7275539e-03
-4.6817135e-03
-2.3496380e-03
5.2429430e-03
1.0383021e-02
8.9742168e-03
5.1824890e-03
5.3542576e-03
1.2536164e-02
2.3611102e-02
3.3053086e-02
3.8020407e-02
4.2584225e-02
5.3730092e-02
7.3862926e-02
9.9166473e-02
1.2377243e-01
1.4629979e-01
1.6810075e-01
1.8692336e-01
1.9351611e-01
1.6871965e-01
7.9362699e-02
-5.3883850e-02
-1.4858108e-01
-1.8135308e-01
-1.8035183e-01
-1.6272120e-01
-1.3948917e-01
-1.1613942e-01
-9.4764706e-02
-7.5708319e-02
-5.8586352e-02
-4.4932468e-02
-3.6340609e-02
-3.1157909e-02
-2.6314828e-02
-2.0658094e-02
-1.4315768e-02
-9.3765356e-03
-7.5940233e-03
-7.0120933e-03
-6.1597383e-03
-5.5153739e-03
-4.8395593e-03
-3.3555201e-03
-1.8151854e-03
-8.2054442e-04
-9.8479679e-06
6.0193931e-04
1.2886982e-03
9.9050225e-04
-1.1574322e-03
-4.1146415e-03
-6.8653636e-03
-9.2658164e-03
-1.2016509e-02
-1.5310316e-02
-1.9400946e-02
-2.4634507e-02
-3.1032108e-02
-3.8829564e-02
-4.8278806e-02
-6.0649230e-02
-7.7426441e-02
-9.8389725e-02
-1.2281359e-01
-1.4908378e-01
-1.7448319e-01
-1.9504584e-01
-2.0038595e-01
-1.7030049e-01
-7.1941997e-02
7.1879419e-02
1.7427811e-01
2.0973063e-01
2.0668807e-01
1.8444169e-01
1.5754599e-01
1.3220232e-01
1.0947966e-01
8.9889087e-02
7.4267204e-02
6.2702439e-02
5.3771465e-02
4.8837325e-02
5.1175557e-02
6.0500520e-02
7.4226081e-02
9.0258867e-02
1.0812186e-01
1.2886334e-01
1.5444356e-01
1.8192015e-01
2.0149279e-01
2.0311264e-01
1.7009082e-01
7.0049911e-02
-7.3451577e-02
-1.7304877e-01
-2.0468448e-01
-2.0045648e-01
-1.7953937e-01
-1.5285109e-01
-1.2643852e-01
-1.0177318e-01
-7.9469240e-02
-6.1211133e-02
-4.6709333e-02
-3.4619836e-02
-2.5324663e-02
-1.9275271e-02
-1.5221730e-02
-1.1858278e-02
-1.0117573e-02
-9.5322495e-03
-8.2861967e-03
-7.7121233e-03
-8.3405737e-03
-8.3161719e-03
-6.6709168e-03
-4.2852638e-03
-2.9218773e-03
-2.0504183e-03
-1.6943820e-04
1.3322682e-03
1.1635666e-03
-1.1702754e-04
-8.8310934e-04
-3.8153835e-04
-1.9347056e-04
-3.1083330e-05
9.2713956e-04
1.5308870e-03
1.9072485e-03
3.7190875e-03
7.2616130e-03
1.0050975e-02
1.0198179e-02
8.9039674e-03
7.9011874e-03
6.9822983e-03
4.8655441e-03
1.9620360e-03
2.7335921e-04
-2.9713256e-04
-7.3778965e-04
-1.0405795e-03
-1.3709968e-03
-1.1870027e-03
-1.2254544e-03
-3.1243531e-03
-5.4554755e-03
-6.0583998e-03
-5.6177208e-03
-4.9260007e-03
-4.0413335e-03
-3.1248518e-03
-2.1531634e-03
-1.3980353e-03
-8.4794032e-04
3.4487020e-04
2.1567411e-03
2.9824190e-03
2.7316214e-03
1.9776232e-03
4.3647997e-04
-1.2434695e-03
-1.9454381e-03
-1.8889803e-03
-2.2789509e-03
-3.6083065e-03
-4.3419583e-03
-3.4645549e-03
-2.4320054e-03
-2.3117909e-03
-3.0187668e-03
-3.3517712e-03
-2.1360608e-03
7.8141050e-05
1.5912874e-03
2.2008658e-03
2.9427284e-03
3.0794218e-03
1.9857552e-03
3.8116413e-04
-2.2766344e-04
-1.5863464e-05
-3.6255267e-05
8.0645696e-04
2.1716452e-03
2.9076676e-03
3.6576859e-03
4.4437593e-03
4.9221655e-03
5.3585469e-03
6.1946262e-03
7.8880795e-03
9.8075222e-03
1.0957873e-02
9.9581646e-03
5.8140270e-03
5.2648002e-04
-3.2780923e-03
-4.3987025e-03
-3.8749938e-03
-4.3719474e-03
-5.4356263e-03
-5.0161422e-03
-2.9475509e-03
-4.9589061e-04
6.0102599e-04
-5.6272945e-05
-1.2513975e-03
-1.7461275e-03
-2.0900502e-03
-3.5248025e-03
-5.2011560e-03
-5.4300892e-03
-3.2807221e-03
4.7480132e-04
3.2876064e-03
4.0814290e-03
2.5000660e-03
-6.2516189e-04
-3.3205875e-03
-5.2633201e-03
-6.7053033e-03
-6.9513451e-03
-5.5643190e-03
-5.2605972e-03
-8.6205869e-03
-1.4161336e-02
-1.9826740e-02
-2.5047883e-02
-3.1195301e-02
-4.0904216e-02
-5.2818907e-02
-6.5994399e-02
-8.3157088e-02
-1.0469588e-01
-1.3003897e-01
-1.5791361e-01
-1.8487013e-01
-2.0648067e-01
-2.1277693e-01
-1.8218416e-01
-7.8507762e-02
7.3899851e-02
1.8097744e-01
2.1616990e-01
2.1452487e-01
1.9652286e-01
1.7220173e-01
1.4651521e-01
1.2164582e-01
1.0016251e-01
8.2352179e-02
6.6524036e-02
5.4908270e-02
5.0063454e-02
5.1379949e-02
5.7930628e-02
7.0633036e-02
8.9154145e-02
1.1057435e-01
1.3461855e-01
1.6187439e-01
1.8975590e-01
2.1315378e-01
2.2002837e-01
1.8713712e-01
7.9195454e-02
-7.6749213e-02
-1.8434261e-01
-2.1699098e-01
-2.1085981e-01
-1.8722439e-01
-1.5733950e-01
-1.2893232e-01
-1.0473824e-01
-8.3105060e-02
-6.4470456e-02
-5.1229902e-02
-4.3286111e-02
-3.7448620e-02
-3.1368442e-02
-2.4974696e-02
-1.8914133e-02
-1.4676755e-02
-1.2102403e-02
-9.3584340e-03
-6.8905422e-03
-6.1421543e-03
-6.4503566e-03
-5.4172988e-03
-2.1604455e-03
1.2190233e-03
2.6685991e-03
2.3061534e-03
1.9809153e-03
2.7787376e-03
3.6390792e-03
3.2294558e-03
1.2286824e-03
-5.8698028e-04
3.9068216e-04
4.2399554e-03
8.9269743e-03
1.2436980e-02
1.3297603e-02
1.1240242e-02
8.0148852e-03
4.7454047e-03
1.9555699e-03
1.3909643e-03
2.2317894e-03
1.8589817e-03
1.1813056e-03
2.0925745e-03
3.0315489e-03
2.0272690e-03
-1.0951062e-03
-5.1440082e-03
-6.8833974e-03
-3.7729747e-03
1.2198858e-03
2.3412366e-03
-9.2173318e-04
-4.0814249e-03
-4.2906949e-03
-2.4076031e-03
-5.0320947e-04
-5.1940486e-04
-2.1832618e-03
-3.1166917e-03
-3.0659088e-03
-3.0211251e-03
-2.7810912e-03
-2.6798268e-03
-2.5992687e-03
-5.8415896e-04
3.2191985e-03
5.4898827e-03
5.0493430e-03
3.6402720e-03
2.0711788e-03
7.7208633e-04
2.9771188e-04
7.2054810e-04
1.3326097e-03
1.5570885e-03
1.4260275e-03
9.7216962e-04
1.2417276e-03
2.7197734e-03
4.6402474e-03
6.0699733e-03
6.8404059e-03
7.1423797e-03
7.3303587e-03
8.1291036e-03
8.9131923e-03
8.5067335e-03
7.4500825e-03
6.4449081e-03
3.8997083e-03
-9.3910272e-04
-6.0438767e-03
-1.0608579e-02
-1.3986544e-02
-1.4490626e-02
-1.4241434e-02
-1.7336698e-02
-2.3053406e-02
-2.7517027e-02
-3.0044983e-02
-3.3067830e-02
-3.7460631e-02
-4.1861665e-02
-4.4763837e-02
-4.4990331e-02
-4.2753748e-02
-3.8508197e-02
-3.1950572e-02
-2.2764849e-02
-1.2225596e-02
-3.1377788e-03
2.7353448e-03
5.5649413e-03
6.5925272e-03
6.2248600e-03
4.9272374e-03
5.1531532e-03
8.4402612e-03
1.2472751e-02
1.5146558e-02
1.6980139e-02
1.7715751e-02
1.6630512e-02
1.4562292e-02
1.2828248e-02
1.1755208e-02
1.0708641e-02
9.3252920e-03
5.8261650e-03
-6.6611013e-04
-6.4373636e-03
-9.3428882e-03
-1.0529218e-02
-1.0479127e-02
-1.0289286e-02
-1.0645168e-02
-1.1096153e-02
-1.1256821e-02
-9.9988909e-03
-7.4257900e-03
-5.2766594e-03
-3.1955798e-03
1.7428721e-03
8.9641300e-03
1.4789419e-02
1.8578612e-02
2.1418997e-02
2.4842949e-02
2.9069711e-02
3.1139417e-02
2.9363436e-02
2.6217098e-02
2.3797956e-02
2.0700454e-02
1.6951301e-02
1.3838356e-02
1.1669557e-02
1.0296957e-02
7.5813413e-03
2.8884149e-03
-8.8299831e-04
-1.9675970e-03
-1.6413749e-03
-1.1069394e-03
3.8022133e-04
2.4588419e-03
3.2375363e-03
3.1311371e-03
2.1845039e-03
-1.0788228e-03
-5.1567614e-03
-7.3856429e-03
-8.0525431e-03
-9.3013128e-03
-1.1228059e-02
-1.2021112e-02
-1.0348991e-02
-6.8272293e-03
-4.4354252e-03
-4.8331866e-03
-8.0179590e-03
-1.3853890e-02
-2.1337420e-02
-2.9981193e-02
-4.1061366e-02
-5.5955279e-02
-7.4450743e-02
-9.6923444e-02
-1.2372657e-01
-1.5361860e-01
-1.8485258e-01
-2.1463931e-01
-2.3849941e-01
-2.4511443e-01
-2.0896293e-01
-8.8400392e-02
8.6290550e-02
2.0655689e-01
2.4396485e-01
2.3816109e-01
2.1278842e-01
1.8197775e-01
1.5188736e-01
1.2382458e-01
9.9560099e-02
8.0718471e-02
6.5588478e-02
5.2614105e-02
4.1933457e-02
3.3111968e-02
2.5292657e-02
1.8553855e-02
1.4317500e-02
1.3104066e-02
1.3535720e-02
1.2694932e-02
9.7947063e-03
7.0853516e-03
5.4746325e-03
3.4901796e-03
-7.2355942e-04
-5.8001589e-03
-7.5213129e-03
-4.9587458e-03
-2.2158842e-03
-2.1407907e-03
-4.1379498e-03
-6.4085158e-03
-8.2114182e-03
-1.0554121e-02
-1.1460926e-02
-9.2501348e-03
-7.1792724e-03
-6.1884477e-03
-4.6829548e-03
-3.2831201e-03
-1.3462750e-03
2.1676190e-03
4.5883090e-03
4.7404986e-03
5.2085707e-03
5.2743684e-03
3.0085264e-03
4.8921063e-04
-7.5444641e-04
-1.2737170e-03
-1.7816430e-03
-1.7400272e-03
1.8268111e-04
3.7349033e-03
6.8489843e-03
6.8122275e-03
4.4051951e-03
3.9591634e-03
6.2765490e-03
8.7951169e-03
1.2257955e-02
1.8970421e-02
2.8890452e-02
4.0531044e-02
5.3858879e-02
7.1088508e-02
9.2813587e-02
1.1883618e-01
1.5002982e-01
1.8428293e-01
2.1714990e-01
2.4231397e-01
2.4669565e-01
2.0772677e-01
8.7892018e-02
-8.2998791e-02
-2.0016636e-01
-2.3760534e-01
-2.3429409e-01
-2.1132120e-01
-1.7957206e-01
-1.4594912e-01
-1.1590601e-01
-9.1145316e-02
-6.9911639e-02
-5.1309558e-02
-3.7218843e-02
-2.8466770e-02
-2.3096851e-02
-1.9100385e-02
-1.5541128e-02
-1.2937801e-02
-1.1523881e-02
-1.0662744e-02
-1.0832045e-02
-1.1083883e-02
-9.4947089e-03
-6.4139975e-03
-3.5516310e-03
-1.5541093e-03
-2.9624003e-04
-6.6465442e-04
-3.0499964e-03
-5.7874896e-03
-7.5213638e-03
-8.8964638e-03
-1.1729526e-02
-1.6426284e-02
-2.0501254e-02
-2.2109944e-02
-2.2839792e-02
-2.4856950e-02
-2.9768054e-02
-3.9082748e-02
-5.1564015e-02
-6.6575790e-02
-8.6510549e-02
-1.1259344e-01
-1.4320468e-01
-1.7502617e-01
-2.0469443e-01
-2.2731199e-01
-2.3145366e-01
-1.9477780e-01
-7.8772718e-02
8.9740671e-02
2.0664661e-01
2.4273200e-01
2.3729660e-01
2.1300411e-01
1.8131992e-01
1.5056497e-01
1.2550543e-01
1.0652015e-01
9.1333221e-02
7.6477938e-02
6.3955064e-02
5.8166132e-02
5.9752480e-02
6.8191182e-02
8.2302622e-02
1.0164263e-01
1.2667631e-01
1.5717504e-01
1.8990002e-01
2.2033075e-01
2.4320613e-01
2.4639720e-01
2.0783823e-01
8.7515565e-02
-8.7660271e-02
-2.0962862e-01
-2.4771520e-01
-2.4085924e-01
-2.1386540e-01
-1.8082234e-01
-1.4723036e-01
-1.1688061e-01
-9.2699576e-02
-7.4995975e-02
-6.1829573e-02
-5.0336864e-02
-3.9665713e-02
-2.9772057e-02
-2.1160954e-02
-1.5646234e-02
-1.3526405e-02
-1.3309610e-02
-1.2331181e-02
-9.0324735e-03
-4.5804169e-03
-1.8223263e-04
3.7135556e-03
6.1845455e-03
6.3441725e-03
4.8135119e-03
2.8836498e-03
1.8485469e-03
1.3642505e-03
1.0260427e-03
1.9675810e-03
3.0510246e-03
3.8541704e-03
6.0754682e-03
8.4780316e-03
9.1602601e-03
8.2152207e-03
5.7374754e-03
3.0814029e-03
2.0334214e-03
1.5091636e-03
1.1741072e-04
-1.7964562e-03
-3.4733167e-03
-4.9583712e-03
-6.1597214e-03
-6.7038884e-03
-7.0497256e-03
-6.2165976e-03
-4.6494899e-03
-4.7298243e-03
-5.3817174e-03
-4.2028928e-03
-1.2289464e-03
1.6216069e-03
3.0974215e-03
3.0180812e-03
1.7266813e-03
1.1718618e-04
-1.8643761e-03
-4.0597377e-03
-5.3027397e-03
-4.6474827e-03
-2.3613759e-03
-3.4907734e-04
4.8656241e-04
3.6179931e-04
-7.7567873e-04
-2.2076211e-03
-3.5604626e-03
-5.0759996e-03
-6.9634954e-03
-8.6569423e-03
-8.7815096e-03
-7.1864355e-03
-5.6331487e-03
-6.0375540e-03
-7.0194890e-03
-6.2697071e-03
-4.3553805e-03
-2.5683784e-03
-1.2539128e-03
-2.6090246e-04
8.3103350e-04
3.0617143e-03
6.5612154e-03
9.9302245e-03
1.2171729e-02
1.2879013e-02
1.2814365e-02
1.2694565e-02
1.1892844e-02
9.9808447e-03
7.3847615e-03
5.5113280e-03
4.8853022e-03
3.7057816e-03
1.7834771e-03
1.7901636e-03
3.4208175e-03
3.8904019e-03
2.9903838e-03
1.5605042e-03
-1.6704689e-04
-2.3074807e-03
-5.1765494e-03
-8.0263109e-03
-1.0730887e-02
-1.3736577e-02
-1.6322317e-02
-1.8015234e-02
-2.0665156e-02
-2.7475132e-02
-3.9750705e-02
-5.7057717e-02
-7.7665436e-02
-9.9957595e-02
-1.2453955e-01
-1.5210028e-01
-1.8175726e-01
-2.0961277e-01
-2.2959263e-01
-2.3161942e-01
-1.9288135e-01
-7.5385889e-02
9.0839285e-02
2.0346129e-01
2.3666679e-01
2.2854399e-01
2.0188679e-01
1.6972080e-01
1.3753275e-01
1.0863204e-01
8.6105082e-02
6.9015709e-02
5.4148634e-02
4.1917808e-02
3.3347969e-02
2.6217991e-02
2.0169307e-02
1.6066386e-02
1.3320263e-02
1.3210587e-02
1.5992534e-02
1.9268178e-02
2.2692114e-02
2.6863566e-02
3.0346033e-02
2.9869791e-02
2.0297721e-02
4.2884184e-03
-8.0152723e-03
-1.3629055e-02
-1.5513502e-02
-1.6005885e-02
-1.3699909e-02
-7.2453027e-03
-7.7974965e-04
2.6656001e-03
4.9748435e-03
8.6446689e-03
1.4964304e-02
2.3276136e-02
3.2463140e-02
4.4056881e-02
5.9576575e-02
7.7684551e-02
9.6759358e-02
1.1805207e-01
1.4342846e-01
1.7209651e-01
1.9763053e-01
2.0536062e-01
1.7440781e-01
7.2383670e-02
-7.5748623e-02
-1.7717218e-01
-2.0809591e-01
-2.0457771e-01
-1.8531779e-01
-1.6015514e-01
-1.3420601e-01
-1.0994431e-01
-8.9109346e-02
-7.2538333e-02
-6.2419128e-02
-5.8968784e-02
-5.9292542e-02
-6.2278087e-02
-6.7701166e-02
-7.5957607e-02
-8.8085068e-02
-1.0462960e-01
-1.2604328e-01
-1.5171789e-01
-1.7893245e-01
-2.0090495e-01
-2.0638090e-01
-1.7644584e-01
-7.6859766e-02
6.9689685e-02
1.7289576e-01
2.0704291e-01
2.0423708e-01
1.8525893e-01
1.6248139e-01
1.3939281e-01
1.1436868e-01
8.9220255e-02
6.8618035e-02
5.1046194e-02
3.4993136e-02
2.2445971e-02
1.3785229e-02
8.0651722e-03
2.5972063e-03
-4.0624672e-03
-9.2141706e-03
-1.0547963e-02
-9.2618049e-03
-8.2612989e-03
-9.0237918e-03
-1.0116456e-02
-8.5396569e-03
-1.1384283e-03
9.1806416e-03
1.5167646e-02
1.6021086e-02
1.5044027e-02
1.4340139e-02
1.3415629e-02
1.1201732e-02
8.8289094e-03
5.2971357e-03
8.8465141e-04
-1.7700360e-03
-2.9457819e-03
-3.9741988e-03
-6.0074628e-03
-7.5868833e-03
-7.3788776e-03
-6.9979081e-03
-6.8522673e-03
-7.0353727e-03
-7.7212571e-03
-8.3815658e-03
-8.9896959e-03
-8.9332786e-03
-6.4729083e-03
4.9391987e-05
7.2951758e-03
9.5553981e-03
8.9592548e-03
9.9112531e-03
1.1741643e-02
1.2619659e-02
1.3274840e-02
1.5478782e-02
1.8951185e-02
2.2196412e-02
2.3596039e-02
2.5002589e-02
3.0806440e-02
4.1649032e-02
5.5209076e-02
7.0905469e-02
9.0070962e-02
1.1340789e-01
1.4051999e-01
1.6941458e-01
1.9696337e-01
2.1765885e-01
2.2087788e-01
1.8653440e-01
7.6789889e-02
-8.3988161e-02
-1.9604503e-01
-2.3032434e-01
-2.2237205e-01
-1.9506173e-01
-1.6319339e-01
-1.3395243e-01
-1.0819296e-01
-8.5179905e-02
-6.5656832e-02
-4.9660913e-02
-3.5764766e-02
-2.4136311e-02
-1.6048951e-02
-1.0779758e-02
-7.1444653e-03
-5.5299849e-03
-5.3863448e-03
-5.5526866e-03
-5.8180442e-03
-5.9021223e-03
-5.6225808e-03
-5.4317151e-03
-5.9767894e-03
-6.8633729e-03
-7.0224614e-03
-7.7253120e-03
-1.0103701e-02
-1.2433667e-02
-1.3753680e-02
-1.3126286e-02
-1.0150719e-02
-6.7493215e-03
-3.6186903e-03
3.7432768e-04
3.7998350e-03
4.8538696e-03
4.8373256e-03
4.5926369e-03
3.8024566e-03
2.4796705e-03
2.3894920e-03
5.5113618e-03
1.0765002e-02
1.5223711e-02
1.7015180e-02
1.6346067e-02
1.4435078e-02
1.2160566e-02
1.0291087e-02
8.6943706e-03
5.6545884e-03
8.9207328e-04
-2.9752617e-03
-4.2840763e-03
-4.9661840e-03
-6.8160459e-03
-9.5880470e-03
-1.3572117e-02
-1.8827466e-02
-2.3865806e-02
-2.8163786e-02
-3.3283017e-02
-4.1409918e-02
-5.4447967e-02
-7.2280059e-02
-9.3076333e-02
-1.1686682e-01
-1.4394517e-01
-1.7209775e-01
-1.9908507e-01
-2.2099000e-01
-2.2549526e-01
-1.9040193e-01
-8.0717894e-02
7.7989688e-02
1.8889287e-01
2.2522074e-01
2.2292777e-01
2.0084683e-01
1.6970049e-01
1.3741388e-01
1.0761795e-01
8.1926483e-02
6.1070449e-02
4.5912574e-02
3.6846692e-02
3.1730726e-02
2.6802611e-02
2.1850179e-02
1.9718493e-02
1.8398924e-02
1.5954337e-02
1.3105498e-02
9.9475044e-03
8.7036258e-03
1.0522880e-02
1.2411520e-02
1.0512532e-02
4.0389496e-03
-3.5207359e-03
-6.8632277e-03
-5.6799688e-03
-3.8619698e-03
-3.1095091e-03
-1.1448478e-03
3.0758642e-03
5.1006051e-03
3.3789241e-03
3.5221894e-04
-2.2197165e-03
-2.7375908e-03
-2.9788209e-03
-5.2351704e-03
-7.2151586e-03
-6.6147056e-03
-4.9453180e-03
-5.0349782e-03
-7.0943752e-03
-9.5239972e-03
-1.1707135e-02
-1.3612348e-02
-1.5244323e-02
-1.5924508e-02
-1.2371572e-02
-4.4597088e-03
2.6275112e-03
7.1739387e-03
1.0369941e-02
1.2905961e-02
1.4643538e-02
1.4548686e-02
1.2733148e-02
8.8459700e-03
3.6377720e-03
-6.2276599e-04
-4.5819717e-03
-1.0048769e-02
-1.4779541e-02
-1.5019275e-02
-1.3114160e-02
-1.2532390e-02
-1.2760711e-02
-1.1897203e-02
-8.2155767e-03
-2.8502011e-03
1.1134533e-03
2.0828250e-03
2.0620463e-03
3.6204789e-03
5.5306940e-03
5.6584259e-03
4.1053821e-03
2.8033439e-03
3.3244635e-03
4.4729942e-03
5.3887399e-03
6.9023051e-03
8.3316046e-03
8.5112421e-03
8.9217521e-03
1.0061904e-02
9.3977533e-03
7.9245585e-03
9.4295112e-03
1.2483887e-02
1.3494238e-02
1.2659015e-02
1.1860411e-02
1.3223083e-02
1.5973009e-02
1.6351423e-02
1.3860074e-02
9.8857733e-03
3.0463066e-03
-6.2812164e-03
-1.3079011e-02
-1.4631503e-02
-1.2582362e-02
-1.0614541e-02
-1.1939662e-02
-1.4807061e-02
-1.5807059e-02
-1.5512321e-02
-1.6475328e-02
-1.7829285e-02
-1.7073525e-02
-1.5362432e-02
-1.3538355e-02
-1.1204502e-02
-8.5673236e-03
-5.3294231e-03
-2.0414281e-03
2.4050224e-04
2.2964579e-03
3.9216666e-03
2.5138566e-03
-4.0822724e-04
-1.7970304e-03
-1.5671330e-03
-1.9399950e-04
1.1885112e-03
1.5666251e-03
1.4555681e-03
1.8055207e-03
3.7846969e-03
6.8395785e-03
9.7984180e-03
1.4144214e-02
1.9021949e-02
2.2050647e-02
2.5629699e-02
3.2629220e-02
4.2422504e-02
5.3980287e-02
6.8183216e-02
8.6393606e-02
1.0826909e-01
1.3282123e-01
1.5938648e-01
1.8683023e-01
2.1003760e-01
2.1596553e-01
1.8309549e-01
7.8541475e-02
-7.1528573e-02
-1.7558549e-01
-2.0851423e-01
-2.0337971e-01
-1.8138551e-01
-1.5583597e-01
-1.3345941e-01
-1.1393230e-01
-9.4779845e-02
-7.7634648e-02
-6.6272456e-02
-6.1596161e-02
-6.2504646e-02
-6.7374292e-02
-7.5652574e-02
-8.9380143e-02
-1.0805503e-01
-1.2915618e-01
-1.5321876e-01
-1.8147097e-01
-2.1086452e-01
-2.3390019e-01
-2.3771108e-01
-2.0018890e-01
-8.4115746e-02
8.4120163e-02
2.0185282e-01
2.4059597e-01
2.3917959e-01
2.1810440e-01
1.8856926e-01
1.5711411e-01
1.2666919e-01
1.0117049e-01
8.1770623e-02
6.8346777e-02
6.1092224e-02
5.8557629e-02
5.9915213e-02
6.4824204e-02
7.5852456e-02
9.3695891e-02
1.1570206e-01
1.4224556e-01
1.7293602e-01
2.0490837e-01
2.3165506e-01
2.3827852e-01
2.0237350e-01
8.9235654e-02
-7.3215283e-02
-1.8508964e-01
-2.2000164e-01
-2.1535747e-01
-1.9307782e-01
-1.6469132e-01
-1.3493135e-01
-1.0721682e-01
-8.5110469e-02
-6.8503125e-02
-5.4826223e-02
-4.3203064e-02
-3.4191353e-02
-2.8395052e-02
-2.5476999e-02
-2.3717773e-02
-2.1110719e-02
-1.7411227e-02
-1.4575462e-02
-1.2963587e-02
-1.0394138e-02
-7.3875732e-03
-6.0918980e-03
-5.6723766e-03
-4.8166538e-03
-3.2915923e-03
-1.0491299e-03
7.1350405e-04
1.7662015e-04
-2.0341867e-03
-4.4530983e-03
-6.1540613e-03
-6.5969678e-03
-8.0515169e-03
-1.1691395e-02
-1.5849119e-02
-2.0705636e-02
-2.8240813e-02
-3.9113129e-02
-5.2492761e-02
-6.8041413e-02
-8.6668806e-02
-1.0981845e-01
-1.3693883e-01
-1.6564644e-01
-1.9349974e-01
-2.1417288e-01
-2.1582824e-01
-1.7992945e-01
-7.1738800e-02
8.3158398e-02
1.8844645e-01
2.2016652e-01
2.1431360e-01
1.9106634e-01
1.6318736e-01
1.3633357e-01
1.1139725e-01
8.8847814e-02
6.9788110e-02
5.4489790e-02
4.1634360e-02
3.0295870e-02
2.0690460e-02
1.4540467e-02
1.2282378e-02
1.0091359e-02
5.6169659e-03
-3.6978791e-04
-6.3834062e-03
-9.6719429e-03
-9.3791381e-03
-6.7858057e-03
-3.9329302e-03
-1.9850925e-03
3.1481400e-04
3.3084043e-03
5.2370621e-03
6.0391585e-03
7.3900278e-03
8.4245243e-03
6.9235351e-03
3.0363747e-03
9.2458589e-05
4.6169222e-05
1.0926333e-03
1.4321916e-03
1.1282854e-03
7.3730604e-04
1.0636362e-03
3.0480390e-03
5.2209083e-03
6.1180738e-03
6.1877568e-03
6.9851201e-03
9.1144602e-03
9.6999762e-03
8.9801025e-03
8.3365741e-03
3.7566956e-03
-4.9684496e-03
-1.2136838e-02
-1.5258614e-02
-1.4797530e-02
-1.2268388e-02
-9.5253516e-03
-6.9428703e-03
-5.0783913e-03
-4.3392227e-03
-4.2670522e-03
-3.8344885e-03
-2.8202700e-03
-1.7488300e-03
8.7880789e-04
5.4243366e-03
8.2450381e-03
7.7870325e-03
6.9100592e-03
7.6553515e-03
9.7385607e-03
1.1845023e-02
1.2089573e-02
1.1077588e-02
9.7967350e-03
5.2012329e-03
-1.3987451e-03
-4.9449450e-03
-6.6410141e-03
-8.1946534e-03
-8.3810903e-03
-6.5383390e-03
-3.2335407e-03
2.2648140e-04
3.7205069e-03
7.7678918e-03
1.1382541e-02
1.4173173e-02
2.0440174e-02
3.2264398e-02
4.5848403e-02
6.0128861e-02
7.6816375e-02
9.7549932e-02
1.2397991e-01
1.5402621e-01
1.8235010e-01
2.0302860e-01
2.0661326e-01
1.7502863e-01
7.3929168e-02
-7.3792354e-02
-1.7637736e-01
-2.0886614e-01
-2.0495337e-01
-1.8520552e-01
-1.6125624e-01
-1.3670229e-01
-1.1347382e-01
-9.3815228e-02
-7.7666692e-02
-6.5692446e-02
-5.8981363e-02
-5.6603064e-02
-5.7555922e-02
-6.1829101e-02
-7.0546599e-02
-8.4342632e-02
-1.0290954e-01
-1.2534840e-01
-1.4997681e-01
-1.7424082e-01
-1.9231075e-01
-1.9399157e-01
-1.6154974e-01
-6.1709584e-02
8.2070892e-02
1.8024927e-01
2.1030406e-01
2.0486754e-01
1.8156898e-01
1.5316594e-01
1.2715954e-01
1.0387648e-01
8.0959840e-02
5.9790650e-02
4.3942856e-02
3.2537049e-02
2.3623447e-02
1.6316835e-02
8.5359711e-03
7.6304589e-04
-4.4396771e-03
-7.1236679e-03
-1.0508867e-02
-1.6109651e-02
-2.1209719e-02
-2.3377852e-02
-2.3061584e-02
-2.0104030e-02
-1.0245157e-02
3.5915200e-03
1.2515671e-02
1.6713540e-02
1.8282335e-02
1.6713807e-02
1.3591193e-02
1.1738274e-02
1.1801127e-02
1.0866919e-02
8.8048643e-03
7.5111930e-03
6.1055315e-03
4.3736517e-03
2.4455518e-03
9.9952521e-04
2.1736231e-03
6.2584182e-03
1.0648347e-02
1.4265006e-02
1.7348987e-02
1.8934144e-02
1.9962006e-02
1.9325897e-02
1.4468271e-02
3.9183189e-03
-9.5049535e-03
-1.7286300e-02
-1.8515644e-02
-1.6913432e-02
-1.3074374e-02
-8.8039889e-03
-5.0993532e-03
-1.6919772e-03
3.3122981e-04
2.2996705e-04
1.1823197e-04
2.6691322e-03
6.0451442e-03
5.9641363e-03
3.2674198e-03
1.2884892e-03
-2.9270038e-04
-2.2129140e-03
-3.3672403e-03
-2.8589111e-03
-1.3763582e-03
-1.1020181e-03
-2.8486783e-03
-4.4087566e-03
-4.2213946e-03
-3.9250104e-03
-4.9833223e-03
-5.7530476e-03
-4.9008720e-03
-3.5821010e-03
-2.4731664e-03
-7.1228267e-04
3.6647241e-04
-1.5650905e-03
-2.8260405e-03
-5.5610111e-04
2.5927004e-03
4.7519815e-03
4.8148536e-03
1.7690787e-03
-2.9615944e-03
-5.1856494e-03
-4.7939805e-03
-4.3800538e-03
-3.4300462e-03
-1.9454352e-03
2.2409235e-04
2.8654305e-03
3.2423451e-03
3.1237914e-04
-2.8613328e-03
-2.4629111e-03
8.7498917e-04
3.4120543e-03
3.5383654e-03
2.6360973e-03
2.1245643e-03
1.6714000e-03
1.1237177e-03
1.4246504e-03
2.9298925e-03
3.1979868e-03
2.9720336e-04
-3.4570367e-03
-5.4531169e-03
-5.2780933e-03
-4.7674230e-03
-6.4918646e-03
-9.9244229e-03
-1.2061052e-02
-1.2534679e-02
-1.2874262e-02
-1.2834884e-02
-1.1651066e-02
-7.0742276e-03
1.0696446e-03
8.9448764e-03
1.4796719e-02
1.7055610e-02
1.5468560e-02
1.3558983e-02
1.1876674e-02
9.3107844e-03
6.1076520e-03
3.2414719e-03
1.6196922e-03
7.9874000e-05
-6.3425991e-04
7.9025156e-04
2.9047920e-03
4.7546339e-03
6.3580814e-03
7.9630667e-03
8.9995393e-03
8.2178690e-03
7.3389837e-03
8.2563322e-03
8.1160750e-03
3.9549626e-03
-2.4357679e-03
-7.5451870e-03
-9.3576803e-03
-7.5895212e-03
-4.0080603e-03
-1.0213398e-03
8.5028773e-05
-5.2355037e-04
-5.1568337e-04
2.1536708e-03
6.2042674e-03
1.0673188e-02
1.6538320e-02
2.3443774e-02
3.1401897e-02
4.3016866e-02
6.0143615e-02
8.1679143e-02
1.0563969e-01
1.3203413e-01
1.6089801e-01
1.8952714e-01
2.1264027e-01
2.1939193e-01
1.8903780e-01
8.6066780e-02
-6.5248538e-02
-1.7092633e-01
-2.0525769e-01
-2.0278441e-01
-1.8318881e-01
-1.5755251e-01
-1.3146754e-01
-1.0661957e-01
-8.4439958e-02
-6.7029200e-02
-5.4071433e-02
-4.2882076e-02
-3.1457578e-02
-2.0504158e-02
-1.3252181e-02
-9.9954311e-03
-8.0525666e-03
-6.4442695e-03
-4.7994872e-03
-3.4611026e-03
-3.2414887e-03
-3.4002880e-03
-2.5691213e-03
-6.9967591e-04
3.2431376e-04
-2.2557465e-04
-1.5394325e-03
-3.0098072e-03
-3.7675648e-03
-4.2373793e-03
-5.8655315e-03
-8.3730383e-03
-1.0207936e-02
-1.1724830e-02
-1.4514951e-02
-1.8658895e-02
-2.4246032e-02
-3.1600012e-02
-4.0955373e-02
-5.2945050e-02
-6.7427785e-02
-8.4479183e-02
-1.0490489e-01
-1.2860597e-01
-1.5409139e-01
-1.7922597e-01
-1.9903864e-01
-2.0233644e-01
-1.6965136e-01
-6.7602126e-02
8.0189924e-02
1.8336333e-01
2.1723352e-01
2.1547665e-01
1.9641496e-01
1.6784757e-01
1.3650696e-01
1.0997528e-01
8.9639387e-02
7.3750649e-02
6.2753160e-02
5.7208129e-02
5.7847642e-02
6.1953293e-02
6.6021833e-02
7.1990484e-02
8.2820372e-02
9.9526867e-02
1.2244146e-01
1.4974035e-01
1.7721692e-01
1.9959749e-01
2.0672559e-01
1.7746324e-01
7.6076243e-02
-7.2443531e-02
-1.7528303e-01
-2.0694843e-01
-2.0082957e-01
-1.7739564e-01
-1.4875732e-01
-1.2132722e-01
-9.6881654e-02
-7.6255752e-02
-6.0350302e-02
-4.7611905e-02
-3.7201992e-02
-2.9583531e-02
-2.3925206e-02
-1.9151866e-02
-1.5021473e-02
-1.2405730e-02
-1.1377632e-02
-1.0990616e-02
-1.1371785e-02
-1.1333648e-02
-9.2354961e-03
-7.2247811e-03
-7.2988202e-03
-8.1221629e-03
-7.7396317e-03
-5.8045745e-03
-3.5110271e-03
-1.3154793e-03
5.1017091e-04
7.5108852e-04
-1.2144173e-04
-3.7369826e-04
5.8716056e-05
-1.2727376e-03
-5.8749634e-03
-1.1552390e-02
-1.7747677e-02
-2.7030320e-02
-3.9976865e-02
-5.4618137e-02
-7.2202411e-02
-9.7127671e-02
-1.2974779e-01
-1.6560285e-01
-1.9862681e-01
-2.2307751e-01
-2.2945708e-01
-1.9644855e-01
-8.6508191e-02
7.4424659e-02
1.8720120e-01
2.2354219e-01
2.1764506e-01
1.9127123e-01
1.5971606e-01
1.3099310e-01
1.0770515e-01
8.9652699e-02
7.5302924e-02
6.4236397e-02
5.7483668e-02
5.5110518e-02
5.6893988e-02
6.4669734e-02
7.9468281e-02
9.9029544e-02
1.2169395e-01
1.4764963e-01
1.7671701e-01
2.0650371e-01
2.2999769e-01
2.3422559e-01
1.9606545e-01
7.9666329e-02
-8.5531245e-02
-1.9925594e-01
-2.3412123e-01
-2.2856603e-01
-2.0619721e-01
-1.7739974e-01
-1.4736883e-01
-1.1953874e-01
-9.4996177e-02
-7.3702093e-02
-5.5103327e-02
-4.0402958e-02
-3.0521401e-02
-2.3021039e-02
-1.5581319e-02
-7.6339651e-03
2.4618854e-04
6.1485393e-03
8.3156199e-03
7.6848519e-03
6.5366165e-03
4.9477007e-03
3.1072017e-03
2.3227213e-03
1.6593221e-03
5.8132465e-04
-6.9040179e-04
-2.8770490e-03
-3.9860086e-03
-2.9121556e-03
-2.0456825e-03
-2.6179593e-03
-5.5241766e-03
-9.3355350e-03
-1.1735909e-02
-1.4829517e-02
-2.0144842e-02
-2.7587109e-02
-3.8339592e-02
-5.2751123e-02
-6.9598476e-02
-8.9270316e-02
-1.1283784e-01
-1.3927301e-01
-1.6800316e-01
-1.9765221e-01
-2.2138526e-01
-2.2629100e-01
-1.9113812e-01
-7.9247431e-02
8.1657701e-02
1.9129865e-01
2.2426608e-01
2.1788842e-01
1.9437666e-01
1.6604990e-01
1.3667846e-01
1.0931930e-01
8.7619329e-02
7.1709347e-02
6.1405751e-02
5.6920645e-02
5.7768912e-02
6.3024772e-02
7.1305150e-02
8.2477246e-02
9.7677201e-02
1.1861891e-01
1.4516939e-01
1.7385899e-01
2.0088627e-01
2.2049458e-01
2.2162554e-01
1.8661325e-01
8.1385207e-02
-7.1635152e-02
-1.7874914e-01
-2.1328452e-01
-2.0969315e-01
-1.8843177e-01
-1.5979491e-01
-1.2965112e-01
-1.0283994e-01
-8.1091484e-02
-6.3821094e-02
-4.9402986e-02
-3.6883038e-02
-2.7091560e-02
-2.0071987e-02
-1.6074838e-02
-1.4477780e-02
-1.2746948e-02
-9.6783526e-03
-5.4851415e-03
-2.3265058e-03
-1.4875645e-03
-7.0749991e-04
2.1897432e-04
-4.7942262e-04
-1.9236066e-03
-2.7593858e-03
-3.1610419e-03
-3.6609194e-03
-3.4739340e-03
-2.0418674e-03
-1.0542395e-03
-1.1993458e-03
-8.7473910e-04
-7.1042722e-05
-6.9245635e-04
-2.2356073e-03
-2.9750962e-03
-3.4824174e-03
-3.4617408e-03
-2.9959995e-03
-3.6610099e-03
-4.5324475e-03
-4.9415885e-03
-5.7753326e-03
-6.1531629e-03
-3.6978600e-03
8.8764364e-05
1.1875500e-03
-2.7913731e-04
-1.3766483e-03
-3.5938733e-04
1.6264687e-03
2.4825179e-03
2.0746070e-03
8.8590799e-04
-2.0068388e-04
1.8719179e-04
6.8141098e-04
-1.3396491e-03
-5.1772321e-03
-1.0089260e-02
-1.7568843e-02
-2.7127560e-02
-3.8129092e-02
-5.1707986e-02
-6.8928716e-02
-9.0748344e-02
-1.1679767e-01
-1.4624422e-01
-1.7764015e-01
-2.0647584e-01
-2.2858275e-01
-2.3523586e-01
-2.0216442e-01
-8.9210835e-02
7.6089638e-02
1.9132596e-01
2.2783639e-01
2.2179190e-01
1.9602361e-01
1.6438072e-01
1.3274812e-01
1.0488080e-01
8.3430108e-02
6.5374916e-02
4.8227441e-02
3.5316979e-02
2.7837348e-02
2.2876550e-02
1.7558519e-02
1.2563794e-02
9.8915539e-03
7.6811909e-03
4.1762935e-03
-1.1442648e-04
-4.7863953e-03
-9.2764478e-03
-1.1435952e-02
-9.1625011e-03
-2.2655835e-03
5.3205774e-03
8.3728058e-03
7.3070266e-03
5.2736284e-03
5.0005353e-03
8.4985534e-03
1.2938678e-02
1.4597482e-02
1.5697744e-02
1.8201943e-02
2.2239945e-02
2.9038856e-02
3.7548103e-02
4.6508362e-02
5.9036207e-02
7.6986151e-02
9.7655773e-02
1.2121152e-01
1.4916847e-01
1.8095644e-01
2.1321885e-01
2.3788435e-01
2.4239071e-01
2.0443416e-01
8.5466431e-02
-8.5898916e-02
-2.0529731e-01
-2.4359559e-01
-2.3785473e-01
-2.1274198e-01
-1.8335199e-01
-1.5492853e-01
-1.2830534e-01
-1.0513837e-01
-8.7498093e-02
-7.5951790e-02
-6.9938374e-02
-6.7375821e-02
-6.7608593e-02
-7.3072740e-02
-8.5023429e-02
-1.0284457e-01
-1.2593090e-01
-1.5406526e-01
-1.8582858e-01
-2.1700047e-01
-2.3999578e-01
-2.4261810e-01
-2.0353955e-01
-8.3998603e-02
8.7828846e-02
2.0544698e-01
2.4022701e-01
2.3253135e-01
2.0592111e-01
1.7371227e-01
1.4335260e-01
1.1636275e-01
9.1819482e-02
7.0297310e-02
5.2765514e-02
4.0217267e-02
3.2782192e-02
2.7957073e-02
2.4115773e-02
2.0925676e-02
1.7987775e-02
1.7152834e-02
1.9228065e-02
2.2485053e-02
2.6272903e-02
2.9128227e-02
2.9791408e-02
2.7503066e-02
1.8222425e-02
3.2024751e-03
-8.7211090e-03
-1.4235133e-02
-1.6457413e-02
-1.6473599e-02
-1.4208216e-02
-1.1525309e-02
-7.4306753e-03
-1.5133536e-03
4.3663519e-03
1.0303622e-02
1.6535944e-02
2.4435772e-02
3.5523007e-02
4.8620698e-02
6.1910214e-02
7.7460736e-02
9.7917831e-02
1.2280305e-01
1.4997157e-01
1.7712846e-01
2.0037112e-01
2.0714566e-01
1.7524480e-01
7.0182129e-02
-8.2378106e-02
-1.8659216e-01
-2.1679696e-01
-2.0937880e-01
-1.8492345e-01
-1.5465975e-01
-1.2524240e-01
-1.0070700e-01
-8.2859850e-02
-7.1147888e-02
-6.3961765e-02
-6.0160302e-02
-6.0309217e-02
-6.5078472e-02
-7.3123601e-02
-8.3486437e-02
-9.7342131e-02
-1.1653442e-01
-1.4100604e-01
-1.6844283e-01
-1.9546686e-01
-2.1640414e-01
-2.2043757e-01
-1.8639087e-01
-7.7911799e-02
7.8401322e-02
1.8531448e-01
2.1866315e-01
2.1552148e-01
1.9504449e-01
1.6880374e-01
1.4381703e-01
1.2154328e-01
1.0347956e-01
9.0490698e-02
7.9683907e-02
7.0072873e-02
6.3467418e-02
6.1431572e-02
6.4833120e-02
7.3154376e-02
8.5926053e-02
1.0362573e-01
1.2739330e-01
1.5759637e-01
1.9029758e-01
2.1670370e-01
2.2412235e-01
1.9083354e-01
8.1104045e-02
-7.7234310e-02
-1.8623734e-01
-2.1942439e-01
-2.1335625e-01
-1.8986403e-01
-1.6116793e-01
-1.3394797e-01
-1.0910875e-01
-8.5556813e-02
-6.5320594e-02
-5.0517565e-02
-3.9222508e-02
-2.9079880e-02
-2.0832524e-02
-1.5670169e-02
-1.2564939e-02
-1.0139725e-02
-8.8214008e-03
-9.0886332e-03
-9.9942880e-03
-1.0785945e-02
-1.1073903e-02
-1.0202214e-02
-7.8591871e-03
-5.4206043e-03
-4.3186084e-03
-3.8229066e-03
-2.6996998e-03
-8.4464402e-04
2.9059973e-04
-3.4525395e-04
-1.3170975e-03
-1.1864255e-03
-1.7348047e-03
-5.3480331e-03
-1.0606808e-02
-1.4761848e-02
-1.9360940e-02
-2.7700097e-02
-3.9808842e-02
-5.5143223e-02
-7.3529698e-02
-9.4960578e-02
-1.2120983e-01
-1.5113608e-01
-1.7982878e-01
-2.0248611e-01
-2.0885546e-01
-1.7789270e-01
-7.5168909e-02
7.3442443e-02
1.7617465e-01
2.1101941e-01
2.1047011e-01
1.9201334e-01
1.6583626e-01
1.3706331e-01
1.1148550e-01
9.1377310e-02
7.3425560e-02
5.7237655e-02
4.8183498e-02
4.8877662e-02
5.4240033e-02
5.9370274e-02
6.7666412e-02
8.3990932e-02
1.0706884e-01
1.3301963e-01
1.5964582e-01
1.8622502e-01
2.0872781e-01
2.1426058e-01
1.8080506e-01
7.5782563e-02
-7.4826728e-02
-1.7931261e-01
-2.1358348e-01
-2.1144004e-01
-1.9141493e-01
-1.6473200e-01
-1.3860010e-01
-1.1562710e-01
-9.5767469e-02
-7.8636789e-02
-6.4617425e-02
-5.5790262e-02
-5.2179098e-02
-5.1915862e-02
-5.5563967e-02
-6.4670917e-02
-7.9830586e-02
-1.0046123e-01
-1.2455864e-01
-1.4891981e-01
-1.7163222e-01
-1.9010105e-01
-1.9363530e-01
-1.6125331e-01
-6.0336395e-02
8.3574055e-02
1.8000049e-01
2.0635657e-01
1.9889587e-01
1.7697543e-01
1.4995966e-01
1.2299137e-01
9.8142554e-02
7.5855598e-02
5.6402248e-02
4.0480505e-02
2.7623463e-02
1.6916604e-02
8.6500334e-03
2.1131602e-03
-3.6973277e-03
-6.8481395e-03
-7.7660477e-03
-9.7675026e-03
-1.2597963e-02
-1.4061241e-02
-1.3411724e-02
-1.2234305e-02
-1.2026353e-02
-8.7013724e-03
-2.7916997e-04
7.0556779e-03
1.0556799e-02
1.2066335e-02
1.2581800e-02
1.2156991e-02
1.0500796e-02
9.6479149e-03
1.0528520e-02
1.1362506e-02
1.0515563e-02
7.6799546e-03
5.0073068e-03
3.8701728e-03
2.5419226e-03
1.5668694e-04
-1.4504235e-03
-1.4162847e-03
-6.0071774e-04
9.3808416e-04
3.1674533e-03
4.9548969e-03
5.8739593e-03
5.9870816e-03
4.0111547e-03
-8.2364188e-04
-6.0628522e-03
-8.3112511e-03
-6.7679554e-03
-2.3843079e-03
1.8534156e-03
2.4808948e-03
6.5026855e-04
-2.7005367e-04
-7.0278567e-04
-9.3965209e-04
2.1760667e-04
1.1401283e-03
2.1733710e-03
3.2783360e-03
1.1043713e-03
-3.4722945e-03
-5.7489954e-03
-4.6640586e-03
-2.6452676e-03
-9.0248455e-04
1.9746125e-04
