1.3095806e-05
1.2140764e-04
1.9008695e-04
2.0239699e-04
1.7185305e-04
1.2419763e-04
7.2311409e-05
1.2430831e-05
-5.6525842e-05
-1.2603260e-04
-1.9257746e-04
-2.6081060e-04
-3.4490074e-04
-4.7246853e-04
-6.5136500e-04
-8.4649211e-04
-1.0397039e-03
-1.2567189e-03
-1.4580592e-03
-1.4902511e-03
-1.1990903e-03
-5.2790396e-04
4.5578636e-04
1.5858162e-03
2.6569649e-03
3.4221963e-03
3.6030300e-03
3.0550092e-03
1.9284434e-03
5.8778785e-04
-6.5376431e-04
-1.7460672e-03
-2.8517422e-03
-4.0502537e-03
-5.1151788e-03
-5.5960123e-03
-5.0581222e-03
-3.2100396e-03
4.5553166e-05
4.4438250e-03
9.2837370e-03
1.3718437e-02
1.7096357e-02
1.8916704e-02
1.8488077e-02
1.4790105e-02
6.9635902e-03
-4.7579643e-03
-1.8449344e-02
-3.0926594e-02
-3.9076020e-02
-4.1017978e-02
-3.6407468e-02
-2.6179094e-02
-1.2157434e-02
3.3441254e-03
1.7952280e-02
2.9669109e-02
3.7124464e-02
3.9514446e-02
3.6510705e-02
2.8566800e-02
1.7265359e-02
4.8898213e-03
-6.5919276e-03
-1.6132061e-02
-2.3388237e-02
-2.8146528e-02
-2.9988257e-02
-2.8419692e-02
-2.3295402e-02
-1.5122090e-02
-4.9143013e-03
6.2000721e-03
1.7136307e-02
2.6715260e-02
3.3741864e-02
3.7434944e-02
3.7549446e-02
3.3952711e-02
2.6325315e-02
1.4438183e-02
-1.1651149e-03
-1.8518425e-02
-3.4394583e-02
-4.5572102e-02
-5.0127148e-02
-4.7789064e-02
-3.9698573e-02
-2.8012878e-02
-1.5287967e-02
-3.6537968e-03
5.8876642e-03
1.3446833e-02
1.9411890e-02
2.3780210e-02
2.6327712e-02
2.6937788e-02
2.5560717e-02
2.2294365e-02
1.7650020e-02
1.2391615e-02
7.1052907e-03
2.1228831e-03
-2.2962165e-03
-5.8034767e-03
-7.9408313e-03
-8.5029844e-03
-7.9267265e-03
-7.0682928e-03
-6.6057350e-03
-6.6600769e-03
-6.8073603e-03
-6.4688783e-03
-5.3706888e-03
-3.6053038e-03
-1.5099336e-03
2.5971335e-04
8.6942971e-04
-1.5514297e-05
-1.8058244e-03
-3.4708657e-03
-4.2112003e-03
-3.6365616e-03
-1.7857241e-03
8.1798785e-04
3.4593285e-03
5.6516768e-03
7.1175560e-03
7.6520326e-03
7.1640802e-03
5.7002837e-03
3.5495430e-03
1.2737622e-03
-6.0824841e-04
-1.8474216e-03
-2.3555574e-03
-2.2073638e-03
-1.8082638e-03
-1.7351131e-03
-2.2332123e-03
-3.0637896e-03
-3.9591276e-03
-4.8687825e-03
-5.6677944e-03
-6.0621474e-03
-5.7989717e-03
-4.7589483e-03
-2.9207771e-03
-3.0016589e-04
2.9068043e-03
6.1211041e-03
8.6556821e-03
1.0145207e-02
1.0520431e-02
9.7831454e-03
8.0371536e-03
5.6015373e-03
2.8698351e-03
1.3883936e-04
-2.3605922e-03
-4.4701241e-03
-6.1514785e-03
-7.3132540e-03
-7.6592107e-03
-6.9966750e-03
-5.6314134e-03
-4.1022967e-03
-2.5898108e-03
-9.6187223e-04
7.0987742e-04
2.0587206e-03
2.7755943e-03
2.8110242e-03
2.2939230e-03
1.4361074e-03
4.9524875e-04
-2.8538249e-04
-7.2357947e-04
-7.2625236e-04
-3.4792767e-04
2.0678159e-04
7.2043602e-04
1.1100338e-03
1.4491089e-03
1.8847355e-03
2.4975795e-03
3.1611296e-03
3.5450969e-03
3.3952240e-03
2.8340882e-03
2.1906581e-03
1.5544811e-03
7.7066656e-04
-2.3241952e-04
-1.3886488e-03
-2.5618413e-03
-3.4924569e-03
-3.8621969e-03
-3.5128521e-03
-2.6980053e-03
-2.0407448e-03
-2.0552568e-03
-2.8925363e-03
-4.4224575e-03
-6.1810532e-03
-7.4850231e-03
-7.8783929e-03
-7.2972564e-03
-5.8231385e-03
-3.5379850e-03
-5.5968089e-04
2.9584499e-03
6.7977074e-03
1.0631831e-02
1.4001016e-02
1.6174314e-02
1.6301779e-02
1.4067134e-02
1.0008728e-02
5.1475431e-03
4.8382623e-04
-3.3806421e-03
-6.4173782e-03
-8.7874267e-03
-1.0252603e-02
-1.0454110e-02
-9.5902498e-03
-8.1428498e-03
-6.2686848e-03
-3.9634624e-03
-1.5017672e-03
5.8357055e-04
1.8752217e-03
2.3378540e-03
2.2364740e-03
1.8628307e-03
1.4369157e-03
1.2251646e-03
1.4798590e-03
2.1826472e-03
3.0041887e-03
3.5850151e-03
3.9258502e-03
4.4469138e-03
5.4463629e-03
6.5386990e-03
6.8359732e-03
5.6806488e-03
3.1523147e-03
4.0148247e-05
-2.6380345e-03
-4.3819221e-03
-5.5477994e-03
-6.7864095e-03
-8.3209610e-03
-9.9905070e-03
-1.1578058e-02
-1.2655163e-02
-1.2500465e-02
-1.0619401e-02
-7.2278160e-03
-3.2111235e-03
3.0977196e-04
2.6043342e-03
3.7707038e-03
4.5590449e-03
5.6408294e-03
7.0522742e-03
8.4662416e-03
9.7876251e-03
1.1159082e-02
1.2503915e-02
1.3294451e-02
1.2870987e-02
1.0960782e-02
7.7082854e-03
3.3833224e-03
-1.5266241e-03
-6.0883876e-03
-9.2548636e-03
-1.0550242e-02
-1.0281959e-02
-9.1000837e-03
-7.5918465e-03
-6.2194538e-03
-5.1654762e-03
-4.0819424e-03
-2.3325454e-03
2.7188657e-04
3.0083585e-03
4.6618365e-03
4.5696653e-03
3.1932697e-03
1.6164727e-03
6.1912713e-04
1.7716571e-04
-2.4180777e-04
-9.4733885e-04
-1.7944091e-03
-2.5284697e-03
-2.9234462e-03
-2.6269930e-03
-1.3212224e-03
7.5151816e-04
2.7274455e-03
3.8222099e-03
3.9050320e-03
3.3106267e-03
2.3193215e-03
1.0093354e-03
-5.2101861e-04
-2.0760685e-03
-3.4779372e-03
-4.5491730e-03
-5.0405736e-03
-4.7742833e-03
-3.8711062e-03
-2.6809536e-03
-1.4429411e-03
-2.1817756e-04
9.1457440e-04
1.9155618e-03
2.8693445e-03
3.7948764e-03
4.5439223e-03
4.9160024e-03
4.8313278e-03
4.4745491e-03
4.1399374e-03
3.8593738e-03
3.3773687e-03
2.5707494e-03
1.6680907e-03
8.2467344e-04
-2.0722864e-04
-1.6163757e-03
-3.1130748e-03
-4.2606168e-03
-4.9215822e-03
-5.2098580e-03
-5.1447774e-03
-4.6098889e-03
-3.6613467e-03
-2.5573960e-03
-1.5204747e-03
-6.7664540e-04
-8.9466757e-05
2.5221618e-04
4.4812235e-04
6.6095097e-04
9.7687065e-04
1.2587592e-03
1.2284029e-03
7.7606822e-04
2.1223143e-04
8.0425604e-05
6.4742164e-04
1.7508441e-03
3.0114322e-03
3.9247851e-03
4.0952179e-03
3.6342732e-03
3.0418164e-03
2.7537909e-03
2.9598883e-03
3.4813519e-03
3.6874585e-03
2.8524907e-03
6.5701638e-04
-2.6061506e-03
-6.0721940e-03
-8.6135196e-03
-9.3971075e-03
-8.4440249e-03
-6.6598923e-03
-5.0474883e-03
-4.0790661e-03
-3.8211871e-03
-4.0384207e-03
-4.1722790e-03
-3.6064722e-03
-1.9993590e-03
5.7350352e-04
3.6935329e-03
6.8696029e-03
9.8212576e-03
1.2403838e-02
1.4226362e-02
1.4607146e-02
1.3055150e-02
9.6323253e-03
4.7521477e-03
-1.1072002e-03
-7.1915985e-03
-1.2309508e-02
-1.5406903e-02
-1.6056422e-02
-1.4161962e-02
-9.9061288e-03
-4.3272896e-03
9.2736314e-04
4.7808938e-03
7.0540406e-03
7.8831035e-03
7.5722102e-03
6.6997559e-03
5.7312797e-03
4.6210090e-03
3.0724445e-03
1.0787696e-03
-9.9450056e-04
-2.7892894e-03
-4.1724835e-03
-4.9804363e-03
-4.8571157e-03
-3.6912196e-03
-2.0078956e-03
-6.1327219e-04
7.5092089e-05
2.4266996e-04
2.9704599e-04
4.3302028e-04
6.2637243e-04
8.6405020e-04
1.2064048e-03
1.6241036e-03
1.8972781e-03
1.7622071e-03
1.1227458e-03
1.3459338e-04
-8.9778820e-04
-1.7334708e-03
-2.3035026e-03
-2.6562052e-03
-2.8093849e-03
-2.6890963e-03
-2.3330909e-03
-1.9947993e-03
-1.8026167e-03
-1.5080496e-03
-7.6479400e-04
4.9232901e-04
1.9593928e-03
3.1495857e-03
3.7586815e-03
3.8208399e-03
3.4507008e-03
2.6783456e-03
1.6210243e-03
5.8968297e-04
-1.0326177e-04
-3.7469950e-04
-2.9707639e-04
8.3279426e-05
6.5931566e-04
1.1594819e-03
1.3718229e-03
1.3825769e-03
1.4653146e-03
1.7965971e-03
2.2667343e-03
2.4933444e-03
2.0901732e-03
1.0259969e-03
-3.4886682e-04
-1.7551803e-03
-3.3287543e-03
-5.2805607e-03
-7.3913654e-03
-9.1498159e-03
-1.0105062e-02
-9.7427955e-03
-7.3812731e-03
-2.7027833e-03
3.4947671e-03
9.3620212e-03
1.3080215e-02
1.3821945e-02
1.1949607e-02
8.6378640e-03
5.0635750e-03
1.8234641e-03
-9.5488482e-04
-3.2827906e-03
-5.1668405e-03
-6.6535716e-03
-7.8712226e-03
-8.8935545e-03
-9.6389086e-03
-9.9709948e-03
-9.7186560e-03
-8.5526840e-03
-6.0899855e-03
-2.2733905e-03
2.3728736e-03
6.8788922e-03
1.0269288e-02
1.1884907e-02
1.1442181e-02
9.3366996e-03
6.7582324e-03
4.8478320e-03
3.9366276e-03
3.7028960e-03
3.5961718e-03
3.1032897e-03
1.9792495e-03
4.2929772e-04
-1.0708802e-03
-2.1685614e-03
-2.7200639e-03
-2.7025276e-03
-2.2528302e-03
-1.7355804e-03
-1.6893645e-03
-2.5366159e-03
-4.1680882e-03
-5.9814535e-03
-7.5592026e-03
-9.0248819e-03
-1.0461499e-02
-1.1207437e-02
-9.9640733e-03
-5.8692088e-03
3.3610885e-04
6.5502119e-03
1.0827896e-02
1.2447919e-02
1.1862349e-02
9.9930102e-03
7.5578423e-03
5.0248702e-03
2.8536074e-03
1.3899239e-03
7.3777789e-04
8.9974375e-04
1.7495778e-03
2.8026156e-03
3.3134221e-03
2.7767270e-03
1.2209372e-03
-1.0256661e-03
-3.6714686e-03
-6.5448593e-03
-9.4361767e-03
-1.1907029e-02
-1.3360003e-02
-1.3301189e-02
-1.1586874e-02
-8.6223382e-03
-5.1993113e-03
-1.9354172e-03
1.0084141e-03
3.7265672e-03
6.2403476e-03
8.3079961e-03
9.6953677e-03
1.0640666e-02
1.1596850e-02
1.2511801e-02
1.2829806e-02
1.2109271e-02
1.0306729e-02
7.5658626e-03
3.9639389e-03
-3.6902971e-04
-4.8756958e-03
-8.7400171e-03
-1.1667429e-02
-1.4013990e-02
-1.5883500e-02
-1.6547230e-02
-1.4959897e-02
-1.0685788e-02
-4.4618780e-03
2.0249494e-03
6.9967136e-03
9.3554164e-03
9.0455238e-03
7.0173746e-03
4.6700280e-03
3.0289077e-03
2.3289699e-03
2.2460579e-03
2.4109827e-03
2.6561532e-03
2.8317266e-03
2.7233410e-03
2.2335541e-03
1.4239535e-03
4.4933558e-04
-4.9356252e-04
-1.1400343e-03
-9.7088628e-04
5.7566727e-04
3.2904351e-03
5.8671479e-03
6.6582711e-03
4.8034075e-03
8.1207606e-04
-3.9199297e-03
-8.0393152e-03
-1.0677819e-02
-1.1607605e-02
-1.1252010e-02
-1.0298251e-02
-9.1887530e-03
-7.9685518e-03
-6.6034893e-03
-5.2171417e-03
-3.8493364e-03
-2.2963935e-03
-3.8041364e-04
1.8055546e-03
4.1295081e-03
6.8830078e-03
1.0486496e-02
1.4448390e-02
1.7150323e-02
1.7046333e-02
1.3937283e-02
9.0185727e-03
3.9401331e-03
-1.0093545e-04
-2.7004518e-03
-4.0256445e-03
-4.5158000e-03
-4.7433249e-03
-5.1291559e-03
-5.7432744e-03
-6.4233853e-03
-6.8437500e-03
-6.5274097e-03
-5.1435692e-03
-2.9234601e-03
-5.7627645e-04
1.3151795e-03
2.6795852e-03
3.7607356e-03
4.7465779e-03
5.6725412e-03
6.4943869e-03
7.1209742e-03
7.3793783e-03
6.8503301e-03
4.9148195e-03
1.2030690e-03
-4.0939520e-03
-1.0163923e-02
-1.5521958e-02
-1.8293681e-02
-1.7060691e-02
-1.1847297e-02
-4.4132249e-03
2.6437962e-03
7.2523940e-03
8.6301156e-03
7.2086538e-03
4.0664093e-03
4.0711134e-04
-2.6036506e-03
-3.9975955e-03
-3.4671651e-03
-1.6153106e-03
4.9081358e-04
2.0368575e-03
2.7764258e-03
2.8499785e-03
2.5216752e-03
2.1384190e-03
2.0864367e-03
2.5222863e-03
3.2166951e-03
3.8302351e-03
4.2967324e-03
4.7654232e-03
5.2443009e-03
5.5118398e-03
5.2443728e-03
4.1653753e-03
2.3764503e-03
5.6897809e-04
-4.4248980e-04
-4.7008064e-04
-5.1358282e-06
3.4238680e-04
1.7808442e-04
-6.9739296e-04
-2.3512798e-03
-4.6746325e-03
-7.3419653e-03
-1.0016087e-02
-1.2541941e-02
-1.4780897e-02
-1.6352916e-02
-1.6540218e-02
-1.4368426e-02
-9.0195762e-03
-6.1310925e-04
9.1828983e-03
1.7739786e-02
2.2962791e-02
2.4022889e-02
2.1250186e-02
1.5904592e-02
9.6143543e-03
3.7433550e-03
-8.8211854e-04
-3.9663916e-03
-5.5461100e-03
-5.7884991e-03
-4.9791544e-03
-3.6838652e-03
-2.7592518e-03
-2.9649925e-03
-4.5125183e-03
-6.9075244e-03
-9.0904948e-03
-9.9610433e-03
-9.1923647e-03
-7.5729852e-03
-6.4505462e-03
-6.9461726e-03
-9.4419528e-03
-1.3185343e-02
-1.6357442e-02
-1.6887956e-02
-1.3390781e-02
-5.7416526e-03
5.0303545e-03
1.7531405e-02
3.0397274e-02
4.2028634e-02
5.0785898e-02
5.5578015e-02
5.5792665e-02
5.0787133e-02
3.9882040e-02
2.3155985e-02
2.3159493e-03
-1.9758134e-02
-4.0621524e-02
-5.8854272e-02
-7.3050477e-02
-8.1079705e-02
-8.0620554e-02
-7.0085266e-02
-4.9312982e-02
-2.0736697e-02
9.5923302e-03
3.4145621e-02
4.8302211e-02
5.1907258e-02
4.7601787e-02
3.8902898e-02
2.8750118e-02
1.8740353e-02
9.5796857e-03
1.9476043e-03
-3.4263293e-03
-6.2611841e-03
-6.8729021e-03
-5.9115091e-03
-4.0517436e-03
-1.7884610e-03
4.6997403e-04
2.1421697e-03
2.5600243e-03
1.3965772e-03
-1.0314379e-03
-3.8295105e-03
-6.0263214e-03
-7.1673081e-03
-7.3662852e-03
-6.9631971e-03
-6.2837757e-03
-5.4472159e-03
-4.2588747e-03
-2.4539675e-03
-1.4981118e-04
2.0004727e-03
3.1905327e-03
3.0047712e-03
1.6926220e-03
1.0199598e-04
-7.5488193e-04
-3.3926201e-04
1.1629721e-03
3.1851443e-03
5.1291331e-03
6.3577032e-03
6.2251425e-03
4.4569670e-03
1.5414665e-03
-1.3654773e-03
-3.0749049e-03
-3.0862905e-03
-1.7871998e-03
-1.0926862e-04
8.7450768e-04
4.6025104e-04
-1.0931378e-03
-2.6366427e-03
-3.0536862e-03
-2.1806934e-03
-7.9286309e-04
2.3886456e-04
5.8490427e-04
4.7881810e-04
4.4684248e-04
8.6434722e-04
1.5456568e-03
1.7950356e-03
1.0399629e-03
-4.2708916e-04
-1.4406728e-03
-9.5962626e-04
8.1471727e-04
2.4502486e-03
2.4892343e-03
6.1919969e-04
-2.0477445e-03
-3.6906653e-03
-3.2595667e-03
-1.4597791e-03
1.0074310e-04
7.0303921e-04
1.0454162e-03
2.0018405e-03
3.2078784e-03
3.2447922e-03
1.3171683e-03
-1.6379737e-03
-3.7762467e-03
-4.1694692e-03
-3.6715114e-03
-3.9060460e-03
-5.4516135e-03
-7.1553760e-03
-7.2772533e-03
-5.1865773e-03
-1.8568259e-03
1.2277579e-03
3.5021863e-03
5.5474265e-03
8.0646506e-03
1.0845532e-02
1.2701041e-02
1.2407414e-02
9.7892906e-03
5.7932375e-03
1.6697831e-03
-1.6984839e-03
-3.9737248e-03
-5.2154642e-03
-5.6060986e-03
-5.3244364e-03
-4.5801663e-03
-3.6885025e-03
-3.0745205e-03
-2.9997708e-03
-3.2392003e-03
-3.2381262e-03
-2.6198984e-03
-1.4896930e-03
-3.1188695e-04
4.8666187e-04
7.6354463e-04
6.1741672e-04
3.4638096e-04
3.6860836e-04
9.0783726e-04
1.7467108e-03
2.4501316e-03
2.8223537e-03
3.0186888e-03
3.1964675e-03
3.2075109e-03
2.7740110e-03
1.8307823e-03
5.6523009e-04
-7.3997148e-04
-1.8531291e-03
-2.7104118e-03
-3.4167198e-03
-4.0920687e-03
-4.7392376e-03
-5.2349776e-03
-5.4178567e-03
-5.1761595e-03
-4.3799461e-03
-2.8103359e-03
-3.0579727e-04
3.0127536e-03
6.5742239e-03
9.3567048e-03
1.0179555e-02
8.1910783e-03
3.5574561e-03
-2.0200968e-03
-6.1467833e-03
-7.5492592e-03
-6.5699443e-03
-4.0703777e-03
-6.8740529e-04
3.0046471e-03
6.3018716e-03
8.4443050e-03
8.8256189e-03
7.2715284e-03
4.2483266e-03
8.3719738e-04
-1.7416522e-03
-2.8704825e-03
-2.8881534e-03
-2.6991411e-03
-2.9746057e-03
-3.7326543e-03
-4.6749563e-03
-5.6826438e-03
-6.6432845e-03
-6.9901673e-03
-5.9822053e-03
-3.4832485e-03
-2.5593530e-04
2.6003664e-03
4.4506442e-03
5.2476381e-03
5.1689493e-03
4.4434290e-03
3.3818975e-03
2.3400774e-03
1.5437507e-03
1.0303117e-03
7.7152747e-04
6.8943219e-04
6.1794447e-04
4.3075263e-04
1.3942294e-04
-2.1948162e-04
-6.5505861e-04
-1.1371725e-03
-1.6298174e-03
-2.1556531e-03
-2.6441247e-03
-2.8732678e-03
-2.6943911e-03
-2.1858697e-03
-1.5040082e-03
-6.8733309e-04
2.3917494e-04
1.0846028e-03
1.6218590e-03
1.8093976e-03
1.7658081e-03
1.5763944e-03
1.2433494e-03
8.0740014e-04
3.5264613e-04
-4.1627116e-05
-2.3479775e-04
-7.3513833e-05
3.9177932e-04
8.7420075e-04
1.1240228e-03
1.1347912e-03
1.0116805e-03
7.6497572e-04
3.6021987e-04
-1.0156422e-04
-4.2498419e-04
-5.2425740e-04
-4.5489416e-04
-3.1067211e-04
-1.8166204e-04
-1.7771775e-04
-4.3609894e-04
-9.7878222e-04
-1.5781551e-03
-1.9420379e-03
-1.9704384e-03
-1.7311334e-03
-1.3236222e-03
-8.2597090e-04
-2.8857773e-04
2.6732400e-04
8.5817429e-04
1.4918615e-03
2.0628260e-03
2.3795422e-03
2.3293260e-03
1.9324650e-03
1.3013356e-03
6.2274835e-04
6.5022759e-05
-3.5079698e-04
-7.1175353e-04
-1.0289212e-03
-1.1846349e-03
-1.1199998e-03
-9.5384020e-04
-8.3220162e-04
-7.4557260e-04
-5.3862836e-04
-9.3867047e-05
5.0475879e-04
1.0308283e-03
1.3041672e-03
1.2299493e-03
7.3397633e-04
-1.7045391e-04
-1.2920237e-03
-2.3646834e-03
-3.2162622e-03
-3.7432317e-03
-3.8334799e-03
-3.4311460e-03
-2.5431125e-03
-1.1958856e-03
5.0494958e-04
2.3623114e-03
4.1653772e-03
5.7294458e-03
6.8439010e-03
7.2178255e-03
6.5672101e-03
4.7922836e-03
2.1558291e-03
-6.6844059e-04
-2.8806762e-03
-4.0341049e-03
-4.2853190e-03
-4.1052423e-03
-3.7469387e-03
-3.1414902e-03
-2.2086712e-03
-1.0764935e-03
-4.9627785e-05
5.5948591e-04
6.1427854e-04
2.1535169e-04
-3.8471614e-04
-8.5083398e-04
-8.3447145e-04
-1.5486115e-04
1.0583979e-03
2.3780502e-03
3.2698969e-03
3.3870740e-03
2.7036995e-03
1.4781054e-03
1.7216278e-04
-7.0573748e-04
-8.1176436e-04
-1.8893876e-04
6.1238037e-04
8.2161023e-04
8.1763154e-05
-1.3081169e-03
-2.8462467e-03
-4.2973926e-03
-5.6460571e-03
-6.6940508e-03
-6.9180223e-03
-5.9390828e-03
-3.8634593e-03
-1.0015275e-03
2.3737666e-03
5.8837225e-03
8.8086976e-03
1.0115113e-02
8.9391355e-03
5.1626022e-03
-2.7584814e-04
-5.4417451e-03
-8.2827125e-03
-7.8481489e-03
-4.5548817e-03
3.4870295e-04
5.3110885e-03
8.9426234e-03
1.0457270e-02
9.8116276e-03
7.4381195e-03
4.0753693e-03
7.2162950e-04
-1.8371334e-03
-3.4495054e-03
-4.3170213e-03
-4.6478735e-03
-4.7938328e-03
-5.2436521e-03
-6.1734644e-03
-7.2126134e-03
-7.6901969e-03
-7.0921329e-03
-5.4499667e-03
-3.2166317e-03
-7.7322250e-04
1.6706042e-03
3.8984124e-03
5.7114854e-03
6.9639990e-03
7.5298551e-03
7.2945521e-03
6.2206903e-03
4.5438664e-03
2.7085923e-03
9.4998247e-04
-7.8398414e-04
-2.4151389e-03
-3.5555745e-03
-3.8692532e-03
-3.4271033e-03
-2.6451791e-03
-1.9469438e-03
-1.4927548e-03
-1.2564027e-03
-1.2421654e-03
-1.4204698e-03
-1.5376986e-03
-1.2389349e-03
-4.5066744e-04
4.8861934e-04
1.1577467e-03
1.4178447e-03
1.3962446e-03
1.1953863e-03
7.4650144e-04
-7.1407323e-06
-8.4482550e-04
-1.2582452e-03
-7.9954613e-04
5.0975442e-04
2.1397103e-03
3.3875722e-03
3.7595891e-03
3.1863211e-03
1.9872661e-03
6.4469988e-04
-3.8768467e-04
-8.5448255e-04
-8.6320500e-04
-7.0829188e-04
-5.1481688e-04
-2.9590177e-04
-2.2178684e-04
-5.3888920e-04
-1.2654861e-03
-2.0314342e-03
-2.2407450e-03
-1.6090369e-03
-5.8713801e-04
2.5990822e-05
-5.9421062e-05
-3.9087838e-04
-3.8161125e-04
6.6504524e-05
5.3786538e-04
5.6929637e-04
1.1431768e-04
-4.8215198e-04
-8.8611652e-04
-9.8216608e-04
-7.9917001e-04
-3.8583294e-04
3.0127778e-04
1.3089043e-03
2.4224554e-03
3.2174687e-03
3.4362276e-03
3.1069196e-03
2.3565251e-03
1.3142289e-03
1.0849899e-04
-1.1840375e-03
-2.5608394e-03
-4.0005340e-03
-5.3206191e-03
-6.1257088e-03
-5.9803242e-03
-4.7465077e-03
-2.7098899e-03
-3.3485069e-04
2.0263285e-03
4.2021671e-03
6.0819877e-03
7.3825383e-03
7.5636320e-03
6.2246771e-03
3.5408524e-03
8.9188131e-05
-3.5517823e-03
-6.8462918e-03
-9.2452511e-03
-1.0278444e-02
-9.6765477e-03
-7.5753543e-03
-4.5509437e-03
-1.0904985e-03
2.8413677e-03
7.3013368e-03
1.1736069e-02
1.5355759e-02
1.7797841e-02
1.8930818e-02
1.8234074e-02
1.4812888e-02
8.2890396e-03
-3.3001325e-04
-9.0155885e-03
-1.5952517e-02
-2.0149808e-02
-2.1194733e-02
-1.9071640e-02
-1.4463388e-02
-9.0137631e-03
-4.7142261e-03
-2.5796705e-03
-2.0827833e-03
-1.9932366e-03
-1.4224125e-03
-9.3908852e-05
1.7928974e-03
3.7778929e-03
5.5333910e-03
7.1139725e-03
8.7467209e-03
1.0423075e-02
1.1704264e-02
1.1848307e-02
1.0203200e-02
6.8082916e-03
2.5967980e-03
-1.2809504e-03
-4.1866760e-03
-6.0814450e-03
-7.2586770e-03
-7.9575553e-03
-8.1460585e-03
-7.6983440e-03
-6.7194532e-03
-5.6571996e-03
-4.9345457e-03
-4.4447037e-03
-3.6758339e-03
-2.3123366e-03
-4.0548930e-04
1.9295084e-03
4.6415533e-03
7.5539107e-03
1.0110960e-02
1.1478963e-02
1.1137666e-02
9.2715552e-03
6.4673168e-03
3.2991032e-03
3.0040861e-04
-2.0485617e-03
-3.5368574e-03
-4.3539126e-03
-4.9028283e-03
-5.3560491e-03
-5.4590426e-03
-4.8828860e-03
-3.6176229e-03
-1.9438517e-03
-2.1879356e-04
1.2037793e-03
2.0307787e-03
2.0997614e-03
1.3417987e-03
-1.2491536e-04
-1.8372433e-03
-3.2558694e-03
-4.1997807e-03
-4.7498382e-03
-4.7586212e-03
-3.7441828e-03
-1.4329476e-03
1.6653461e-03
4.4407935e-03
5.9938943e-03
6.1373410e-03
5.2439345e-03
3.8308505e-03
2.2511884e-03
7.1174024e-04
-5.4716461e-04
-1.3199803e-03
-1.5669282e-03
-1.1960388e-03
8.4089466e-05
2.3477223e-03
4.9040413e-03
6.3728610e-03
5.4907414e-03
1.8327188e-03
-3.9937227e-03
-1.0353392e-02
-1.5193778e-02
-1.7204171e-02
-1.6194407e-02
-1.2609324e-02
-7.1781475e-03
-8.4535844e-04
5.4241506e-03
1.0878136e-02
1.4886105e-02
1.6823625e-02
1.6338037e-02
1.3658113e-02
9.5543790e-03
5.0368583e-03
1.0818850e-03
-1.5292362e-03
-2.4940499e-03
-2.2662778e-03
-1.7483434e-03
-1.5510711e-03
-1.7540685e-03
-2.3445231e-03
-3.5111727e-03
-5.2615005e-03
-6.9006264e-03
-7.3933951e-03
-6.4202196e-03
-4.6928786e-03
-3.1682504e-03
-2.2915720e-03
-1.9642003e-03
-1.8857822e-03
-1.7154277e-03
-1.0988541e-03
6.0320795e-05
1.4767872e-03
2.8469290e-03
4.0635203e-03
5.1117930e-03
6.0158081e-03
6.7057255e-03
6.9368910e-03
6.5572905e-03
5.6179219e-03
4.1511312e-03
2.2388129e-03
2.1819317e-04
-1.5155245e-03
-2.7990916e-03
-3.6696296e-03
-4.1449941e-03
-4.1988088e-03
-4.0203756e-03
-4.1031782e-03
-4.8262274e-03
-5.9461582e-03
-6.7628520e-03
-6.8231612e-03
-6.1345678e-03
-4.8120481e-03
-2.9874845e-03
-9.3910816e-04
1.0942600e-03
3.1874868e-03
5.5258905e-03
7.9354253e-03
9.8495059e-03
1.0640309e-02
9.8610425e-03
7.4073829e-03
3.6188932e-03
-6.3878500e-04
-3.9685996e-03
-5.0766285e-03
-3.8739045e-03
-1.6421904e-03
1.0444359e-04
6.7324888e-04
2.8831002e-04
-4.3997936e-04
-1.0757978e-03
-1.4589826e-03
-1.4899675e-03
-1.1604984e-03
-7.6906839e-04
-7.6753450e-04
-1.2630966e-03
-1.8527370e-03
-2.0340890e-03
-1.6981489e-03
-1.1741848e-03
-8.1136785e-04
-6.4259620e-04
-4.2781198e-04
1.7843763e-04
1.3982758e-03
3.0753568e-03
4.7329130e-03
5.9393928e-03
6.4820497e-03
6.2440615e-03
5.2145597e-03
3.5975666e-03
1.6271178e-03
-7.4030825e-04
-3.7114731e-03
-7.0651009e-03
-9.8803881e-03
-1.1171704e-02
-1.0681191e-02
-8.9343991e-03
-6.7591161e-03
-4.7653981e-03
-3.1436538e-03
-1.9476885e-03
-1.2993405e-03
-1.1053535e-03
-8.4548528e-04
1.3496787e-04
2.1462724e-03
4.9750001e-03
8.0553829e-03
1.0659915e-02
1.2120940e-02
1.2173158e-02
1.0969680e-02
8.7689334e-03
5.8189658e-03
2.4692167e-03
-6.4400966e-04
-2.5905588e-03
-2.7333816e-03
-1.5308536e-03
-4.3761252e-04
-6.2036952e-04
-1.8850789e-03
-3.1698229e-03
-3.8095346e-03
-3.9244925e-03
-3.8517253e-03
-3.6981937e-03
-3.5036989e-03
-3.5587855e-03
-4.2491961e-03
-5.4759465e-03
-6.4954958e-03
-6.4857755e-03
-5.1866262e-03
-3.0710711e-03
-8.9643704e-04
9.7780283e-04
2.7661492e-03
4.7623815e-03
6.8178125e-03
8.4004550e-03
8.9793353e-03
8.2594665e-03
6.2932006e-03
3.5137349e-03
6.3005702e-04
-1.6430170e-03
-2.9330922e-03
-3.3879330e-03
-3.5821332e-03
-4.1186293e-03
-5.0938696e-03
-5.9380393e-03
-5.8421321e-03
-4.4246398e-03
-2.0101585e-03
6.9041716e-04
2.9958591e-03
4.4231316e-03
4.7645400e-03
4.1495790e-03
2.9788309e-03
1.7127019e-03
6.7027982e-04
8.0238671e-06
-2.3984852e-04
-1.4963806e-04
1.9362357e-04
6.9669635e-04
1.1307780e-03
1.2328861e-03
9.2356696e-04
3.5317105e-04
-1.9663101e-04
-5.3221373e-04
-7.0933151e-04
-9.0377349e-04
-1.1987982e-03
-1.5608374e-03
-1.9133439e-03
-2.1666715e-03
-2.2400443e-03
-2.0779817e-03
-1.6818637e-03
-1.1881291e-03
-7.5244149e-04
-3.0419147e-04
3.6033339e-04
1.2480252e-03
2.0928446e-03
2.5775212e-03
2.5513695e-03
2.0747558e-03
1.3244129e-03
5.1038713e-04
-9.3724528e-05
-1.7480092e-04
3.9895861e-04
1.3783412e-03
2.2640489e-03
2.6707122e-03
2.5108241e-03
1.9209234e-03
1.1020604e-03
1.5558337e-04
-9.2474219e-04
-2.0770354e-03
-3.0829837e-03
-3.7210516e-03
-3.9706592e-03
-3.9968042e-03
-3.9016394e-03
-3.5839461e-03
-2.9687836e-03
-2.2373927e-03
-1.6699885e-03
-1.3782006e-03
-1.2490535e-03
-1.0378611e-03
-4.9977652e-04
4.7353561e-04
1.7995406e-03
3.2631060e-03
4.6084657e-03
5.5976779e-03
6.0102063e-03
5.6745483e-03
4.5789016e-03
2.9263087e-03
1.0434602e-03
-7.7309143e-04
-2.2716145e-03
-3.1502197e-03
-3.1937987e-03
-2.5434101e-03
-1.5987609e-03
-7.1391159e-04
-1.3073058e-04
9.9450436e-06
-2.4425148e-04
-6.1915837e-04
-7.4234779e-04
-3.8055001e-04
4.7026520e-04
1.6989132e-03
3.1257951e-03
4.3882649e-03
4.9209578e-03
4.2164068e-03
2.1964651e-03
-6.1406663e-04
-3.3506925e-03
-5.3412298e-03
-6.3591468e-03
-6.4595339e-03
-5.7675033e-03
-4.4009542e-03
-2.3652746e-03
4.5110632e-04
3.8334573e-03
6.8708300e-03
8.4590186e-03
8.0936389e-03
5.9612324e-03
2.5785668e-03
-1.4106239e-03
-5.2184409e-03
-7.9576181e-03
-9.1011046e-03
-8.9436204e-03
-8.2411466e-03
-7.4959186e-03
-6.8960183e-03
-6.5033957e-03
-6.0783849e-03
-5.0476120e-03
-2.8091544e-03
9.3201060e-04
5.9165356e-03
1.1498409e-02
1.7036057e-02
2.1726296e-02
2.4168492e-02
2.2676671e-02
1.6558417e-02
7.2505217e-03
-2.3993995e-03
-1.0152887e-02
-1.5170007e-02
-1.7275423e-02
-1.6471669e-02
-1.3307038e-02
-9.0324201e-03
-4.8610382e-03
-1.2879218e-03
1.7055683e-03
4.1271937e-03
5.8520932e-03
6.8522786e-03
7.2219447e-03
6.7712896e-03
4.8352288e-03
9.2419358e-04
-4.4063267e-03
-9.6198370e-03
-1.3213529e-02
-1.4561215e-02
-1.3671739e-02
-1.0391974e-02
-4.5810367e-03
2.8156868e-03
9.7058502e-03
1.4168262e-02
1.5532571e-02
1.4329812e-02
1.1585505e-02
8.2389792e-03
4.9310448e-03
1.9564800e-03
-7.1612225e-04
-3.2852174e-03
-5.8142542e-03
-8.0717306e-03
-9.6165819e-03
-9.9719564e-03
-8.9188474e-03
-6.7149612e-03
-3.9347938e-03
-1.1360987e-03
1.2860456e-03
3.0147318e-03
3.6678915e-03
2.8290123e-03
3.9934457e-04
-2.9374203e-03
-5.7209313e-03
-6.5215027e-03
-4.7732561e-03
-7.3169350e-04
4.9152959e-03
1.1019109e-02
1.5945688e-02
1.8245808e-02
1.7554744e-02
1.4502781e-02
9.9012993e-03
4.5410466e-03
-6.1591880e-04
-4.7585957e-03
-7.7589415e-03
-1.0100063e-02
-1.2131509e-02
-1.3595160e-02
-1.4100988e-02
-1.3791314e-02
-1.3176802e-02
-1.2370020e-02
-1.0695976e-02
-7.2075055e-03
-1.7923993e-03
4.2269896e-03
8.9970833e-03
1.1597436e-02
1.2278449e-02
1.1664499e-02
1.0214710e-02
8.2716985e-03
6.1551662e-03
4.1025714e-03
2.3519899e-03
1.1370338e-03
4.6547843e-04
1.2073087e-04
-8.2765365e-05
-1.7789653e-04
-2.2508156e-04
-4.4135646e-04
-1.0571593e-03
-2.1793773e-03
-3.7408862e-03
-5.4569659e-03
-6.8144251e-03
-7.1632647e-03
-6.0511076e-03
-3.7410091e-03
-1.3435869e-03
9.3918583e-06
1.2662028e-04
-4.8338281e-04
-1.4208217e-03
-2.4638166e-03
-3.2419706e-03
-3.3366039e-03
-2.5857731e-03
-1.0779298e-03
1.1158379e-03
4.1083561e-03
7.8941350e-03
1.1818188e-02
1.4640918e-02
1.5261503e-02
1.3276379e-02
8.9522346e-03
2.9166735e-03
-4.0170834e-03
-1.0797799e-02
-1.6095990e-02
-1.8464637e-02
-1.6795674e-02
-1.1169464e-02
-3.4224278e-03
3.7812417e-03
8.6830496e-03
1.0888104e-02
1.0602596e-02
8.1835552e-03
4.3486996e-03
3.0838963e-04
-2.7597295e-03
-4.3595229e-03
-4.6278190e-03
-3.9192663e-03
-2.6462453e-03
-1.2584661e-03
-1.4428407e-04
4.8660610e-04
6.8813165e-04
7.3430113e-04
8.5659132e-04
1.0387062e-03
1.1366405e-03
1.0801966e-03
8.7900292e-04
5.5112382e-04
1.1402621e-04
-4.5518426e-04
-1.2287518e-03
-2.1481114e-03
-2.9131373e-03
-3.1450166e-03
-2.6110095e-03
-1.3784380e-03
2.1072584e-04
1.7617305e-03
2.9217269e-03
3.3392248e-03
2.8219748e-03
1.5114254e-03
-2.2781258e-04
-1.9703628e-03
-3.2570152e-03
-3.6574158e-03
-2.9902187e-03
-1.5094709e-03
2.1362196e-04
1.6413966e-03
2.5248199e-03
2.8921337e-03
2.8873382e-03
2.6221968e-03
2.1016710e-03
1.3117616e-03
4.3076647e-04
-1.7478804e-04
-2.7694509e-04
-2.3936182e-06
3.3717330e-04
5.0701714e-04
4.7244347e-04
4.4430205e-04
7.4590787e-04
1.4481195e-03
2.1505057e-03
2.2198288e-03
1.2975254e-03
-3.5951156e-04
-2.0761993e-03
-3.3299434e-03
-4.0116367e-03
-4.2531902e-03
-4.2570414e-03
-4.1365486e-03
-3.7453256e-03
-2.7836426e-03
-1.0926456e-03
1.1342840e-03
3.3605884e-03
4.9920096e-03
5.5974893e-03
4.9904905e-03
3.4147793e-03
1.4144162e-03
-6.6596528e-04
-2.7689726e-03
-4.7148438e-03
-5.9916761e-03
-6.1345430e-03
-5.2294702e-03
-3.7487238e-03
-1.9468095e-03
1.2382895e-04
2.1392111e-03
3.6143842e-03
4.3885457e-03
4.7678838e-03
5.1973241e-03
5.6529636e-03
5.4610897e-03
3.9587029e-03
1.3061638e-03
-1.4323223e-03
-3.0785443e-03
-3.2279034e-03
-2.2923307e-03
-8.4563122e-04
7.3652841e-04
2.0325742e-03
2.5067887e-03
1.9793786e-03
8.5602862e-04
-2.3777422e-04
-9.4115018e-04
-1.3167645e-03
-1.5110070e-03
-1.4365811e-03
-1.0335073e-03
-6.1577074e-04
-6.8133176e-04
-1.4728038e-03
-2.8524779e-03
-4.4746480e-03
-5.9256056e-03
-6.7501846e-03
-6.4656706e-03
-4.7652475e-03
-1.8808147e-03
1.4762625e-03
4.6453433e-03
7.2675216e-03
9.1191233e-03
9.9758452e-03
9.6709934e-03
8.1933516e-03
5.7176585e-03
2.6186685e-03
-6.5030792e-04
-3.7602872e-03
-6.4188225e-03
-8.1988290e-03
-8.8082354e-03
-8.4033004e-03
-7.3036181e-03
-5.5741048e-03
-3.1019429e-03
2.7699348e-05
3.3101132e-03
6.0065289e-03
7.5815464e-03
7.9195479e-03
7.1517854e-03
5.4811489e-03
3.2303644e-03
8.6248519e-04
-1.1455455e-03
-2.4812784e-03
-3.1008027e-03
-3.1643554e-03
-2.9661820e-03
-2.8971175e-03
-3.1914786e-03
-3.7182157e-03
-4.2000935e-03
-4.3902593e-03
-3.9484861e-03
-2.6050524e-03
-5.4683177e-04
1.6585451e-03
3.4822792e-03
4.7079198e-03
5.4111259e-03
5.6762667e-03
5.4204085e-03
4.5481433e-03
3.1148030e-03
1.3781910e-03
-1.8764368e-04
-1.0924977e-03
-1.2035130e-03
-8.8005720e-04
-6.8598590e-04
-9.3455724e-04
-1.5223379e-03
-2.2276941e-03
-2.9843255e-03
-3.7086361e-03
-4.1100191e-03
-3.9428552e-03
-3.2549546e-03
-2.2049156e-03
-8.5476507e-04
7.7719690e-04
2.5873554e-03
4.3272712e-03
5.6944593e-03
6.4327986e-03
6.2980094e-03
5.1959779e-03
3.4426046e-03
1.5661800e-03
-1.4120155e-04
-1.7121394e-03
-3.2826825e-03
-4.8537547e-03
-6.2141981e-03
-7.0610503e-03
-7.1916818e-03
-6.6171139e-03
-5.4939927e-03
-4.0758379e-03
-2.7301403e-03
-1.6342954e-03
-5.2397551e-04
9.0656748e-04
2.5869023e-03
4.2662872e-03
5.8630123e-03
7.3935497e-03
8.6284325e-03
9.0552381e-03
8.2739549e-03
6.2790196e-03
3.3341642e-03
-1.4613697e-04
-3.4776530e-03
-5.8081677e-03
-6.6690392e-03
-6.2185086e-03
-4.8290746e-03
-2.9122200e-03
-1.1015231e-03
-1.9643817e-05
2.5810417e-04
3.1871355e-04
8.5526638e-04
1.9918920e-03
3.2031652e-03
3.7773980e-03
3.2933895e-03
1.8521140e-03
-4.5403831e-07
-1.5692103e-03
-2.3421851e-03
-2.3177477e-03
-2.0195152e-03
-1.9615627e-03
-2.1542787e-03
-2.2147961e-03
-1.7794658e-03
-6.9316681e-04
1.0460625e-03
3.2277565e-03
5.3345185e-03
6.7839886e-03
7.1879388e-03
6.3598271e-03
4.3174804e-03
1.2258417e-03
-2.6582166e-03
-6.8568753e-03
-1.0584600e-02
-1.2962264e-02
-1.3551058e-02
-1.2669568e-02
-1.1010974e-02
-8.9959177e-03
-6.6142521e-03
-3.8150116e-03
-6.5290185e-04
2.9544147e-03
7.1347808e-03
1.1633321e-02
1.5561933e-02
1.7719550e-02
1.7408908e-02
1.4904220e-02
1.1184120e-02
7.3158324e-03
3.8928646e-03
9.7096603e-04
-1.5399560e-03
-3.6108227e-03
-5.2015616e-03
-6.4146575e-03
-7.3068708e-03
-7.6554399e-03
-7.2042390e-03
-6.1022757e-03
-4.8935119e-03
-4.0664822e-03
-3.6724721e-03
-3.3328693e-03
-2.5994590e-03
-1.3753498e-03
1.5713767e-05
1.1637916e-03
1.8206321e-03
1.8673027e-03
1.3874331e-03
7.7747256e-04
5.0702220e-04
7.4333908e-04
1.2291294e-03
1.5233642e-03
1.4374064e-03
1.1841817e-03
1.0732817e-03
1.2131256e-03
1.4839955e-03
1.6639612e-03
1.6070525e-03
1.2578007e-03
5.2747848e-04
-6.2662543e-04
-2.0114393e-03
-3.2408075e-03
-3.9814266e-03
-4.0835366e-03
-3.4129734e-03
-1.6831306e-03
1.2784443e-03
5.0605123e-03
8.5482950e-03
1.0144046e-02
8.2894615e-03
2.5704349e-03
-5.2929109e-03
-1.2175216e-02
-1.5713248e-02
-1.5448883e-02
-1.2120771e-02
-6.7568020e-03
-4.5138369e-04
5.7536919e-03
1.1069558e-02
1.4928883e-02
1.6810949e-02
1.6350612e-02
1.3702131e-02
9.6005054e-03
4.9922013e-03
5.7294619e-04
-3.4340820e-03
-7.0858365e-03
-1.0338025e-02
-1.2810164e-02
-1.3894737e-02
-1.3194080e-02
-1.0851584e-02
-7.3991698e-03
-3.3928965e-03
6.3180963e-04
4.0331656e-03
6.2807457e-03
7.2678537e-03
7.1636200e-03
6.0762142e-03
4.1217015e-03
1.7410640e-03
-3.5556437e-04
-1.6741015e-03
-2.2254510e-03
-2.2994398e-03
-2.1201332e-03
-1.7301826e-03
-1.0633415e-03
-1.1837960e-04
9.3998437e-04
1.9338865e-03
2.8581444e-03
3.7961544e-03
4.6545894e-03
5.1350167e-03
4.9755682e-03
3.9621027e-03
1.9531849e-03
-7.0369973e-04
-3.1425653e-03
-4.6052442e-03
-4.8936174e-03
-4.3251696e-03
-3.4492122e-03
-2.7696226e-03
-2.5982352e-03
-2.9804123e-03
-3.6907532e-03
-4.3613351e-03
-4.6546670e-03
-4.3215727e-03
-3.2381933e-03
-1.5792063e-03
2.2188158e-04
1.9045477e-03
3.5747714e-03
5.3682938e-03
7.1212036e-03
8.3931633e-03
8.7405895e-03
7.9508515e-03
5.9661241e-03
2.8989107e-03
-6.3822011e-04
-3.7298639e-03
-5.7832555e-03
-6.5984782e-03
-6.1890918e-03
-4.8164647e-03
-2.8960850e-03
-7.8376497e-04
1.2247387e-03
2.7229352e-03
3.2944181e-03
3.0134055e-03
2.5323475e-03
2.2927862e-03
2.0271914e-03
1.3152380e-03
1.9317225e-04
-9.3963840e-04
-1.8012466e-03
-2.5001239e-03
-3.2248250e-03
-3.7878951e-03
-3.6618290e-03
-2.3744815e-03
8.7462104e-05
3.0997339e-03
5.6775010e-03
7.0021020e-03
6.6841192e-03
4.7445634e-03
1.6451950e-03
-1.8039995e-03
-4.8375284e-03
-6.9868527e-03
-8.0726904e-03
-8.1614048e-03
-7.4084257e-03
-5.9579709e-03
-4.1046722e-03
-2.3860438e-03
-1.3742346e-03
-1.3562436e-03
-2.1570860e-03
-3.2090577e-03
-3.7767120e-03
-3.1862150e-03
-1.0610114e-03
2.4961647e-03
7.0255327e-03
1.1831035e-02
1.5784089e-02
1.7611396e-02
1.6741177e-02
1.3514077e-02
8.8507381e-03
4.0202114e-03
1.1127208e-04
-2.5808859e-03
-4.3441796e-03
-5.3114622e-03
-5.3238854e-03
-4.4646096e-03
-3.3505382e-03
-2.7808036e-03
-3.1001870e-03
-3.9794984e-03
-4.9818110e-03
-6.1977115e-03
-8.0197581e-03
-1.0342068e-02
-1.2333485e-02
-1.3043329e-02
-1.1844216e-02
-8.3132767e-03
-2.5216095e-03
4.2344011e-03
9.9287828e-03
1.3266938e-02
1.4074801e-02
1.2823897e-02
1.0369141e-02
7.5933955e-03
4.9013350e-03
2.2433489e-03
-4.1033325e-04
-2.9341951e-03
-5.1873629e-03
-6.9793008e-03
-8.0337822e-03
-8.0056283e-03
-6.5624023e-03
-3.6792512e-03
2.0863499e-04
4.4249989e-03
8.2672364e-03
1.1090101e-02
1.2315554e-02
1.1373046e-02
7.9164552e-03
2.3957915e-03
-3.6422404e-03
-8.2760905e-03
-1.0453600e-02
-1.0278973e-02
-8.4365677e-03
-5.7586518e-03
-2.9921793e-03
-6.7579259e-04
8.9121429e-04
1.7560125e-03
2.2941062e-03
2.8031362e-03
3.1189471e-03
2.8732270e-03
2.0418939e-03
9.4769167e-04
-9.7856858e-05
-8.7445308e-04
-1.1987661e-03
-1.0411780e-03
-6.3550607e-04
-3.3305721e-04
-2.8318833e-04
-3.4476402e-04
-3.7568776e-04
-4.3653165e-04
-5.8830113e-04
-6.9392771e-04
-5.8994235e-04
-2.8268574e-04
1.2921202e-04
5.1626475e-04
6.9366040e-04
6.5769512e-04
7.5489234e-04
1.2525281e-03
1.9369795e-03
2.3135027e-03
1.9774510e-03
8.8083987e-04
-5.3658710e-04
-1.6273488e-03
-2.0530514e-03
-1.8666272e-03
-1.2403863e-03
-3.6606529e-04
5.0370563e-04
1.0192619e-03
8.5975469e-04
9.2798655e-05
-7.1059554e-04
-9.6302571e-04
-6.3494085e-04
-1.8555117e-04
4.9060633e-06
-5.0667879e-05
-1.2646997e-04
-4.1538472e-05
2.9639953e-04
8.8811754e-04
1.5392967e-03
1.9019391e-03
1.8171902e-03
1.5151232e-03
1.3091132e-03
1.1772086e-03
7.3629961e-04
-3.5841477e-04
-2.0186620e-03
-3.8202427e-03
-5.3826811e-03
-6.4393163e-03
-6.6816987e-03
-5.7720613e-03
-3.5546240e-03
-3.3136767e-04
3.1181351e-03
5.8528181e-03
7.1677296e-03
6.9749965e-03
5.7662532e-03
4.0615197e-03
2.1217837e-03
1.4225618e-04
-1.5938425e-03
-2.8262460e-03
-3.4274674e-03
-3.3485441e-03
-2.6422726e-03
-1.5107920e-03
-1.8035045e-04
1.2083537e-03
2.5581653e-03
3.7277041e-03
4.5867888e-03
5.0987693e-03
5.1265652e-03
4.3439488e-03
2.6746402e-03
6.1390073e-04
-1.1308769e-03
-2.1350080e-03
-2.3929228e-03
-2.2591028e-03
-2.2901086e-03
-2.9282442e-03
-4.1554589e-03
-5.5019559e-03
-6.5486862e-03
-7.2930166e-03
-7.9045596e-03
-8.3804440e-03
-8.5011082e-03
-7.8713057e-03
-6.1184870e-03
-3.3051768e-03
4.7726047e-06
3.2746021e-03
6.4574043e-03
9.7649752e-03
1.3105532e-02
1.5886840e-02
1.7225126e-02
1.6324114e-02
1.2959434e-02
7.8324039e-03
2.2937891e-03
-2.4520426e-03
-5.8312828e-03
-7.8229079e-03
-8.6638872e-03
-8.5782541e-03
-7.7670870e-03
-6.5774187e-03
-5.4191758e-03
-4.4351305e-03
-3.3941313e-03
-2.0183824e-03
-4.2185562e-04
8.7686440e-04
1.4600420e-03
1.4226675e-03
1.2052998e-03
1.1101774e-03
1.0798157e-03
9.5994075e-04
8.2295737e-04
8.8425498e-04
1.1719779e-03
1.4653963e-03
1.6081760e-03
1.6791300e-03
1.7967042e-03
1.9290604e-03
1.9158005e-03
1.6681711e-03
1.3370601e-03
1.1063700e-03
8.0772655e-04
-2.7047487e-05
-1.6951640e-03
-4.0441526e-03
-6.5966812e-03
-8.7909361e-03
-1.0084180e-02
-9.9753853e-03
-8.1486524e-03
-4.6888495e-03
-1.3901764e-04
4.6509589e-03
8.7389159e-03
1.1241008e-02
1.1371073e-02
8.5611249e-03
3.1606832e-03
-2.8239246e-03
-6.5740586e-03
-6.4294011e-03
-2.8369503e-03
2.1702546e-03
6.3170362e-03
8.4471250e-03
8.7352524e-03
7.8020023e-03
6.0939469e-03
4.0951625e-03
2.5003464e-03
1.5537870e-03
4.7153174e-04
-1.7059291e-03
-4.8579215e-03
-7.9378612e-03
-1.0073865e-02
-1.1124961e-02
-1.1315673e-02
-1.0640406e-02
-8.8312261e-03
-5.8826638e-03
-2.3458135e-03
1.0449317e-03
3.8324364e-03
5.8471744e-03
7.0352374e-03
7.3737060e-03
6.8845140e-03
5.7367441e-03
4.3021415e-03
3.0253236e-03
2.1778389e-03
1.7756995e-03
1.6691781e-03
1.6010245e-03
1.3499803e-03
9.1804965e-04
4.6277008e-04
6.1587850e-05
-4.0450545e-04
-1.1704842e-03
-2.3833732e-03
-3.8725480e-03
-5.1517915e-03
-5.8531449e-03
-6.0651297e-03
-6.0295556e-03
-5.7014028e-03
-4.8328638e-03
-3.3870405e-03
-1.6681666e-03
-4.0838329e-05
1.3007725e-03
2.3304123e-03
3.1627428e-03
3.9766258e-03
4.8325096e-03
5.6522241e-03
6.4361843e-03
7.2712261e-03
8.0272711e-03
8.3367796e-03
7.9285410e-03
6.6343521e-03
4.1198669e-03
1.3142731e-04
-4.8790857e-03
-9.6875217e-03
-1.2996913e-02
-1.4135831e-02
-1.2989677e-02
-9.5379360e-03
-4.0851155e-03
2.0136084e-03
6.6549447e-03
8.4272483e-03
7.4566153e-03
4.9452189e-03
2.2100820e-03
5.3327606e-06
-1.5519200e-03
-2.6536311e-03
-3.4991902e-03
-4.2017609e-03
-4.7939067e-03
-5.1491326e-03
-4.8853590e-03
-3.5471753e-03
-1.0290828e-03
2.3195601e-03
6.0443703e-03
9.7991601e-03
1.3231032e-02
1.5826564e-02
1.6809795e-02
1.5240791e-02
1.0514615e-02
3.0708667e-03
-5.3463138e-03
-1.2489681e-02
-1.6932273e-02
-1.8526144e-02
-1.7786250e-02
-1.5314586e-02
-1.1756751e-02
-7.8196178e-03
-4.1050037e-03
-9.9201276e-04
1.2572172e-03
2.4455468e-03
2.7483060e-03
2.8720765e-03
3.5587601e-03
4.9977182e-03
6.7836080e-03
8.2910786e-03
9.0782268e-03
9.0456576e-03
8.2673759e-03
6.7916072e-03
4.7264312e-03
2.3256266e-03
-1.5298506e-04
-2.4989558e-03
-4.4331040e-03
-5.5208712e-03
-5.3592816e-03
-4.0881022e-03
-2.5019683e-03
-1.4378600e-03
-1.1703492e-03
-1.3202231e-03
-1.3035429e-03
-8.9449135e-04
-2.8687775e-04
2.0082903e-04
3.5013026e-04
1.5863895e-04
-1.8067098e-04
-4.3625973e-04
-4.4893545e-04
-2.3539780e-04
-6.1646342e-05
-1.5370354e-04
-3.1678492e-04
-4.4949385e-05
1.0606337e-03
2.9141926e-03
4.8135897e-03
5.9065196e-03
5.8462151e-03
4.8557906e-03
3.3375659e-03
1.4817524e-03
-7.5052364e-04
-3.2526196e-03
-5.7173533e-03
-7.9267234e-03
-9.7087128e-03
-1.0734388e-02
-1.0682876e-02
-9.6365595e-03
-8.0836523e-03
-6.3504695e-03
-4.1860398e-03
-1.1224376e-03
2.7718273e-03
6.7197027e-03
9.8390807e-03
1.1665260e-02
1.2183892e-02
1.1589790e-02
1.0023930e-02
7.7448868e-03
5.3938686e-03
3.5814434e-03
2.3886176e-03
1.5045325e-03
5.8398772e-04
-5.8731986e-04
-2.0448753e-03
-3.6466005e-03
-5.1003859e-03
-6.0043675e-03
-6.0503307e-03
-5.3199052e-03
-4.3181776e-03
-3.6178970e-03
-3.3576023e-03
-3.1104309e-03
-2.3440153e-03
-1.0237080e-03
3.0435877e-04
1.0872375e-03
1.2117180e-03
8.1834038e-04
8.5412109e-05
-6.9568529e-04
-1.1621265e-03
-1.1019425e-03
-5.2203581e-04
4.4155769e-04
1.5440050e-03
2.5101399e-03
3.2239681e-03
3.6966189e-03
3.8721262e-03
3.6718143e-03
3.1768975e-03
2.5654750e-03
1.9325744e-03
1.2788564e-03
5.5273555e-04
-2.9142030e-04
-1.2335941e-03
-2.2487034e-03
-3.2582319e-03
-3.9728150e-03
-4.1079805e-03
-3.8068998e-03
-3.5116706e-03
-3.4206863e-03
-3.3664150e-03
-3.1569783e-03
-2.8157937e-03
-2.4820546e-03
-2.1471047e-03
-1.5201004e-03
-2.0447555e-04
1.8910988e-03
4.3567290e-03
6.6156667e-03
8.2956009e-03
9.1382761e-03
8.8962744e-03
7.5467763e-03
5.3627313e-03
2.7196674e-03
-5.1021655e-05
-2.6902199e-03
-4.9514265e-03
-6.5142583e-03
-7.0582860e-03
-6.6240897e-03
-5.7707389e-03
-4.9235073e-03
-3.7392349e-03
-1.6601074e-03
1.0792955e-03
3.4665961e-03
4.5768112e-03
4.1273893e-03
2.4998252e-03
5.1709378e-04
-9.7539589e-04
-1.5276004e-03
-1.3021859e-03
-8.6633319e-04
-5.2275756e-04
-3.8593400e-05
7.8718132e-04
1.7251824e-03
2.4869408e-03
3.0937332e-03
3.5557357e-03
3.4775573e-03
2.3854182e-03
2.5753642e-04
-2.3924442e-03
-4.6702544e-03
-5.5836906e-03
-4.5606027e-03
-1.9785053e-03
8.1224184e-04
2.3661090e-03
2.2523819e-03
1.1798407e-03
1.4203377e-04
-4.8110180e-04
-1.0631577e-03
-2.0129508e-03
-3.2076683e-03
-4.2302632e-03
-4.7574565e-03
-4.6983271e-03
-4.1686055e-03
-3.1813748e-03
-1.4941141e-03
9.3490148e-04
3.6373997e-03
6.0069120e-03
7.6708988e-03
8.4215097e-03
8.0353569e-03
6.3752602e-03
3.7001434e-03
7.5438561e-04
-1.5598798e-03
-2.6994666e-03
-2.6374107e-03
-1.6362896e-03
-2.6667938e-04
6.0022522e-04
4.1789181e-04
-5.1583792e-04
-1.4182037e-03
-1.7748218e-03
-1.6522944e-03
-1.3761435e-03
-1.0374194e-03
-4.6089523e-04
3.3435136e-04
9.4988634e-04
1.0347938e-03
6.4478750e-04
6.3558188e-05
-5.3549760e-04
-1.1033291e-03
-1.5078723e-03
-1.5236978e-03
-9.9997959e-04
1.0872517e-04
1.6654469e-03
3.0870876e-03
3.5741801e-03
2.8252113e-03
1.2039868e-03
-6.6558443e-04
-2.2607904e-03
-3.4552253e-03
-4.5842869e-03
-5.9940553e-03
-7.5600922e-03
-8.7792093e-03
-9.2150646e-03
-8.8056038e-03
-7.7734786e-03
-6.2612080e-03
-4.1715664e-03
-1.2400788e-03
2.8439304e-03
8.1219200e-03
1.4099896e-02
1.9798540e-02
2.3917958e-02
2.5070856e-02
2.2129576e-02
1.4941356e-02
5.1836860e-03
-4.2478427e-03
-1.1242681e-02
-1.5314843e-02
-1.6842590e-02
-1.6412342e-02
-1.4549693e-02
-1.1514462e-02
-7.4979232e-03
-2.9229451e-03
1.6581102e-03
5.8287808e-03
9.3348600e-03
1.1737021e-02
1.2255856e-02
1.0338437e-02
6.1857720e-03
4.9122664e-04
-6.0027419e-03
-1.2459689e-02
-1.7766720e-02
-2.0753790e-02
-2.0543557e-02
-1.6629822e-02
-9.2351060e-03
6.7704328e-05
8.8077127e-03
1.5080105e-02
1.8382598e-02
1.9228602e-02
1.8240543e-02
1.5694770e-02
1.1830148e-02
7.2448596e-03
2.7727390e-03
-9.7602016e-04
-3.9064756e-03
-6.3160371e-03
-8.4624610e-03
-1.0231134e-02
-1.1217477e-02
-1.1035359e-02
-9.4977484e-03
-6.6570511e-03
-2.9195189e-03
8.7159738e-04
3.6532294e-03
4.5168272e-03
2.9554551e-03
-9.1329764e-04
-6.0026636e-03
-1.0310950e-02
-1.1878474e-02
-9.9394912e-03
-5.0799696e-03
1.5670545e-03
8.9684147e-03
1.6184949e-02
2.2092833e-02
2.5292388e-02
2.4666236e-02
2.0332644e-02
1.3751601e-02
6.6046364e-03
-2.3084893e-04
-6.5540667e-03
-1.2180589e-02
-1.6733829e-02
-1.9940906e-02
-2.1874436e-02
-2.2638549e-02
-2.1840156e-02
-1.8703702e-02
-1.2744197e-02
-4.4131639e-03
4.5609178e-03
1.1860570e-02
1.6031541e-02
1.6966656e-02
1.5303583e-02
1.1948740e-02
7.9597120e-03
4.3529457e-03
1.6928668e-03
-4.0326862e-05
-9.8424473e-04
-1.0682156e-03
-3.6657072e-04
6.1624429e-04
1.3134483e-03
1.5207777e-03
1.2983459e-03
6.6282460e-04
-4.2758818e-04
-1.8915125e-03
-3.4670798e-03
-4.8059192e-03
-5.6602474e-03
-6.0212595e-03
-5.9906684e-03
-5.5380606e-03
-4.5398017e-03
-3.0665438e-03
-1.4899516e-03
-2.2712196e-04
6.2507028e-04
1.3174230e-03
2.0252935e-03
2.5713164e-03
2.7676461e-03
2.8431676e-03
3.2063087e-03
3.9033054e-03
4.6484837e-03
5.2054339e-03
5.4346581e-03
5.1176354e-03
3.8640904e-03
1.3340407e-03
-2.2762169e-03
-6.1649321e-03
-9.3239838e-03
-1.0801212e-02
-9.9014847e-03
-6.6541440e-03
-2.0885463e-03
2.4568674e-03
6.1881618e-03
8.6414326e-03
9.3673395e-03
8.3328915e-03
6.1398051e-03
3.5436646e-03
8.3709121e-04
-1.9767081e-03
-4.3875028e-03
-5.4074868e-03
-4.7308880e-03
-3.3110558e-03
-2.2686610e-03
-1.6634207e-03
-9.0455065e-04
1.3976727e-04
1.1324026e-03
2.0200737e-03
3.0946964e-03
4.2919189e-03
4.9609196e-03
4.5251298e-03
3.0764903e-03
1.1828654e-03
-6.7401690e-04
-2.3090448e-03
-3.6665452e-03
-4.7613400e-03
-5.7421466e-03
-6.6745277e-03
-7.2360907e-03
-6.8522369e-03
-5.2324581e-03
-2.7567882e-03
-1.8116267e-04
1.9990850e-03
3.5815873e-03
4.2438171e-03
3.5753021e-03
1.5127255e-03
-1.4110428e-03
-4.2177179e-03
-5.9687272e-03
-6.2307428e-03
-4.9578160e-03
-1.9822055e-03
2.9526787e-03
9.3122500e-03
1.5074824e-02
1.7735966e-02
1.6358999e-02
1.2070911e-02
6.7638404e-03
1.9620679e-03
-1.5218117e-03
-3.5914691e-03
-4.6432858e-03
-5.1391730e-03
-5.2963506e-03
-5.1349099e-03
-4.6415467e-03
-3.8735390e-03
-3.0145157e-03
-2.2768298e-03
-1.9007145e-03
-2.2712890e-03
-3.5548275e-03
-5.2427747e-03
-6.5276188e-03
-7.0250773e-03
-6.8046751e-03
-5.7796144e-03
-3.5519627e-03
-2.1180407e-04
3.2718755e-03
5.8836462e-03
7.2467626e-03
7.4280880e-03
6.6717592e-03
5.4315768e-03
4.2613501e-03
3.4074211e-03
2.6503720e-03
1.6544078e-03
3.8591333e-04
-8.7189433e-04
-1.8955573e-03
-2.7069844e-03
-3.3114543e-03
-3.5117283e-03
-3.1005276e-03
-2.0827364e-03
-6.6158316e-04
8.6583411e-04
2.1732456e-03
2.9602483e-03
2.9940211e-03
2.1988785e-03
8.2602439e-04
-5.6428790e-04
-1.4356472e-03
-1.5837660e-03
-1.1778369e-03
-6.0839738e-04
-2.2166894e-04
-1.1179961e-04
-1.7581745e-04
-2.8953838e-04
-3.6810048e-04
-3.7326928e-04
-3.2566650e-04
-2.7151874e-04
-2.6088178e-04
-3.2774193e-04
-4.3703219e-04
-5.0208161e-04
-4.7134970e-04
-3.5828656e-04
-2.0152181e-04
-3.0374321e-05
