5.2954518e-06
1.7739042e-06
-1.0146251e-06
-2.1478320e-06
-1.0335633e-07
6.5064706e-06
1.7873825e-05
3.2299423e-05
4.6365762e-05
5.6047222e-05
5.8366888e-05
5.2901562e-05
4.2400152e-05
3.2068765e-05
2.7610765e-05
3.2671792e-05
4.6671794e-05
6.3994701e-05
7.5170711e-05
6.9995691e-05
4.1533525e-05
-1.0821095e-05
-8.0210815e-05
-1.5305642e-04
-2.1209479e-04
-2.4153334e-04
-2.3246190e-04
-1.8626886e-04
-1.1457160e-04
-3.5532941e-05
3.2101896e-05
7.5029668e-05
8.9335838e-05
8.1084816e-05
6.3419099e-05
5.1076974e-05
5.4065491e-05
7.2752209e-05
9.6564100e-05
1.0744781e-04
8.7189874e-05
2.5320170e-05
-7.4067306e-05
-1.8697865e-04
-2.7083201e-04
-2.7707993e-04
-1.7207230e-04
4.2709252e-05
3.2129232e-04
5.8131118e-04
7.2850595e-04
6.8883419e-04
4.3579854e-04
2.7179615e-06
-5.2416537e-04
-1.0288544e-03
-1.3970142e-03
-1.5456311e-03
-1.4420395e-03
-1.1067452e-03
-5.9887121e-04
1.0548973e-05
6.6127533e-04
1.3079823e-03
1.9099146e-03
2.4174153e-03
2.7632270e-03
2.8655350e-03
2.6462524e-03
2.0607931e-03
1.1278630e-03
-5.5670148e-05
-1.3257001e-03
-2.4874454e-03
-3.3645900e-03
-3.8406608e-03
-3.8762965e-03
-3.5001906e-03
-2.7864389e-03
-1.8356452e-03
-7.6729436e-04
2.8805149e-04
1.2083477e-03
1.9024716e-03
2.3233662e-03
2.4693942e-03
2.3753568e-03
2.0976353e-03
1.6992227e-03
1.2389415e-03
7.6622823e-04
3.2027533e-04
-6.8917150e-05
-3.7979665e-04
-5.9979954e-04
-7.2663042e-04
-7.6871072e-04
-7.4333345e-04
-6.7232969e-04
-5.7672660e-04
-4.7306405e-04
-3.7243977e-04
-2.8043488e-04
-1.9739345e-04
-1.2051334e-04
-4.7318310e-05
2.1545811e-05
8.1598845e-05
1.2597635e-04
1.4808778e-04
1.4421054e-04
1.1506756e-04
6.6017628e-05
5.9933817e-06
-5.4349347e-05
-1.0461977e-04
-1.3619602e-04
-1.4299416e-04
-1.2183459e-04
-7.3097111e-05
-1.7178817e-06
8.2704994e-05
1.6706523e-04
2.3631135e-04
2.7596233e-04
2.7618017e-04
2.3601300e-04
1.6542217e-04
8.3308680e-05
1.1594568e-05
-3.2524643e-05
-4.2900463e-05
-2.6506586e-05
-3.1416423e-07
1.5642516e-05
6.0338339e-06
-3.4228522e-05
-9.8527166e-05
-1.7119673e-04
-2.3273681e-04
-2.6546804e-04
-2.5832434e-04
-2.0972607e-04
-1.2746529e-04
-2.6033198e-05
7.7147003e-05
1.6534514e-04
2.2520371e-04
2.4832217e-04
2.3217357e-04
1.8074846e-04
1.0465449e-04
1.9848881e-05
-5.5524312e-05
-1.0568803e-04
-1.2165642e-04
-1.0369180e-04
-6.0621915e-05
-6.2681524e-06
4.5341946e-05
8.3800959e-05
1.0395123e-04
1.0553269e-04
9.1618896e-05
6.6683921e-05
3.5161011e-05
8.6961665e-07
-3.2922138e-05
-6.3229568e-05
-8.7238424e-05
-1.0258359e-04
-1.0799167e-04
-1.0388739e-04
-9.2461257e-05
-7.7045018e-05
-6.1080462e-05
-4.7074853e-05
-3.5784766e-05
-2.5824828e-05
-1.4032697e-05
3.1892280e-06
2.8015537e-05
5.9651061e-05
9.3750192e-05
1.2338581e-04
1.4149357e-04
1.4364677e-04
1.2968122e-04
1.0335833e-04
7.0476271e-05
3.6656919e-05
5.8446257e-06
-2.0267081e-05
-4.2184058e-05
-6.2090619e-05
-8.2721362e-05
-1.0564474e-04
-1.2953258e-04
-1.4943381e-04
-1.5794356e-04
-1.4824167e-04
-1.1738334e-04
-6.7978358e-05
-7.8700974e-06
5.1950737e-05
1.0066743e-04
1.3090096e-04
1.4052625e-04
1.3238140e-04
1.1231600e-04
8.6790807e-05
6.1153655e-05
3.8977633e-05
2.2152986e-05
1.1262734e-05
6.0206370e-06
5.7252936e-06
9.5776734e-06
1.6607547e-05
2.5160190e-05
3.2392895e-05
3.4598636e-05
2.8015646e-05
9.1395982e-06
-2.4626724e-05
-7.3061883e-05
-1.3104134e-04
-1.8816095e-04
-2.3108013e-04
-2.4788203e-04
-2.3245668e-04
-1.8686769e-04
-1.2067561e-04
-4.7538179e-05
1.9493530e-05
7.2043499e-05
1.0819778e-04
1.3148146e-04
1.4789584e-04
1.6265755e-04
1.7807263e-04
1.9319532e-04
2.0505216e-04
2.1050377e-04
2.0750741e-04
1.9505632e-04
1.7213101e-04
1.3673999e-04
8.6173751e-05
1.8850805e-05
-6.3107525e-05
-1.5224247e-04
-2.3636673e-04
-3.0146461e-04
-3.3573274e-04
-3.3316054e-04
-2.9539507e-04
-2.3137613e-04
-1.5490892e-04
-8.0840696e-05
-2.0928581e-05
1.9527089e-05
4.3287033e-05
5.9809211e-05
8.0668963e-05
1.1348099e-04
1.5717810e-04
2.0114427e-04
2.2905286e-04
2.2606607e-04
1.8630473e-04
1.1698757e-04
3.6809966e-05
-3.1205135e-05
-6.9182462e-05
-7.1504663e-05
-4.6019082e-05
-9.0989228e-06
2.2281338e-05
3.6962136e-05
3.1494227e-05
8.1732666e-06
-2.7572592e-05
-6.9016152e-05
-1.1002982e-04
-1.4694948e-04
-1.7912150e-04
-2.0739722e-04
-2.3122198e-04
-2.4616112e-04
-2.4373915e-04
-2.1413626e-04
-1.5051220e-04
-5.2814289e-05
7.0608032e-05
2.0403542e-04
3.2748537e-04
4.2091295e-04
4.6854557e-04
4.6249774e-04
4.0482531e-04
3.0714061e-04
1.8753030e-04
6.5853706e-05
-4.0908802e-05
-1.2200146e-04
-1.7418873e-04
-2.0073639e-04
-2.0853351e-04
-2.0462498e-04
-1.9370394e-04
-1.7748981e-04
-1.5581217e-04
-1.2842950e-04
-9.6492262e-05
-6.2916477e-05
-3.1506676e-05
-5.3289495e-06
1.4649459e-05
2.9617686e-05
4.1509240e-05
5.1724017e-05
6.1172311e-05
7.0491326e-05
7.9688951e-05
8.7737101e-05
9.2458057e-05
9.0826551e-05
7.9703816e-05
5.6861868e-05
2.2001448e-05
-2.2539108e-05
-7.1548799e-05
-1.1729801e-04
-1.5071324e-04
-1.6351973e-04
-1.5090637e-04
-1.1358564e-04
-5.8132025e-05
4.7041873e-06
6.3068986e-05
1.0735977e-04
1.3249875e-04
1.3814606e-04
1.2726465e-04
1.0420471e-04
7.3217926e-05
3.7852001e-05
1.1619270e-06
-3.3703511e-05
-6.3116302e-05
-8.3250073e-05
-9.1132828e-05
-8.6034278e-05
-7.0303282e-05
-4.8842882e-05
-2.7178454e-05
-9.1090616e-06
4.6060635e-06
1.5679184e-05
2.6324997e-05
3.7377156e-05
4.7323578e-05
5.2489028e-05
4.9087336e-05
3.6537880e-05
1.9561957e-05
7.0385442e-06
7.6964873e-06
2.4894682e-05
5.3578286e-05
8.1430101e-05
9.3926178e-05
8.0835697e-05
4.0917532e-05
-1.7410728e-05
-7.9476732e-05
-1.2992377e-04
-1.5791529e-04
-1.6014150e-04
-1.4089089e-04
-1.0915903e-04
-7.4062359e-05
-4.1201048e-05
-1.1686571e-05
1.6471304e-05
4.5950667e-05
7.7987460e-05
1.1117872e-04
1.4126771e-04
1.6180271e-04
1.6561195e-04
1.4690868e-04
1.0355631e-04
3.8849910e-05
-3.7860957e-05
-1.1235231e-04
-1.6882334e-04
-1.9468627e-04
-1.8501527e-04
-1.4442097e-04
-8.5532869e-05
-2.5103399e-05
2.0940722e-05
4.2211455e-05
3.6843211e-05
1.1753190e-05
-1.9901032e-05
-4.3302871e-05
-4.7090872e-05
-2.7129956e-05
1.2478081e-05
6.1340288e-05
1.0663616e-04
1.3733401e-04
1.4737972e-04
1.3692551e-04
1.1123044e-04
7.7728681e-05
4.2719364e-05
9.3323565e-06
-2.2658954e-05
-5.5403904e-05
-9.0402641e-05
-1.2620248e-04
-1.5776523e-04
-1.7776093e-04
-1.7917155e-04
-1.5807659e-04
-1.1539506e-04
-5.6808276e-05
9.0332787e-06
7.3090109e-05
1.2811553e-04
1.6966740e-04
1.9587728e-04
2.0641036e-04
2.0120913e-04
1.7963132e-04
1.4058458e-04
8.3898677e-05
1.2215262e-05
-6.7571475e-05
-1.4407870e-04
-2.0341099e-04
-2.3317849e-04
-2.2667481e-04
-1.8528363e-04
-1.1820549e-04
-3.9762493e-05
3.4606426e-05
9.2188077e-05
1.2545689e-04
1.3270235e-04
1.1717774e-04
8.5479350e-05
4.5735216e-05
5.9382244e-06
-2.7376526e-05
-5.0015444e-05
-6.0526068e-05
-5.9933196e-05
-5.0822373e-05
-3.6326441e-05
-1.9496046e-05
-3.0372745e-06
1.0780031e-05
2.0229197e-05
2.4417747e-05
2.3790578e-05
2.0534446e-05
1.8342805e-05
2.1304043e-05
3.2380705e-05
5.2358956e-05
7.9807727e-05
1.1178259e-04
1.4445673e-04
1.7305510e-04
1.9126058e-04
1.9095142e-04
1.6320581e-04
1.0094008e-04
2.4848020e-06
-1.2537152e-04
-2.6628123e-04
-3.9615619e-04
-4.8815124e-04
-5.1982305e-04
-4.8022869e-04
-3.7427565e-04
-2.2237162e-04
-5.5046657e-05
9.5893756e-05
2.0662767e-04
2.6748464e-04
2.8359448e-04
2.6995767e-04
2.4350234e-04
2.1621420e-04
1.9268975e-04
1.7185507e-04
1.5003833e-04
1.2395040e-04
9.2959023e-05
5.9634244e-05
2.8392516e-05
3.1885748e-06
-1.4426659e-05
-2.5936806e-05
-3.4997212e-05
-4.5616808e-05
-6.0297062e-05
-7.8966190e-05
-9.9083915e-05
-1.1665509e-04
-1.2745232e-04
-1.2784522e-04
-1.1520649e-04
-8.8353434e-05
-4.8361930e-05
5.3917666e-07
5.0228082e-05
8.8773511e-05
1.0323494e-04
8.5328925e-05
3.6972480e-05
-2.7846338e-05
-8.6591501e-05
-1.1602544e-04
-1.0110029e-04
-4.1071813e-05
4.9742521e-05
1.4679709e-04
2.2362271e-04
2.6018615e-04
2.4819268e-04
1.9180231e-04
1.0426411e-04
2.6508801e-06
-9.6726020e-05
-1.8120814e-04
-2.4301115e-04
-2.7846690e-04
-2.8612133e-04
-2.6553714e-04
-2.1770941e-04
-1.4661586e-04
-6.0557843e-05
2.7982987e-05
1.0441650e-04
1.5551427e-04
1.7311726e-04
1.5675266e-04
1.1411079e-04
5.9019002e-05
7.4331065e-06
-2.7282420e-05
-3.8170342e-05
-2.6208837e-05
1.1123284e-06
3.3620162e-05
6.2641367e-05
8.3380138e-05
9.4889141e-05
9.8295506e-05
9.4577748e-05
8.3316937e-05
6.3045707e-05
3.2629473e-05
-7.4993387e-06
-5.5053272e-05
-1.0643641e-04
-1.5737480e-04
-2.0295624e-04
-2.3708976e-04
-2.5218325e-04
-2.4007433e-04
-1.9457287e-04
-1.1472122e-04
-7.0095970e-06
1.1486693e-04
2.3270742e-04
3.2789798e-04
3.8575276e-04
3.9899194e-04
3.6935861e-04
3.0680295e-04
2.2631374e-04
1.4332013e-04
6.9217055e-05
8.5727406e-06
-4.1043413e-05
-8.6602996e-05
-1.3544464e-04
-1.9101396e-04
-2.5039203e-04
-3.0489962e-04
-3.4360586e-04
-3.5796387e-04
-3.4528071e-04
-3.0949946e-04
-2.5876300e-04
-2.0104450e-04
-1.4089604e-04
-7.9145158e-05
-1.4862293e-05
5.2151684e-05
1.1988784e-04
1.8428294e-04
2.4058745e-04
2.8485318e-04
3.1451294e-04
3.2780277e-04
3.2270411e-04
2.9648657e-04
2.4655296e-04
1.7240139e-04
7.7727582e-05
-2.8440451e-05
-1.3232261e-04
-2.1828891e-04
-2.7313832e-04
-2.8937732e-04
-2.6687619e-04
-2.1321775e-04
-1.4223392e-04
-7.0525476e-05
-1.2821623e-05
2.2194583e-05
3.4031967e-05
2.9722137e-05
2.0631688e-05
1.8007728e-05
2.8962250e-05
5.4381785e-05
8.9463387e-05
1.2649829e-04
1.5851559e-04
1.8191838e-04
1.9677670e-04
2.0477614e-04
2.0580520e-04
1.9499729e-04
1.6259124e-04
9.7613867e-05
-5.8536545e-06
-1.4244099e-04
-2.9228386e-04
-4.2323076e-04
-4.9912209e-04
-4.9207437e-04
-3.9405226e-04
-2.2235340e-04
-1.5997955e-05
1.7579906e-04
3.0846834e-04
3.5478118e-04
3.1156252e-04
1.9926268e-04
5.5328108e-05
-7.7070030e-05
-1.6206578e-04
-1.8100770e-04
-1.3585631e-04
-4.6174827e-05
5.8221324e-05
1.4635688e-04
1.9450239e-04
1.9190656e-04
1.4256168e-04
6.2747795e-05
-2.4704625e-05
-9.7549432e-05
-1.4036995e-04
-1.4795016e-04
-1.2489102e-04
-8.2176349e-05
-3.2579916e-05
1.3138224e-05
4.8214201e-05
7.0264609e-05
8.0707662e-05
8.3412644e-05
8.2906143e-05
8.2687514e-05
8.3984365e-05
8.5223040e-05
8.2435297e-05
7.0611715e-05
4.5789103e-05
7.3830103e-06
-4.0112185e-05
-8.7134722e-05
-1.2140521e-04
-1.3214931e-04
-1.1462631e-04
-7.2967659e-05
-1.9846657e-05
2.7193001e-05
5.1503580e-05
4.3507922e-05
5.4053584e-06
-4.8333892e-05
-9.6337874e-05
-1.1955718e-04
-1.0977865e-04
-7.3270939e-05
-2.7901962e-05
4.8574426e-06
9.4403246e-06
-1.6883177e-05
-6.2553791e-05
-1.0642775e-04
-1.2678585e-04
-1.1083637e-04
-6.0415635e-05
8.9280986e-06
7.5244252e-05
1.2041687e-04
1.3839699e-04
1.3784480e-04
1.3813109e-04
1.6035606e-04
2.1754221e-04
3.0842703e-04
4.1725167e-04
5.1902450e-04
5.8729865e-04
6.0088945e-04
5.4724738e-04
4.2240867e-04
2.2923260e-04
-2.3868115e-05
-3.2233132e-04
-6.4327193e-04
-9.5374237e-04
-1.2121918e-03
-1.3748015e-03
-1.4057537e-03
-1.2879425e-03
-1.0293936e-03
-6.6208918e-04
-2.3425779e-04
1.9984295e-04
5.8951435e-04
8.9511550e-04
1.0926150e-03
1.1746146e-03
1.1479377e-03
1.0289773e-03
8.3891155e-04
6.0073134e-04
3.3857319e-04
7.8079861e-05
-1.5419751e-04
-3.3358498e-04
-4.4194303e-04
-4.7249982e-04
-4.3263849e-04
-3.4304179e-04
-2.3265092e-04
-1.3071019e-04
-5.9122227e-05
-2.7712691e-05
-3.3267279e-05
-6.2276141e-05
-9.6405414e-05
-1.1883276e-04
-1.1924083e-04
-9.5825061e-05
-5.4050757e-05
-3.3553890e-06
4.6360748e-05
8.7111015e-05
1.1384337e-04
1.2471295e-04
1.2121186e-04
1.0810278e-04
9.2422429e-05
8.1034517e-05
7.7496385e-05
7.9878239e-05
8.0765983e-05
6.9753986e-05
3.7780253e-05
-1.8241060e-05
-9.2526332e-05
-1.7086743e-04
-2.3459918e-04
-2.6665200e-04
-2.5735230e-04
-2.0779365e-04
-1.2951740e-04
-4.0513880e-05
4.1049101e-05
1.0283952e-04
1.4143450e-04
1.6109943e-04
1.6928006e-04
1.7167798e-04
1.6942831e-04
1.5909364e-04
1.3521966e-04
9.4445378e-05
3.8988405e-05
-2.2562048e-05
-7.7639803e-05
-1.1412137e-04
-1.2478554e-04
-1.1001430e-04
-7.7731165e-05
-4.0582005e-05
-1.1362154e-05
1.5989638e-06
-2.6943594e-06
-1.7935288e-05
-3.3479417e-05
-3.9026160e-05
-2.8768126e-05
-2.8260487e-06
3.3983513e-05
7.4084991e-05
1.0919287e-04
1.3286212e-04
1.4232513e-04
1.3817645e-04
1.2249890e-04
9.7305654e-05
6.4317028e-05
2.5423986e-05
-1.7271572e-05
-6.1903125e-05
-1.0684898e-04
-1.4979386e-04
-1.8660325e-04
-2.1129599e-04
-2.1754808e-04
-2.0090781e-04
-1.6054187e-04
-9.9973069e-05
-2.6801221e-05
4.8621036e-05
1.1511837e-04
1.6235791e-04
1.8221438e-04
1.7039686e-04
1.2819449e-04
6.3352456e-05
-1.0931844e-05
-7.9060607e-05
-1.2719224e-04
-1.4691003e-04
-1.3702132e-04
-1.0301009e-04
-5.4665289e-05
-2.9527815e-06
4.2811051e-05
7.6758586e-05
9.6985987e-05
1.0494637e-04
1.0393797e-04
9.7216523e-05
8.6925008e-05
7.4412841e-05
6.1061528e-05
4.8470845e-05
3.7807375e-05
2.8995876e-05
2.0483533e-05
9.7914172e-06
-5.3961520e-06
-2.6059538e-05
-5.1088068e-05
-7.7294328e-05
-1.0018632e-04
-1.1513907e-04
-1.1855850e-04
-1.0879586e-04
-8.6649618e-05
-5.5230092e-05
-1.8949332e-05
1.7854572e-05
5.1539991e-05
7.8926440e-05
9.6993492e-05
1.0305142e-04
9.5453624e-05
7.4553763e-05
4.3432121e-05
7.9375158e-06
-2.4220611e-05
-4.5284469e-05
-4.9784036e-05
-3.6750835e-05
-1.0987257e-05
1.7456545e-05
3.6074278e-05
3.4458131e-05
8.8655573e-06
-3.5532545e-05
-8.6062441e-05
-1.2674057e-04
-1.4326309e-04
-1.2732633e-04
-7.9147145e-05
-7.4626042e-06
7.2787463e-05
1.4424437e-04
1.9132564e-04
2.0383343e-04
1.7922345e-04
1.2314994e-04
4.8214344e-05
-2.8932843e-05
-9.1642698e-05
-1.2747121e-04
-1.3125958e-04
-1.0615204e-04
-6.2434497e-05
-1.4620587e-05
2.3043654e-05
4.1429037e-05
3.9099730e-05
2.1665927e-05
-1.1178257e-06
-1.9220796e-05
-2.5788761e-05
-1.9075832e-05
-2.4352360e-06
1.7312538e-05
3.2363423e-05
3.6407376e-05
2.6417469e-05
3.3951915e-06
-2.7923991e-05
-6.0176059e-05
-8.5033155e-05
-9.5207576e-05
-8.6485857e-05
-5.9217351e-05
-1.8447795e-05
2.7462362e-05
6.8928369e-05
9.7265273e-05
1.0655628e-04
9.4960982e-05
6.5168905e-05
2.3797831e-05
-2.0181309e-05
-5.7526328e-05
-8.0683040e-05
-8.5165203e-05
-7.0185955e-05
-3.8573311e-05
3.8640292e-06
4.9280303e-05
8.8904498e-05
1.1441711e-04
1.1974928e-04
1.0305731e-04
6.7947094e-05
2.2960331e-05
-2.0854180e-05
-5.3571165e-05
-6.9865448e-05
-7.0792509e-05
-6.2986153e-05
-5.5604139e-05
-5.6365492e-05
-6.8296371e-05
-8.8395304e-05
-1.0866340e-04
-1.1906589e-04
-1.1125716e-04
-8.1632920e-05
-3.2613311e-05
2.8164947e-05
9.0215405e-05
1.4302071e-04
1.7828740e-04
1.9144295e-04
1.8233352e-04
1.5463255e-04
1.1412952e-04
6.6816707e-05
1.7604131e-05
-2.9901082e-05
-7.2730780e-05
-1.0772527e-04
-1.3130161e-04
-1.4011508e-04
-1.3230225e-04
-1.0862911e-04
-7.2871092e-05
-3.1087929e-05
1.0008792e-05
4.4928836e-05
7.0690945e-05
8.6900215e-05
9.4553372e-05
9.4460828e-05
8.6360413e-05
6.8982008e-05
4.1041345e-05
2.9340667e-06
-4.1720273e-05
-8.5683674e-05
-1.1935873e-04
-1.3342245e-04
-1.2191826e-04
-8.4646116e-05
-2.7880000e-05
3.6998897e-05
9.6582885e-05
1.3913995e-04
1.5753150e-04
1.5026366e-04
1.2049151e-04
7.3841541e-05
1.6424824e-05
-4.6005739e-05
-1.0762970e-04
-1.6153295e-04
-1.9929433e-04
-2.1213989e-04
-1.9370896e-04
-1.4341402e-04
-6.8599467e-05
1.6108292e-05
9.2535212e-05
1.4435363e-04
1.6185331e-04
1.4434983e-04
9.9840545e-05
4.2567960e-05
-1.0640002e-05
-4.4598410e-05
-4.9857697e-05
-2.5585240e-05
1.9959193e-05
7.1896882e-05
1.1340920e-04
1.3089039e-04
1.1787057e-04
7.6683497e-05
1.7506995e-05
-4.4975016e-05
-9.6247267e-05
-1.2631017e-04
-1.3213726e-04
-1.1753373e-04
-9.0758140e-05
-6.1022207e-05
-3.5216752e-05
-1.5995780e-05
-1.8204739e-06
1.1170263e-05
2.6356623e-05
4.4221882e-05
6.1478146e-05
7.2318379e-05
7.1226697e-05
5.5703262e-05
2.7630463e-05
-7.0315938e-06
-3.9957940e-05
-6.2885744e-05
-6.9863308e-05
-5.8648635e-05
-3.1073540e-05
7.4429029e-06
4.8988961e-05
8.4686743e-05
1.0641606e-04
1.0837143e-04
8.8145568e-05
4.7293467e-05
-8.5219844e-06
-6.9861826e-05
-1.2465899e-04
-1.6047046e-04
-1.6727830e-04
-1.3990681e-04
-7.9843642e-05
3.8680852e-06
9.5621879e-05
1.7659314e-04
2.2964185e-04
2.4395799e-04
2.1761783e-04
1.5721434e-04
7.5121140e-05
-1.4081135e-05
-9.6537796e-05
-1.6087077e-04
-1.9918292e-04
-2.0797914e-04
-1.8910191e-04
-1.5005741e-04
-1.0286788e-04
-6.0921291e-05
-3.4583809e-05
-2.7726959e-05
-3.6804501e-05
-5.2569110e-05
-6.3526050e-05
-5.9809148e-05
-3.6296052e-05
5.7656795e-06
5.8969179e-05
1.1188169e-04
1.5270817e-04
1.7332117e-04
1.7198114e-04
1.5343728e-04
1.2630353e-04
9.8952182e-05
7.5896198e-05
5.6423659e-05
3.6167656e-05
1.0541420e-05
-2.2050129e-05
-5.8663349e-05
-9.2393093e-05
-1.1478100e-04
-1.1903868e-04
-1.0280468e-04
-6.9483393e-05
-2.7792551e-05
1.0416425e-05
3.3680045e-05
3.4938721e-05
1.4628981e-05
-1.8720799e-05
-5.1178379e-05
-6.8623171e-05
-6.2368743e-05
-3.2788514e-05
1.0533149e-05
5.2221528e-05
7.7164326e-05
7.6829240e-05
5.2585802e-05
1.4595986e-05
-2.2645873e-05
-4.5989246e-05
-4.8368233e-05
-3.1005276e-05
-2.3504846e-06
2.5775973e-05
4.3119246e-05
4.4700597e-05
3.1690345e-05
9.5368512e-06
-1.5000240e-05
-3.6043807e-05
-4.9304056e-05
-5.1923573e-05
-4.2449008e-05
-2.1246775e-05
8.9936137e-06
4.2951395e-05
7.2922838e-05
9.0332677e-05
8.8478600e-05
6.5372505e-05
2.5283050e-05
-2.1959918e-05
-6.3924087e-05
-8.9759262e-05
-9.3850474e-05
-7.7311537e-05
-4.6745850e-05
-1.1084270e-05
2.1824159e-05
4.7293139e-05
6.3892895e-05
7.2070361e-05
7.2561275e-05
6.5667081e-05
5.1372000e-05
2.9792118e-05
1.8804267e-06
-2.9853928e-05
-6.1047934e-05
-8.5751767e-05
-9.7321144e-05
-9.0013508e-05
-6.1159403e-05
-1.3306642e-05
4.4704829e-05
9.8735066e-05
1.3269221e-04
1.3344178e-04
9.5570743e-05
2.4061041e-05
-6.6398195e-05
-1.5535739e-04
-2.2227762e-04
-2.5174713e-04
-2.3697180e-04
-1.8138963e-04
-9.7945057e-05
-5.6252181e-06
7.5795963e-05
1.3101125e-04
1.5282250e-04
1.4325515e-04
1.1209887e-04
7.3598405e-05
4.2404471e-05
2.9828787e-05
4.1139218e-05
7.4347060e-05
1.2073086e-04
1.6706085e-04
1.9905935e-04
2.0520307e-04
1.7975707e-04
1.2397071e-04
4.5016273e-05
-4.6385750e-05
-1.3852168e-04
-2.2116648e-04
-2.8746641e-04
-3.3437049e-04
-3.6145398e-04
-3.6885840e-04
-3.5560024e-04
-3.1931946e-04
-2.5769689e-04
-1.7075086e-04
-6.2643682e-05
5.8123863e-05
1.8029317e-04
2.9234771e-04
3.8471762e-04
4.5093043e-04
4.8774888e-04
4.9489507e-04
4.7455590e-04
4.2979218e-04
3.6197430e-04
2.6962717e-04
1.5042824e-04
5.5660590e-06
-1.5602213e-04
-3.1627955e-04
-4.5099060e-04
-5.3640169e-04
-5.5700851e-04
-5.1132824e-04
-4.1310009e-04
-2.8704882e-04
-1.6059673e-04
-5.4838827e-05
2.1406939e-05
7.2097623e-05
1.0919965e-04
1.4510477e-04
1.8600749e-04
2.2924140e-04
2.6469672e-04
2.7882923e-04
2.5997349e-04
2.0355586e-04
1.1532936e-04
1.1034700e-05
-8.7676796e-05
-1.5946518e-04
-1.8923088e-04
-1.7182759e-04
-1.1286188e-04
-2.6920459e-05
6.5911858e-05
1.4428292e-04
1.8981136e-04
1.9090477e-04
1.4572511e-04
6.3279342e-05
-3.8651950e-05
-1.3812788e-04
-2.1403282e-04
-2.5046200e-04
-2.4002189e-04
-1.8511656e-04
-9.6901880e-05
7.5287208e-06
1.0875526e-04
1.8859951e-04
2.3314566e-04
2.3492117e-04
1.9400743e-04
1.1790425e-04
2.0123801e-05
-8.2259170e-05
-1.7162380e-04
-2.3282659e-04
-2.5579426e-04
-2.3730661e-04
-1.8157747e-04
-9.9578135e-05
-7.1113029e-06
7.8529320e-05
1.4269028e-04
1.7681021e-04
1.7996181e-04
1.5813494e-04
1.2172195e-04
8.2026877e-05
4.7725324e-05
2.2299031e-05
3.4208954e-06
-1.5228824e-05
-4.0203616e-05
-7.4140241e-05
-1.1327499e-04
-1.4810115e-04
-1.6705324e-04
-1.6151434e-04
-1.2996109e-04
-7.9367499e-05
-2.2979602e-05
2.4589293e-05
5.2807491e-05
5.9080268e-05
4.9468524e-05
3.5925477e-05
3.1242875e-05
4.3954349e-05
7.5304551e-05
1.1920559e-04
1.6471014e-04
1.9966451e-04
2.1407325e-04
2.0219904e-04
1.6325211e-04
1.0117851e-04
2.4095876e-05
-5.6682236e-05
-1.2867953e-04
-1.8078938e-04
-2.0497477e-04
-1.9762718e-04
-1.6127786e-04
-1.0574295e-04
-4.7332445e-05
-5.4047462e-06
3.2331201e-06
-2.9585418e-05
-9.9079144e-05
-1.8707905e-04
-2.6643118e-04
-3.0930772e-04
-2.9652883e-04
-2.2415996e-04
-1.0466896e-04
3.7650490e-05
1.7484368e-04
2.8378730e-04
3.5219566e-04
3.8025323e-04
3.7733424e-04
3.5546839e-04
3.2276445e-04
2.7989849e-04
2.2128837e-04
1.4031181e-04
3.5912792e-05
-8.2855496e-05
-1.9694446e-04
-2.8253627e-04
-3.1940752e-04
-2.9884317e-04
-2.2753314e-04
-1.2565539e-04
-2.0048529e-05
6.4436283e-05
1.1176036e-04
1.1722781e-04
8.5994959e-05
3.0007934e-05
-3.5147206e-05
-9.3523674e-05
-1.3202729e-04
-1.4292491e-04
-1.2503953e-04
-8.3285878e-05
-2.6751752e-05
3.3864786e-05
8.8467110e-05
1.2883547e-04
1.4906770e-04
1.4574921e-04
1.1836764e-04
7.0000540e-05
7.7523383e-06
-5.7735634e-05
-1.1393311e-04
-1.4879661e-04
-1.5338139e-04
-1.2433302e-04
-6.5422318e-05
1.2678763e-05
9.4294133e-05
1.6175802e-04
1.9907939e-04
1.9576887e-04
1.4998638e-04
6.9843158e-05
-2.8034438e-05
-1.2260157e-04
-1.9395034e-04
-2.2852926e-04
-2.2241933e-04
-1.8176073e-04
-1.2026100e-04
-5.4575624e-05
8.3255103e-07
3.7463750e-05
5.4337743e-05
5.7963928e-05
6.0792776e-05
7.6976506e-05
1.1563392e-04
1.7452994e-04
2.3811826e-04
2.8219143e-04
2.8382007e-04
2.3214271e-04
1.3482434e-04
1.6888952e-05
-8.7985757e-05
-1.5029831e-04
-1.5634907e-04
-1.1366749e-04
-4.7829290e-05
7.9768142e-06
2.6076360e-05
-5.4726732e-06
-7.9339691e-05
-1.7236898e-04
-2.5403094e-04
-2.9705944e-04
-2.8681154e-04
-2.2612082e-04
-1.3398871e-04
-3.8636905e-05
3.2513191e-05
6.2225929e-05
4.8785511e-05
5.5446015e-06
-4.4721996e-05
-7.8173791e-05
-7.7795268e-05
-3.8268656e-05
3.3281064e-05
1.2029939e-04
2.0225835e-04
2.6097296e-04
2.8598688e-04
2.7708118e-04
2.4287964e-04
1.9612271e-04
1.4763827e-04
1.0186912e-04
5.6183204e-05
4.2198135e-06
-5.8588632e-05
-1.3023324e-04
-2.0052115e-04
-2.5351317e-04
-2.7307769e-04
-2.4932278e-04
-1.8326031e-04
-8.7706878e-05
1.6060257e-05
1.0461987e-04
1.5920849e-04
1.7043409e-04
1.3980549e-04
7.8499557e-05
3.8272165e-06
-6.5832482e-05
-1.1595059e-04
-1.3895629e-04
-1.3475775e-04
-1.0900565e-04
-7.0217948e-05
-2.6979219e-05
1.4055095e-05
4.9176521e-05
7.7721935e-05
1.0127484e-04
1.2203077e-04
1.4069581e-04
1.5473260e-04
1.5803210e-04
1.4285134e-04
1.0381586e-04
4.1962171e-05
-3.3669482e-05
-1.0769866e-04
-1.6279512e-04
-1.8542468e-04
-1.7074461e-04
-1.2461413e-04
-6.1860457e-05
-1.4334718e-06
3.9762845e-05
5.2140975e-05
3.5971572e-05
4.2788562e-07
-4.0284689e-05
-7.2044703e-05
-8.5187324e-05
-7.6723498e-05
-5.0093914e-05
-1.3117567e-05
2.4899808e-05
5.6195921e-05
7.6789330e-05
8.6923479e-05
8.9902300e-05
9.0240472e-05
9.1850145e-05
9.6750493e-05
1.0447673e-04
1.1207380e-04
1.1452399e-04
1.0565531e-04
7.9712127e-05
3.3570362e-05
-3.0937859e-05
-1.0564776e-04
-1.7675305e-04
-2.2799882e-04
-2.4560467e-04
-2.2312122e-04
-1.6420557e-04
-8.1895943e-05
5.4468274e-06
7.9556741e-05
1.2684446e-04
1.4092467e-04
1.2292763e-04
8.0259540e-05
2.4653897e-05
-3.0084167e-05
-7.0686364e-05
-8.7343733e-05
-7.6420589e-05
-4.2071445e-05
4.0997788e-06
4.5801316e-05
6.6982687e-05
5.7730505e-05
1.9064024e-05
-3.5696600e-05
-8.4437449e-05
-1.0389126e-04
-7.8246597e-05
-5.2127885e-06
1.0218190e-04
2.1820725e-04
3.1072762e-04
3.4966678e-04
3.1565453e-04
2.0672359e-04
4.1018871e-05
-1.4598895e-04
-3.0998158e-04
-4.1014464e-04
-4.2164854e-04
-3.4377541e-04
-2.0036038e-04
-3.2056785e-05
1.1674659e-04
2.1134669e-04
2.3557263e-04
1.9393405e-04
1.0800351e-04
8.7637118e-06
-7.2902556e-05
-1.1466133e-04
-1.0784400e-04
-5.8555293e-05
1.4628774e-05
8.5345495e-05
1.2568495e-04
1.1334249e-04
3.8736891e-05
-8.9597117e-05
-2.4364122e-04
-3.8055051e-04
-4.5369852e-04
-4.2779064e-04
-2.9302013e-04
-7.2054953e-05
1.8456322e-04
4.1409005e-04
5.6226749e-04
6.0036972e-04
5.3180504e-04
3.8674141e-04
2.0856849e-04
3.8593503e-05
-9.5143591e-05
-1.8171700e-04
-2.2412536e-04
-2.3224251e-04
-2.1607584e-04
-1.8236311e-04
-1.3517435e-04
-7.8945489e-05
-2.1261692e-05
2.6920070e-05
5.4281113e-05
5.3893559e-05
2.6717082e-05
-1.8193670e-05
-6.5784760e-05
-9.8213253e-05
-9.9882488e-05
-6.3606007e-05
5.1309035e-06
8.8497548e-05
1.6180923e-04
2.0233146e-04
1.9792578e-04
1.5189291e-04
8.1764402e-05
1.2296353e-05
-3.4515318e-05
-4.8150483e-05
-3.3218648e-05
-6.4939399e-06
1.1195278e-05
4.3897812e-06
-3.0570799e-05
-8.4592730e-05
-1.3991170e-04
-1.7703332e-04
-1.8196226e-04
-1.5113661e-04
-9.2327042e-05
-2.1495674e-05
4.2828413e-05
8.5398253e-05
9.8317630e-05
8.2274563e-05
4.5095102e-05
-1.3178045e-06
-4.4416852e-05
-7.4016697e-05
-8.4539549e-05
-7.6177004e-05
-5.4442721e-05
-2.7817309e-05
-3.9749996e-06
1.3896162e-05
2.8550980e-05
4.7010468e-05
7.6990362e-05
1.2315411e-04
1.8435265e-04
2.5259643e-04
3.1398334e-04
3.5130680e-04
3.4781906e-04
2.9154577e-04
1.7937345e-04
1.9818685e-05
-1.6675263e-04
-3.5124472e-04
-5.0194347e-04
-5.9193983e-04
-6.0555989e-04
-5.4204111e-04
-4.1567471e-04
-2.5184133e-04
-7.9761631e-05
7.4752652e-05
1.9389186e-04
2.6929134e-04
3.0093352e-04
2.9481376e-04
2.6076023e-04
2.1104466e-04
1.5930207e-04
1.1870762e-04
9.8905421e-05
1.0247912e-04
1.2280202e-04
1.4509029e-04
1.5123438e-04
1.2700050e-04
6.8487860e-05
-1.5549243e-05
-1.0706789e-04
-1.8597545e-04
-2.3763307e-04
-2.5756716e-04
-2.5125052e-04
-2.2914804e-04
-2.0008005e-04
-1.6663013e-04
-1.2489955e-04
-6.8472744e-05
5.7509790e-06
9.3087876e-05
1.8035751e-04
2.4935663e-04
2.8301039e-04
2.7167560e-04
2.1713789e-04
1.3273619e-04
3.9467585e-05
-4.0529759e-05
-9.0532408e-05
-1.0328913e-04
-8.1894774e-05
-3.8189475e-05
1.0878719e-05
4.8316355e-05
6.2264846e-05
4.9646209e-05
1.6718831e-05
-2.4015411e-05
-5.9390438e-05
-8.1078393e-05
-8.8439620e-05
-8.7592145e-05
-8.7482806e-05
-9.4992110e-05
-1.1128109e-04
-1.3090396e-04
-1.4402710e-04
-1.4081657e-04
-1.1606454e-04
-7.1791617e-05
-1.6764023e-05
3.6414685e-05
7.5572653e-05
9.3314429e-05
8.9768613e-05
7.2572687e-05
5.4073638e-05
4.6800542e-05
5.8807862e-05
9.0448086e-05
1.3369943e-04
1.7444796e-04
1.9715529e-04
1.9039888e-04
1.5129614e-04
8.7118563e-05
1.3413887e-05
-5.0707985e-05
-8.8481968e-05
-9.0916559e-05
-6.0353672e-05
-1.0578272e-05
3.7406354e-05
6.2674765e-05
5.1831063e-05
3.6551492e-06
-7.0788992e-05
-1.5239334e-04
-2.2062233e-04
-2.5975781e-04
-2.6259551e-04
-2.3087299e-04
-1.7314124e-04
-1.0148611e-04
-2.8342817e-05
3.5954896e-05
8.4720134e-05
1.1547057e-04
1.2946110e-04
1.3043086e-04
1.2282479e-04
1.1001023e-04
9.3604656e-05
7.4331069e-05
5.3460836e-05
3.3559973e-05
1.7918182e-05
9.0869098e-06
7.6051050e-06
1.1796338e-05
1.8710305e-05
2.5515245e-05
3.0423716e-05
3.2610543e-05
3.1312554e-05
2.4957092e-05
1.1262971e-05
-1.1376638e-05
-4.1966085e-05
-7.5717258e-05
-1.0420276e-04
-1.1708100e-04
-1.0571282e-04
-6.7567710e-05
-8.9462487e-06
5.5860554e-05
1.0905379e-04
1.3566826e-04
1.2902257e-04
9.2877739e-05
3.9390702e-05
-1.6105391e-05
-6.1008823e-05
-8.9376446e-05
-1.0234041e-04
-1.0523499e-04
-1.0317506e-04
-9.7617059e-05
-8.5914664e-05
-6.3542254e-05
-2.6981369e-05
2.3749051e-05
8.3278478e-05
1.4077955e-04
1.8227010e-04
1.9473536e-04
1.7053022e-04
1.1050113e-04
2.4791459e-05
-6.9134883e-05
-1.5103302e-04
-2.0377334e-04
-2.1851849e-04
-1.9711141e-04
-1.5066665e-04
-9.4894436e-05
-4.3963438e-05
-5.3157481e-06
2.2433670e-05
4.7811984e-05
8.1952029e-05
1.3287661e-04
2.0060411e-04
2.7495103e-04
3.3703877e-04
3.6433324e-04
3.3782658e-04
2.4899999e-04
1.0397449e-04
-7.6840852e-05
-2.6349626e-04
-4.2381742e-04
-5.3075554e-04
-5.6766217e-04
-5.3043138e-04
-4.2661685e-04
-2.7257982e-04
-9.0169547e-05
9.6098995e-05
2.6223908e-04
3.8871726e-04
4.6307210e-04
4.8042273e-04
4.4281264e-04
3.5802318e-04
2.3830859e-04
9.9283667e-05
-4.1284268e-05
-1.6528230e-04
-2.5681409e-04
-3.0498519e-04
-3.0599615e-04
-2.6387378e-04
-1.8971196e-04
-9.9598739e-05
-1.1426507e-05
5.9064270e-05
1.0213693e-04
1.1637469e-04
1.0832843e-04
8.9676947e-05
7.3020558e-05
6.7601906e-05
7.6304595e-05
9.4920686e-05
1.1379535e-04
1.2112003e-04
1.0667823e-04
6.4862189e-05
-3.6948929e-06
-9.1814953e-05
-1.8647588e-04
-2.7056475e-04
-3.2610833e-04
-3.3899560e-04
-3.0400549e-04
-2.2789374e-04
-1.2844608e-04
-2.9011470e-05
4.9755076e-05
9.7411034e-05
1.1672064e-04
1.2057976e-04
1.2479481e-04
1.4066640e-04
1.7076428e-04
2.0903757e-04
2.4421060e-04
2.6437616e-04
2.6083342e-04
2.3004870e-04
1.7369012e-04
9.7534714e-05
1.0233722e-05
-7.7589193e-05
-1.5417950e-04
-2.0808073e-04
-2.3047135e-04
-2.1787899e-04
-1.7387463e-04
-1.0880717e-04
-3.7775718e-05
2.2866674e-05
5.9700368e-05
6.5564476e-05
4.0867588e-05
-7.2594870e-06
-6.7302088e-05
-1.2624391e-04
-1.7219512e-04
-1.9627762e-04
-1.9359142e-04
-1.6335705e-04
-1.0847877e-04
-3.4773506e-05
4.9914550e-05
1.3649835e-04
2.1526469e-04
2.7663348e-04
3.1239072e-04
3.1711131e-04
2.8946009e-04
2.3326195e-04
1.5756760e-04
7.4837592e-05
-2.5518678e-06
-6.6026286e-05
-1.1280002e-04
-1.4503525e-04
-1.6682558e-04
-1.8101298e-04
-1.8780639e-04
-1.8584794e-04
-1.7473587e-04
-1.5709394e-04
-1.3860043e-04
-1.2569626e-04
-1.2204387e-04
-1.2546561e-04
-1.2724630e-04
-1.1497110e-04
-7.7886795e-05
-1.2198694e-05
7.5769625e-05
1.6973591e-04
2.4748623e-04
2.8813282e-04
2.8037684e-04
2.2840675e-04
1.5217216e-04
8.0572592e-05
3.9372724e-05
3.9084698e-05
6.9376357e-05
1.0395840e-04
1.1402817e-04
8.2864011e-05
1.3239826e-05
-7.6007681e-05
-1.6055124e-04
-2.2073141e-04
-2.4673121e-04
-2.3876275e-04
-2.0411589e-04
-1.5322096e-04
-9.6432899e-05
-4.2237708e-05
3.3411349e-06
3.6743524e-05
5.6732632e-05
6.4237649e-05
6.2121748e-05
5.4761990e-05
4.7274775e-05
4.4262045e-05
4.8254014e-05
5.8467668e-05
7.0664237e-05
7.8508675e-05
7.5984350e-05
5.9800806e-05
3.0780822e-05
-6.3907907e-06
-4.4849263e-05
-7.7715312e-05
-9.9818459e-05
-1.0847927e-04
-1.0330033e-04
-8.5345229e-05
-5.6383252e-05
-1.8749381e-05
2.4222651e-05
6.7812031e-05
1.0621221e-04
1.3364104e-04
1.4578093e-04
1.4085765e-04
1.1990314e-04
8.6145337e-05
4.3872866e-05
-2.4138049e-06
-4.8067770e-05
-8.8128026e-05
-1.1765620e-04
-1.3273897e-04
-1.3180054e-04
-1.1651990e-04
-9.1665941e-05
-6.3634086e-05
-3.8183584e-05
-1.8385468e-05
-3.7171609e-06
9.3718446e-06
2.5779996e-05
4.9635387e-05
8.2386625e-05
1.2163478e-04
1.6108855e-04
1.9177239e-04
2.0431770e-04
1.9171926e-04
1.5156502e-04
8.6920813e-05
5.5939741e-06
-8.1868415e-05
-1.6458295e-04
-2.3320912e-04
-2.8082749e-04
-3.0301670e-04
-2.9771329e-04
-2.6522828e-04
-2.0830403e-04
-1.3192686e-04
-4.2906188e-05
5.0473782e-05
1.3858177e-04
2.1072459e-04
2.5629421e-04
2.6713429e-04
2.4049664e-04
1.8112277e-04
1.0124099e-04
1.8224601e-05
-4.9634622e-05
-8.8204968e-05
-9.1724443e-05
-6.4273312e-05
-1.7739146e-05
3.2607103e-05
7.2648397e-05
9.2370880e-05
8.7086990e-05
5.7697522e-05
1.0392275e-05
-4.4477661e-05
-9.4540305e-05
-1.2810561e-04
-1.3667049e-04
-1.1674598e-04
-7.0793135e-05
-7.0583039e-06
6.1884050e-05
1.2188240e-04
1.6072051e-04
1.7135154e-04
1.5367430e-04
1.1385823e-04
6.1067179e-05
2.9732631e-06
-5.7327641e-05
-1.2078685e-04
-1.8822189e-04
-2.5504111e-04
-3.0860197e-04
-3.3072695e-04
-3.0496675e-04
-2.2527666e-04
-1.0151182e-04
4.1654241e-05
1.7240349e-04
2.6257794e-04
2.9687487e-04
2.7672246e-04
2.1769477e-04
1.4230161e-04
7.1725144e-05
1.9887300e-05
-8.3959293e-06
-1.5498989e-05
-7.1944628e-06
1.0681891e-05
3.3475807e-05
5.6693149e-05
7.4097546e-05
7.7135782e-05
5.7225423e-05
1.0348202e-05
-5.8736882e-05
-1.3579585e-04
-2.0109239e-04
-2.3625515e-04
-2.3083600e-04
-1.8575669e-04
-1.1233863e-04
-2.7692218e-05
5.1174355e-05
1.1200452e-04
1.4931862e-04
1.6387430e-04
1.6047248e-04
1.4519705e-04
1.2304798e-04
9.6695276e-05
6.6697714e-05
3.2952872e-05
-3.4728044e-06
-3.9287021e-05
-6.9455166e-05
-8.9049546e-05
-9.5595411e-05
-9.0802110e-05
-8.0593657e-05
-7.3042777e-05
-7.4911678e-05
-8.8272482e-05
-1.0879438e-04
-1.2673129e-04
-1.3053638e-04
-1.1168362e-04
-6.8472111e-05
-7.0313683e-06
6.0773034e-05
1.2137950e-04
1.6380053e-04
1.8270026e-04
1.7946630e-04
1.6108248e-04
1.3723768e-04
1.1670713e-04
1.0423691e-04
9.8724284e-05
9.3325298e-05
7.8092421e-05
4.4583258e-05
-9.4764520e-06
-7.7645274e-05
-1.4572802e-04
-1.9618139e-04
-2.1433308e-04
-1.9385377e-04
-1.3914781e-04
-6.3685108e-05
1.4832526e-05
8.0129368e-05
1.2132122e-04
1.3395542e-04
1.1879666e-04
8.0137984e-05
2.4763309e-05
-3.9092621e-05
-1.0324051e-04
-1.6062183e-04
-2.0588131e-04
-2.3574016e-04
-2.4886225e-04
-2.4493332e-04
-2.2305787e-04
-1.8016102e-04
-1.1060595e-04
-8.2047668e-06
1.2913625e-04
2.9358146e-04
4.6339591e-04
6.0418379e-04
6.7687057e-04
6.5064117e-04
5.1596108e-04
2.9176066e-04
2.2726523e-05
-2.3335224e-04
-4.2394574e-04
-5.1832653e-04
-5.1483350e-04
-4.3629486e-04
-3.1716251e-04
-1.8919683e-04
-7.2042192e-05
2.8337376e-05
1.1445025e-04
1.8911092e-04
2.4874443e-04
2.8139505e-04
2.7038911e-04
2.0209971e-04
7.4450274e-05
-9.7644391e-05
-2.8262940e-04
-4.3906202e-04
-5.2688787e-04
-5.1950201e-04
-4.1221296e-04
-2.2398930e-04
7.5870290e-06
2.3599822e-04
4.1723587e-04
5.1990316e-04
5.3132348e-04
4.5839949e-04
3.2367643e-04
1.5831555e-04
-5.8097239e-06
-1.4280832e-04
-2.3676482e-04
-2.8249772e-04
-2.8367140e-04
-2.4966116e-04
-1.9257504e-04
-1.2512018e-04
-5.9153811e-05
-4.1079908e-06
3.4900827e-05
5.8036182e-05
6.9799340e-05
7.6455631e-05
8.2904676e-05
9.0483542e-05
9.6839033e-05
9.7860775e-05
9.0464953e-05
7.4591383e-05
5.3328150e-05
3.1162238e-05
1.1381382e-05
-5.8230261e-06
-2.3276470e-05
-4.4552360e-05
-7.0661139e-05
-9.7761619e-05
-1.1766192e-04
-1.2095948e-04
-1.0113679e-04
-5.8076828e-05
4.8589662e-07
6.0747988e-05
1.0747819e-04
1.2954185e-04
1.2381857e-04
9.5867476e-05
5.7258055e-05
2.0864370e-05
-3.8923778e-06
-1.3968753e-05
-1.2714479e-05
-7.2090986e-06
-4.4541923e-06
-8.4629281e-06
-1.9514627e-05
-3.5306305e-05
-5.2723554e-05
-6.9184525e-05
-8.3046997e-05
-9.3146824e-05
-9.8374751e-05
-9.7998504e-05
-9.2393277e-05
-8.3239995e-05
-7.2476565e-05
-6.0308355e-05
-4.3655293e-05
-1.6548631e-05
2.7079378e-05
8.9302445e-05
1.6482310e-04
2.4016119e-04
2.9625663e-04
3.1401597e-04
2.8106573e-04
1.9713435e-04
7.5616596e-05
-5.9670412e-05
-1.8114582e-04
-2.6482993e-04
-2.9627124e-04
-2.7355722e-04
-2.0667076e-04
-1.1378742e-04
-1.6060685e-05
6.7438702e-05
1.2340442e-04
1.4601123e-04
1.3668927e-04
1.0242847e-04
5.3330168e-05
1.7146670e-07
-4.7431335e-05
-8.2086060e-05
-9.9173229e-05
-9.7257997e-05
-7.8400559e-05
-4.7837430e-05
-1.2336070e-05
2.2343723e-05
5.3006380e-05
7.8354130e-05
9.6860515e-05
1.0512303e-04
9.8287478e-05
7.2606905e-05
2.8611395e-05
-2.7155645e-05
-8.3094849e-05
-1.2599481e-04
-1.4546781e-04
-1.3739014e-04
-1.0486556e-04
-5.6466949e-05
-2.8171837e-06
4.6754836e-05
8.6031071e-05
1.1189924e-04
1.2331536e-04
1.2016111e-04
1.0265847e-04
7.1658599e-05
2.9527497e-05
-1.9105181e-05
-6.7448395e-05
-1.0773056e-04
-1.3301836e-04
-1.3885756e-04
-1.2409567e-04
-9.0774425e-05
-4.3442203e-05
1.1625531e-05
6.6994033e-05
1.1449365e-04
1.4593278e-04
1.5463075e-04
1.3775186e-04
9.8207620e-05
4.4695247e-05
-1.0395297e-05
-5.4628186e-05
-7.9396995e-05
-8.2299485e-05
-6.7121604e-05
-4.1805771e-05
-1.5497868e-05
4.2278819e-06
1.3220495e-05
1.1331179e-05
1.7261523e-06
-1.0727542e-05
-2.1396515e-05
-2.7448610e-05
-2.8544193e-05
-2.6494009e-05
-2.4078481e-05
-2.3460711e-05
-2.4805913e-05
-2.5861304e-05
-2.2855331e-05
-1.2230117e-05
7.6443748e-06
3.5474995e-05
6.7140329e-05
9.6790623e-05
1.1848718e-04
1.2776354e-04
1.2257368e-04
1.0336147e-04
7.2360080e-05
3.2555531e-05
-1.3140207e-05
-6.2093867e-05
-1.1142750e-04
-1.5707066e-04
-1.9308224e-04
-2.1204602e-04
-2.0681251e-04
-1.7295802e-04
-1.1108841e-04
-2.8331271e-05
6.1765993e-05
1.4158357e-04
1.9380536e-04
2.0654462e-04
1.7741449e-04
1.1504791e-04
3.7359158e-05
-3.3282987e-05
-7.6852683e-05
-8.2356310e-05
-5.1855964e-05
1.2179559e-07
5.2014336e-05
8.3586619e-05
8.3811763e-05
5.4761849e-05
9.7630213e-06
-3.2821518e-05
-5.7009370e-05
-5.5217342e-05
-3.0939639e-05
3.0651730e-06
3.0339464e-05
3.7547767e-05
1.9610986e-05
-1.8804474e-05
-6.5671788e-05
-1.0652341e-04
-1.2976182e-04
-1.3032890e-04
-1.1054596e-04
-7.8148594e-05
-4.2644595e-05
-1.1670500e-05
1.1166433e-05
2.6343015e-05
3.6915421e-05
4.6341915e-05
5.6464443e-05
6.6798691e-05
7.5531827e-05
8.1242442e-05
8.4016196e-05
8.5277943e-05
8.6619479e-05
8.8488602e-05
8.9551192e-05
8.7070766e-05
7.8115544e-05
6.1014577e-05
3.6361463e-05
7.0504764e-06
-2.2755363e-05
-4.9324164e-05
-7.0888095e-05
-8.8233512e-05
-1.0431913e-04
-1.2292422e-04
-1.4617578e-04
-1.7198373e-04
-1.9298451e-04
-1.9795188e-04
-1.7569193e-04
-1.2020611e-04
-3.4978145e-05
6.5741730e-05
1.5977563e-04
2.2356679e-04
2.4045385e-04
2.0751066e-04
1.3765492e-04
5.5290535e-05
-1.3189149e-05
-4.9735266e-05
-5.0720390e-05
-2.5911017e-05
8.2844555e-06
3.6975863e-05
5.2328845e-05
5.4395992e-05
4.7770313e-05
3.6824521e-05
2.2622882e-05
3.1414686e-06
-2.3729269e-05
-5.6617802e-05
-8.9078421e-05
-1.1126148e-04
-1.1411404e-04
-9.3889968e-05
-5.4616692e-05
-7.2403825e-06
3.4262004e-05
5.8155734e-05
5.9272802e-05
4.0482667e-05
1.1186198e-05
-1.6093714e-05
-3.0124279e-05
-2.4953751e-05
-1.7026082e-06
3.2511360e-05
6.7714054e-05
9.4622131e-05
1.0704656e-04
1.0246768e-04
8.1173820e-05
4.5072603e-05
-2.7602291e-06
-5.7528469e-05
-1.1191354e-04
-1.5625463e-04
-1.8045801e-04
-1.7721270e-04
-1.4504454e-04
-8.9537244e-05
-2.1761338e-05
4.5517354e-05
1.0179042e-04
1.4094933e-04
1.6108649e-04
1.6283810e-04
1.4772054e-04
1.1748351e-04
7.4523333e-05
2.2605897e-05
-3.2903858e-05
-8.5537424e-05
-1.2864869e-04
-1.5644297e-04
-1.6500407e-04
-1.5322325e-04
-1.2331767e-04
-8.0577509e-05
-3.2283882e-05
1.3932386e-05
5.2139952e-05
8.0014224e-05
9.9207663e-05
1.1349907e-04
1.2563293e-04
1.3471372e-04
1.3596387e-04
1.2338797e-04
9.4072135e-05
5.1637191e-05
6.5946432e-06
-2.7028716e-05
-3.7414955e-05
-2.0447779e-05
1.7454124e-05
6.0439346e-05
8.8039532e-05
8.2111730e-05
3.3449763e-05
-5.4480480e-05
-1.6624852e-04
-2.7877895e-04
-3.6705284e-04
-4.0992540e-04
-3.9504968e-04
-3.2158123e-04
-2.0010150e-04
-5.0149744e-05
1.0378862e-04
2.3701615e-04
3.2937445e-04
3.6920880e-04
3.5556357e-04
2.9778178e-04
2.1243988e-04
1.1862941e-04
3.3257807e-05
-3.2238252e-05
-7.3269100e-05
-9.1649683e-05
-9.3528110e-05
-8.6315269e-05
-7.5862151e-05
-6.4971947e-05
-5.3595993e-05
-4.0385133e-05
-2.4773522e-05
-8.4730080e-06
4.5991798e-06
1.0144585e-05
6.1327303e-06
-5.3166815e-06
-1.8077482e-05
-2.4311754e-05
-1.7867832e-05
2.8083684e-06
3.3573741e-05
6.5787473e-05
8.9289286e-05
9.5932703e-05
8.2444749e-05
5.1646836e-05
1.1374656e-05
-2.8605035e-05
-6.0261553e-05
-7.9821318e-05
-8.8066323e-05
-8.8567766e-05
-8.5031138e-05
-7.9146070e-05
-6.9852244e-05
-5.4212266e-05
-2.9419498e-05
5.0132284e-06
4.5982646e-05
8.7196611e-05
1.2121298e-04
1.4218134e-04
1.4784637e-04
1.3969591e-04
1.2135738e-04
9.6535041e-05
6.7771455e-05
3.6393808e-05
3.2074583e-06
-3.0791203e-05
-6.4175357e-05
-9.5241353e-05
-1.2214637e-04
-1.4287074e-04
-1.5529690e-04
-1.5776381e-04
-1.4998698e-04
-1.3368373e-04
-1.1222448e-04
-8.9250488e-05
-6.6954981e-05
-4.5057978e-05
-2.1218485e-05
7.1812638e-06
4.0852079e-05
7.7003671e-05
1.0909641e-04
1.2882521e-04
1.3000267e-04
1.1225476e-04
8.2313712e-05
5.2005510e-05
3.3715143e-05
3.5301935e-05
5.6750614e-05
9.0173044e-05
1.2324712e-04
1.4441168e-04
1.4711777e-04
1.3093288e-04
9.9220140e-05
5.5345095e-05
4.0993347e-07
-6.5709452e-05
-1.4123797e-04
-2.1957996e-04
-2.8799181e-04
-3.2931533e-04
-3.2713083e-04
-2.7231331e-04
-1.6805807e-04
-3.1064686e-05
1.1192032e-04
2.3124887e-04
3.0286319e-04
3.1521709e-04
2.7214449e-04
1.9059571e-04
9.4182824e-05
5.2948076e-06
-6.0932510e-05
-9.8822580e-05
-1.1096963e-04
-1.0555670e-04
-9.3227464e-05
-8.3381780e-05
-8.0740395e-05
-8.4021082e-05
-8.7368728e-05
-8.3540097e-05
-6.7250139e-05
-3.7335108e-05
2.8246451e-06
4.6290825e-05
8.4239565e-05
1.0787916e-04
1.1056443e-04
8.9923320e-05
4.9286540e-05
-2.4935356e-06
-5.3232572e-05
-9.1046423e-05
-1.0804447e-04
-1.0243812e-04
-7.7951399e-05
-4.1231219e-05
6.9898722e-07
4.1828846e-05
7.7479880e-05
1.0405697e-04
1.1885907e-04
1.2023790e-04
1.0799960e-04
8.3879713e-05
5.1953857e-05
1.8659915e-05
-8.0955748e-06
-2.1012653e-05
-1.6142562e-05
4.9188503e-06
3.4627732e-05
6.1404125e-05
7.3367226e-05
6.2536485e-05
2.7896057e-05
-2.3900825e-05
-8.0618584e-05
-1.2847266e-04
-1.5632797e-04
-1.5853842e-04
-1.3584078e-04
-9.4486326e-05
-4.4148394e-05
4.7477946e-06
4.3609570e-05
6.7570128e-05
7.6266389e-05
7.3366575e-05
6.4981058e-05
5.7253648e-05
5.3602358e-05
5.2410756e-05
4.6313265e-05
2.4135046e-05
-2.4484752e-05
-1.0339181e-04
-2.0553477e-04
-3.1183812e-04
-3.9426769e-04
-4.2280722e-04
-3.7472717e-04
-2.4333607e-04
-4.2890347e-05
1.9285052e-04
4.1864728e-04
5.8975790e-04
6.7353650e-04
6.5682820e-04
5.4747198e-04
3.7047275e-04
1.6073372e-04
-4.5392748e-05
-2.1759490e-04
-3.3636341e-04
-3.9443092e-04
-3.9559663e-04
-3.5183653e-04
-2.7960526e-04
-1.9631882e-04
-1.1747964e-04
-5.4336456e-05
-1.1965111e-05
1.1886314e-05
2.6350294e-05
4.4513547e-05
7.7950146e-05
1.3026100e-04
1.9267516e-04
2.4480778e-04
2.6154744e-04
2.2369481e-04
1.2756190e-04
-1.1041858e-05
-1.6040126e-04
-2.8289481e-04
-3.4732758e-04
-3.3833232e-04
-2.5985489e-04
-1.3270726e-04
1.2241860e-05
1.4282796e-04
2.3378685e-04
2.7233332e-04
2.5981095e-04
2.0911626e-04
1.3891744e-04
6.6905093e-05
4.6964190e-06
-4.3812757e-05
-8.0498171e-05
-1.0890990e-04
-1.3032660e-04
-1.4207798e-04
-1.3898030e-04
-1.1679358e-04
-7.5834645e-05
-2.3118170e-05
2.8525467e-05
6.4497511e-05
7.3822582e-05
5.3570389e-05
1.0647130e-05
-3.9643358e-05
-7.7865672e-05
-8.6346138e-05
-5.4987435e-05
1.4746357e-05
1.0896466e-04
2.0411264e-04
2.7297097e-04
2.9256792e-04
2.5178164e-04
1.5589355e-04
2.5832326e-05
-1.0828240e-04
-2.1678430e-04
-2.7914855e-04
-2.8871689e-04
-2.5245738e-04
-1.8651134e-04
-1.0975917e-04
-3.8102242e-05
1.8630167e-05
5.6771324e-05
7.6914872e-05
8.1574114e-05
7.3573149e-05
5.5535339e-05
3.0218161e-05
1.1915593e-06
-2.6722249e-05
-4.7773095e-05
-5.6521209e-05
-4.9470456e-05
-2.6303043e-05
9.6237552e-06
5.1634160e-05
9.1128709e-05
1.1977370e-04
1.3175163e-04
1.2527981e-04
1.0284800e-04
7.0103346e-05
3.3890419e-05
3.1228175e-07
-2.6465477e-05
-4.4485982e-05
-5.3648833e-05
-5.5143100e-05
-5.0914124e-05
-4.3260182e-05
-3.4579841e-05
-2.7218297e-05
-2.3366677e-05
-2.4929810e-05
-3.2996630e-05
-4.6992862e-05
-6.4389043e-05
-8.1248597e-05
-9.3044392e-05
-9.5304719e-05
-8.4112204e-05
-5.6743794e-05
-1.2682318e-05
4.5103133e-05
1.0919310e-04
1.6796479e-04
2.0768140e-04
2.1619520e-04
1.8707861e-04
1.2254633e-04
3.3876662e-05
-6.0973504e-05
-1.4178709e-04
-1.9133263e-04
-2.0014961e-04
-1.6923400e-04
-1.0935435e-04
-3.7176483e-05
3.0248432e-05
8.0430305e-05
1.0798793e-04
1.1430905e-04
1.0523489e-04
8.8130616e-05
6.9255879e-05
5.1882981e-05
3.5565106e-05
1.6929930e-05
-8.0821834e-06
-4.1337716e-05
-8.0259207e-05
-1.1739193e-04
-1.4230893e-04
-1.4523719e-04
-1.2090261e-04
-7.1048195e-05
-4.6332439e-06
6.4340052e-05
1.2054402e-04
1.5140064e-04
1.5039789e-04
1.1880368e-04
6.5322168e-05
3.7471320e-06
-5.0777990e-05
-8.5876444e-05
-9.5284392e-05
-8.0414870e-05
-4.9516967e-05
-1.4527770e-05
1.3321803e-05
2.7336223e-05
2.6971796e-05
1.7011010e-05
5.3310292e-06
9.0431287e-08
6.6800308e-06
2.5035157e-05
4.8420174e-05
6.4834389e-05
6.1192612e-05
2.8835584e-05
-3.2053109e-05
-1.1114668e-04
-1.9038985e-04
-2.4920460e-04
-2.7062766e-04
-2.4635262e-04
-1.7910307e-04
-8.1613509e-05
2.7443180e-05
1.2920866e-04
2.1000913e-04
2.6418094e-04
2.9335020e-04
3.0305826e-04
2.9851616e-04
2.8135291e-04
2.4890680e-04
1.9649597e-04
1.2160722e-04
2.7819573e-05
-7.3864115e-05
-1.6746374e-04
-2.3737784e-04
-2.7402956e-04
-2.7696512e-04
-2.5398119e-04
-2.1690173e-04
-1.7616655e-04
-1.3682117e-04
-9.7751815e-05
-5.4437142e-05
-3.4517681e-06
5.3988666e-05
1.1101183e-04
1.5681388e-04
1.8048998e-04
1.7546999e-04
1.4263109e-04
9.0583092e-05
3.2849145e-05
-1.6875643e-05
-4.9300985e-05
-6.1997482e-05
-5.8863861e-05
-4.7212975e-05
-3.4167925e-05
-2.4173044e-05
-1.8524584e-05
-1.6489113e-05
-1.6712376e-05
