-1.2110665e-02
4.1278599e-02
6.1247597e-02
4.0616291e-02
8.7895502e-03
-5.7405872e-03
-8.3451182e-03
-2.2277424e-02
-5.4426053e-02
-8.9369276e-02
-1.1540346e-01
-1.3787353e-01
-1.7210699e-01
-2.2741285e-01
-2.9738466e-01
-3.7383557e-01
-4.6040367e-01
-5.6592934e-01
-6.8153297e-01
-7.7730059e-01
-8.3232547e-01
-8.5201244e-01
-8.5227353e-01
-8.3830799e-01
-8.0418846e-01
-7.5035077e-01
-6.9270369e-01
-6.4321041e-01
-5.9129800e-01
-5.2282971e-01
-4.4593627e-01
-3.8104479e-01
-3.3215964e-01
-2.7508286e-01
-1.7581248e-01
-1.7460341e-02
2.0012644e-01
4.7772233e-01
8.1704334e-01
1.2010312e+00
1.5770013e+00
1.8734748e+00
2.0449590e+00
2.0930725e+00
2.0284726e+00
1.8175104e+00
1.4106765e+00
8.5441060e-01
3.1495293e-01
-6.5112960e-02
-2.7053571e-01
-3.5309301e-01
-3.5092759e-01
-2.8924021e-01
-2.2145869e-01
-2.2756456e-01
-3.4570092e-01
-5.3972572e-01
-7.6015807e-01
-9.8198711e-01
-1.1674305e+00
-1.2621268e+00
-1.2182577e+00
-9.8380339e-01
-5.0861034e-01
2.2189950e-01
1.1805089e+00
2.3289050e+00
3.6345009e+00
5.0402792e+00
6.4218404e+00
7.5577551e+00
8.0771125e+00
7.3395078e+00
4.2238689e+00
-4.8020568e-01
-3.7801959e+00
-4.9196466e+00
-5.0457563e+00
-4.7901981e+00
-4.4597728e+00
-4.1486908e+00
-3.8375489e+00
-3.4897875e+00
-3.1083769e+00
-2.7442344e+00
-2.4664529e+00
-2.3158437e+00
-2.2931756e+00
-2.3950955e+00
-2.6340285e+00
-3.0269012e+00
-3.5834997e+00
-4.2939280e+00
-5.1231440e+00
-5.9901777e+00
-6.7007358e+00
-6.8664504e+00
-5.8052453e+00
-2.3565465e+00
2.6632775e+00
6.1503023e+00
7.2647902e+00
7.1494316e+00
6.4654770e+00
5.5729880e+00
4.6625872e+00
3.8430938e+00
3.1774910e+00
2.6849379e+00
2.3489239e+00
2.1442050e+00
2.0634771e+00
2.1161417e+00
2.3117505e+00
2.6519175e+00
3.1277498e+00
3.7314104e+00
4.4597159e+00
5.2838552e+00
6.1102508e+00
6.7437466e+00
6.8311546e+00
5.7439354e+00
2.3877427e+00
-2.4502915e+00
-5.8026575e+00
-6.8566821e+00
-6.6962992e+00
-5.9722930e+00
-5.0619366e+00
-4.1560018e+00
-3.3288793e+00
-2.6035026e+00
-1.9891785e+00
-1.4914301e+00
-1.1027495e+00
-7.9908411e-01
-5.5891565e-01
-3.7670449e-01
-2.5111837e-01
-1.6994571e-01
-1.1699043e-01
-8.4579108e-02
-7.2180482e-02
-7.5756329e-02
-8.0900557e-02
-7.7035194e-02
-6.9720210e-02
-6.6774247e-02
-7.0407859e-02
-7.8052324e-02
-7.6890174e-02
-6.3983502e-02
-5.7839848e-02
-7.1741448e-02
-1.0236317e-01
-1.3452317e-01
-1.5042730e-01
-1.4601572e-01
-1.2520601e-01
-9.3066391e-02
-6.1256749e-02
-4.2155246e-02
-3.8837057e-02
-3.7470017e-02
-1.7820261e-02
2.3603583e-02
6.7360208e-02
8.7944611e-02
7.7097904e-02
5.1055337e-02
3.7786818e-02
5.0022778e-02
7.0645075e-02
7.7334968e-02
6.7691256e-02
5.2130397e-02
4.5791565e-02
5.6882873e-02
7.4673755e-02
8.6290097e-02
8.4584707e-02
6.3754271e-02
3.1062075e-02
5.0299752e-03
-1.4981066e-04
1.5372587e-02
3.2660558e-02
3.0913794e-02
1.4605498e-02
8.1301806e-03
2.1099340e-02
3.8097902e-02
4.3541402e-02
3.8724238e-02
3.7214583e-02
4.6471613e-02
5.5926949e-02
5.2237228e-02
3.6077643e-02
1.6661193e-02
-1.1234356e-03
-2.0900950e-02
-5.0529184e-02
-9.0599343e-02
-1.3785250e-01
-2.0136866e-01
-2.9308022e-01
-4.1299656e-01
-5.5477321e-01
-7.2030696e-01
-9.3302493e-01
-1.2290346e+00
-1.6306122e+00
-2.1357484e+00
-2.7333518e+00
-3.4224175e+00
-4.2106488e+00
-5.0854993e+00
-5.9669212e+00
-6.6588772e+00
-6.7934730e+00
-5.7273708e+00
-2.3589951e+00
2.5143593e+00
5.8991010e+00
6.9671608e+00
6.8032363e+00
6.0726995e+00
5.1750220e+00
4.3104993e+00
3.5453106e+00
2.8937150e+00
2.3741992e+00
2.0119643e+00
1.8090889e+00
1.7419396e+00
1.7973224e+00
1.9873615e+00
2.3259311e+00
2.8107030e+00
3.4316836e+00
4.1788590e+00
5.0250242e+00
5.8872460e+00
6.5721411e+00
6.7090521e+00
5.6601316e+00
2.3636910e+00
-2.3775043e+00
-5.6446724e+00
-6.6690321e+00
-6.5382089e+00
-5.8756052e+00
-5.0198352e+00
-4.1579638e+00
-3.3967863e+00
-2.7881242e+00
-2.3419252e+00
-2.0393988e+00
-1.8601210e+00
-1.8045678e+00
-1.8815548e+00
-2.0977709e+00
-2.4647469e+00
-2.9877792e+00
-3.6590387e+00
-4.4585544e+00
-5.3388113e+00
-6.2070030e+00
-6.8850631e+00
-7.0168298e+00
-5.9351768e+00
-2.4894729e+00
2.5067819e+00
5.9744760e+00
7.0771174e+00
6.9475306e+00
6.2513946e+00
5.3589029e+00
4.4667922e+00
3.6762152e+00
3.0334990e+00
2.5430028e+00
2.1816407e+00
1.9336857e+00
1.8153798e+00
1.8531625e+00
2.0492115e+00
2.3868957e+00
2.8547400e+00
3.4548843e+00
4.1852920e+00
5.0112486e+00
5.8401988e+00
6.4812292e+00
6.5812840e+00
5.5242895e+00
2.2516263e+00
-2.4543706e+00
-5.6973888e+00
-6.7097547e+00
-6.5592157e+00
-5.8593826e+00
-4.9607630e+00
-4.0569320e+00
-3.2407068e+00
-2.5414928e+00
-1.9582940e+00
-1.4803602e+00
-1.0956815e+00
-7.9193245e-01
-5.5391175e-01
-3.7051967e-01
-2.3991812e-01
-1.5995301e-01
-1.1713188e-01
-9.0162905e-02
-6.1269169e-02
-3.1079012e-02
-1.7287576e-02
-3.0175239e-02
-5.9666408e-02
-9.0981092e-02
-1.1447582e-01
-1.2355014e-01
-1.2180173e-01
-1.1615926e-01
-1.1549923e-01
-1.3066821e-01
-1.5884214e-01
-1.8073421e-01
-1.7339406e-01
-1.3559390e-01
-9.5040066e-02
-7.6498780e-02
-7.6410589e-02
-7.2939239e-02
-5.2658951e-02
-2.2107272e-02
4.9934679e-03
2.0676981e-02
2.2306386e-02
1.2485620e-02
1.2266599e-03
-2.8873016e-03
8.6925211e-04
9.1828360e-03
1.6792875e-02
1.7852142e-02
1.4933769e-02
1.8291378e-02
2.9796336e-02
4.2620316e-02
4.7537527e-02
3.9228643e-02
2.6803001e-02
1.9061457e-02
1.1752018e-02
1.2024740e-03
-8.8641380e-03
-1.0771686e-02
-1.2952023e-03
8.7786276e-03
7.9476360e-03
4.0517958e-03
1.1238281e-02
3.0459040e-02
5.0228402e-02
5.7123793e-02
5.1016077e-02
4.5702497e-02
5.2339619e-02
6.9105549e-02
7.6319777e-02
5.8931653e-02
3.0707422e-02
4.9669154e-03
-2.7568130e-02
-8.3408386e-02
-1.6480625e-01
-2.6019647e-01
-3.5890741e-01
-4.6143480e-01
-5.8599682e-01
-7.5417365e-01
-9.7950046e-01
-1.2770648e+00
-1.6619065e+00
-2.1355819e+00
-2.6970392e+00
-3.3573773e+00
-4.1294960e+00
-5.0022351e+00
-5.8895594e+00
-6.5811767e+00
-6.7026171e+00
-5.6246391e+00
-2.2906284e+00
2.4804550e+00
5.7512646e+00
6.7633300e+00
6.6149103e+00
5.9201095e+00
5.0142211e+00
4.0962972e+00
3.2768960e+00
2.5853305e+00
2.0046303e+00
1.5195466e+00
1.1346382e+00
8.4800627e-01
6.2679626e-01
4.3663751e-01
2.8078699e-01
1.7934380e-01
1.2565820e-01
8.8264321e-02
4.6830659e-02
9.8909981e-03
-6.6996390e-03
-5.5574295e-03
-4.3061716e-03
-1.5162781e-02
-3.1275197e-02
-3.8469227e-02
-3.9316038e-02
-5.0051218e-02
-7.2556270e-02
-8.7260418e-02
-8.0047169e-02
-5.9696582e-02
-4.0674553e-02
-2.6607870e-02
-1.1752630e-02
1.2989365e-02
4.0883834e-02
4.9759480e-02
3.5731188e-02
2.2834576e-02
3.3285379e-02
5.8975511e-02
7.7076876e-02
8.4557077e-02
9.4069360e-02
1.0764793e-01
1.1151172e-01
9.6444996e-02
7.1634034e-02
5.3948159e-02
5.0128086e-02
4.8843980e-02
4.0516376e-02
4.1196434e-02
7.9873156e-02
1.5688943e-01
2.3460412e-01
2.8813297e-01
3.4443660e-01
4.5507352e-01
6.3821959e-01
8.7320076e-01
1.1500290e+00
1.4979703e+00
1.9606040e+00
2.5533793e+00
3.2612169e+00
4.0690603e+00
4.9609147e+00
5.8601630e+00
6.5624541e+00
6.6945597e+00
5.6353958e+00
2.3280030e+00
-2.4294882e+00
-5.7129402e+00
-6.7517571e+00
-6.6294613e+00
-5.9633884e+00
-5.0958795e+00
-4.2196659e+00
-3.4395905e+00
-2.7979413e+00
-2.3007408e+00
-1.9426389e+00
-1.7209490e+00
-1.6400963e+00
-1.7046239e+00
-1.9182129e+00
-2.2937401e+00
-2.8427026e+00
-3.5552135e+00
-4.3987469e+00
-5.3199656e+00
-6.2279709e+00
-6.9417061e+00
-7.0991109e+00
-6.0312877e+00
-2.5925007e+00
2.3986773e+00
5.8671614e+00
6.9799223e+00
6.8719416e+00
6.2060586e+00
5.3332359e+00
4.4330471e+00
3.6090982e+00
2.9242167e+00
2.4045653e+00
2.0418007e+00
1.8179638e+00
1.7339210e+00
1.8055523e+00
2.0329302e+00
2.3897602e+00
2.8593842e+00
3.4630507e+00
4.2278825e+00
5.1191991e+00
6.0076639e+00
6.6748077e+00
6.7757473e+00
5.7058642e+00
2.3818714e+00
-2.4115677e+00
-5.7164611e+00
-6.7464190e+00
-6.5997996e+00
-5.9058309e+00
-5.0095441e+00
-4.0962279e+00
-3.2618845e+00
-2.5471011e+00
-1.9658487e+00
-1.5153626e+00
-1.1692577e+00
-8.8928739e-01
-6.5044225e-01
-4.5345209e-01
-3.0993810e-01
-2.1489156e-01
-1.4084815e-01
-6.6745338e-02
1.0237909e-03
4.3454969e-02
5.3247094e-02
4.3931248e-02
3.1969751e-02
2.1835080e-02
7.1646972e-03
-1.8856608e-02
-5.2576562e-02
-9.0264448e-02
-1.3471017e-01
-1.8627415e-01
-2.3945277e-01
-2.9392145e-01
-3.6063180e-01
-4.5412982e-01
-5.8746996e-01
-7.6308419e-01
-9.7680188e-01
-1.2398666e+00
-1.5838557e+00
-2.0446755e+00
-2.6407285e+00
-3.3630487e+00
-4.1826301e+00
-5.0608626e+00
-5.9236146e+00
-6.5929513e+00
-6.7164812e+00
-5.6659933e+00
-2.3465969e+00
2.4623850e+00
5.8052687e+00
6.8779598e+00
6.7489866e+00
6.0400314e+00
5.1212175e+00
4.2081104e+00
3.4047512e+00
2.7407235e+00
2.2160201e+00
1.8362824e+00
1.6176412e+00
1.5651601e+00
1.6641251e+00
1.9015248e+00
2.2821434e+00
2.8126236e+00
3.4853849e+00
4.2815866e+00
5.1639985e+00
6.0470491e+00
6.7484000e+00
6.9125260e+00
5.8991016e+00
2.6283056e+00
-2.1040470e+00
-5.3735237e+00
-6.4082015e+00
-6.2988292e+00
-5.6782566e+00
-4.8845919e+00
-4.0819774e+00
-3.3572960e+00
-2.7628597e+00
-2.3173716e+00
-2.0198815e+00
-1.8614719e+00
-1.8300837e+00
-1.9228785e+00
-2.1442972e+00
-2.5017368e+00
-3.0042420e+00
-3.6548501e+00
-4.4424917e+00
-5.3210290e+00
-6.1784140e+00
-6.8156145e+00
-6.8919433e+00
-5.7823141e+00
-2.3719668e+00
2.5374837e+00
5.9272691e+00
6.9944803e+00
6.8617223e+00
6.1729843e+00
5.2783099e+00
4.3638976e+00
3.5323579e+00
2.8452804e+00
2.3288784e+00
1.9736781e+00
1.7566509e+00
1.6691064e+00
1.7223884e+00
1.9367592e+00
2.3306226e+00
2.9082415e+00
3.6515614e+00
4.5219579e+00
5.4626878e+00
6.3808835e+00
7.0890186e+00
7.2189574e+00
6.1249667e+00
2.7180260e+00
-2.2069237e+00
-5.6909327e+00
-6.9289820e+00
-6.9752170e+00
-6.4173264e+00
-5.5887791e+00
-4.6960571e+00
-3.8683801e+00
-3.1645855e+00
-2.5995469e+00
-2.1860735e+00
-1.9390830e+00
-1.8651354e+00
-1.9597470e+00
-2.2112048e+00
-2.6190787e+00
-3.1943942e+00
-3.9331196e+00
-4.8049886e+00
-5.7519149e+00
-6.6671754e+00
-7.3473596e+00
-7.4162102e+00
-6.2155008e+00
-2.6251827e+00
2.5026301e+00
6.0609387e+00
7.2211194e+00
7.1355814e+00
6.4696441e+00
5.5814101e+00
4.6658050e+00
3.8357951e+00
3.1474920e+00
2.6148029e+00
2.2375947e+00
2.0139628e+00
1.9294483e+00
1.9661104e+00
2.1259231e+00
2.4350946e+00
2.9242893e+00
3.6010442e+00
4.4339638e+00
5.3556478e+00
6.2599753e+00
6.9597719e+00
7.1080794e+00
6.0814091e+00
2.7964366e+00
-1.9638072e+00
-5.2628724e+00
-6.3088779e+00
-6.1763577e+00
-5.4959456e+00
-4.6315785e+00
-3.7807181e+00
-3.0308087e+00
-2.4070417e+00
-1.9138758e+00
-1.5399729e+00
-1.2589828e+00
-1.0440592e+00
-8.7452320e-01
-7.4118838e-01
-6.4482051e-01
-5.7869870e-01
-5.2782256e-01
-4.8725396e-01
-4.5911549e-01
-4.3972521e-01
-4.1796373e-01
-3.8227081e-01
-3.3574550e-01
-3.0129802e-01
-2.8955401e-01
-2.8335425e-01
-2.7001023e-01
-2.4707013e-01
-2.1536495e-01
-1.8126397e-01
-1.5367381e-01
-1.4674949e-01
-1.7887678e-01
-2.5782230e-01
-3.7084217e-01
-5.0778946e-01
-6.9340333e-01
-9.8175066e-01
-1.4184502e+00
-2.0078231e+00
-2.7198424e+00
-3.5273958e+00
-4.4147171e+00
-5.3560605e+00
-6.2779325e+00
-6.9956926e+00
-7.1359820e+00
-6.0277697e+00
-2.5309636e+00
2.5083217e+00
5.9824980e+00
7.0734453e+00
6.9334927e+00
6.2157577e+00
5.2854507e+00
4.3479676e+00
3.5013442e+00
2.7742996e+00
2.1684708e+00
1.6828930e+00
1.3062078e+00
1.0108483e+00
7.6746343e-01
5.5786057e-01
3.8183271e-01
2.5266932e-01
1.6793729e-01
9.8798612e-02
1.8680012e-02
-7.3333467e-02
-1.5161768e-01
-1.9205160e-01
-2.0529464e-01
-2.1375843e-01
-2.1247468e-01
-1.8238893e-01
-1.2555215e-01
-6.0765571e-02
1.2036981e-02
1.0657275e-01
2.1650421e-01
3.1822216e-01
3.9946562e-01
4.7718819e-01
5.8687647e-01
7.5372929e-01
9.8537943e-01
1.2879607e+00
1.6821320e+00
2.1985863e+00
2.8438666e+00
3.5910955e+00
4.4135634e+00
5.2901104e+00
6.1609533e+00
6.8616513e+00
7.0239493e+00
5.9575156e+00
2.5028309e+00
-2.5216265e+00
-6.0271512e+00
-7.1559449e+00
-7.0099626e+00
-6.2440291e+00
-5.2519535e+00
-4.2652760e+00
-3.3986537e+00
-2.6848992e+00
-2.1071641e+00
-1.6183019e+00
-1.1870917e+00
-8.3546620e-01
-5.9874767e-01
-4.7164148e-01
-4.0351901e-01
-3.2938976e-01
-2.1875182e-01
-9.7673642e-02
-1.3044415e-02
1.3915039e-02
-3.4550438e-03
-3.7455496e-02
-6.3276289e-02
-7.1977102e-02
-7.5474063e-02
-8.4892242e-02
-9.0612019e-02
-7.5559518e-02
-4.0265856e-02
-1.1833194e-02
-2.6200654e-02
-9.3580530e-02
-1.8856293e-01
-2.8082630e-01
-3.7912607e-01
-5.3495033e-01
-7.9270386e-01
-1.1570026e+00
-1.6052594e+00
-2.1254365e+00
-2.7406164e+00
-3.4852743e+00
-4.3709997e+00
-5.3620546e+00
-6.3468256e+00
-7.1024973e+00
-7.2341727e+00
-6.0752517e+00
-2.5071585e+00
2.5965758e+00
6.0940845e+00
7.1577008e+00
6.9735859e+00
6.2318512e+00
5.2881602e+00
4.3187204e+00
3.4289954e+00
2.6846760e+00
2.0984763e+00
1.6325482e+00
1.2428638e+00
9.1141687e-01
6.4609614e-01
4.6085673e-01
3.4475304e-01
2.6260000e-01
1.8990116e-01
1.2704632e-01
8.1197741e-02
5.2100077e-02
3.5403222e-02
2.8441252e-02
2.8056575e-02
2.9424636e-02
2.9182980e-02
2.7745973e-02
3.1644494e-02
5.1560743e-02
8.8426605e-02
1.2531508e-01
1.4986049e-01
1.7733582e-01
2.3514557e-01
3.3511934e-01
4.7389075e-01
6.4970436e-01
8.7193119e-01
1.1613317e+00
1.5408268e+00
2.0251547e+00
2.6246815e+00
3.3553330e+00
4.2235586e+00
5.1902812e+00
6.1452206e+00
6.8842267e+00
7.0467942e+00
5.9785371e+00
2.5339847e+00
-2.4737332e+00
-5.9603871e+00
-7.0764621e+00
-6.9466816e+00
-6.2472282e+00
-5.3619097e+00
-4.4841425e+00
-3.6956389e+00
-3.0249345e+00
-2.4857008e+00
-2.0973498e+00
-1.8754100e+00
-1.8131760e+00
-1.8935643e+00
-2.0992600e+00
-2.4182643e+00
-2.8606897e+00
-3.4548690e+00
-4.2164437e+00
-5.1111967e+00
-6.0261180e+00
-6.7357901e+00
-6.8550979e+00
-5.7537104e+00
-2.3618908e+00
2.5029070e+00
5.8569991e+00
6.9055935e+00
6.7487699e+00
6.0281886e+00
5.1071805e+00
4.1786172e+00
3.3344918e+00
2.6114350e+00
2.0158926e+00
1.5362383e+00
1.1568651e+00
8.6412634e-01
6.4061866e-01
4.6604617e-01
3.2880300e-01
2.2839187e-01
1.6380096e-01
1.2450504e-01
9.3569921e-02
5.9879275e-02
2.5817390e-02
9.8531431e-04
-1.2903555e-02
-2.4236836e-02
-3.4332147e-02
-3.0011812e-02
-5.8350589e-03
2.1343171e-02
3.3984257e-02
3.5480583e-02
3.6604059e-02
3.5330385e-02
2.6278921e-02
1.4244626e-02
1.0885598e-02
2.2262159e-02
3.9891564e-02
5.0169243e-02
4.6648698e-02
3.5840179e-02
3.3635661e-02
4.2766329e-02
4.7500979e-02
4.0520071e-02
3.0062137e-02
1.8523455e-02
1.8647762e-03
-1.2344021e-02
-1.1751856e-02
-1.3584437e-03
-1.8284449e-03
-2.2899664e-02
-4.7030685e-02
-5.1681883e-02
-3.9382649e-02
-2.9365485e-02
-2.8449490e-02
-2.7284643e-02
-2.1291941e-02
-1.8017421e-02
-2.1400093e-02
-2.4490936e-02
-2.1284173e-02
-1.6260170e-02
-1.6618073e-02
-1.8787904e-02
-1.5596882e-02
-1.2565176e-02
-1.8281269e-02
-2.5574274e-02
-2.3682936e-02
-1.9203673e-02
-2.3641233e-02
-3.2859390e-02
-3.7355755e-02
-3.6849712e-02
-3.8035749e-02
-4.7814724e-02
-6.3642617e-02
-7.3772507e-02
-6.9284873e-02
-5.4615140e-02
-4.1120462e-02
-2.8304631e-02
-7.5304141e-03
1.5628901e-02
2.5939944e-02
2.3252819e-02
1.7294788e-02
1.4612040e-02
1.9881625e-02
3.5548637e-02
5.9376678e-02
8.5429405e-02
1.0956410e-01
1.3043481e-01
1.4399932e-01
1.4146071e-01
1.2415809e-01
1.0664711e-01
9.3144162e-02
7.1029813e-02
3.2363378e-02
-1.1552936e-02
-3.9314892e-02
-3.6821691e-02
-1.1153413e-02
1.1385954e-02
9.5771004e-03
-9.4950513e-03
-1.9737748e-02
-1.3256518e-02
-7.2934441e-03
-1.3384803e-02
-2.0526546e-02
-1.4397802e-02
-2.6890638e-03
-1.5249985e-03
-6.7933449e-03
-1.1887135e-03
1.5866609e-02
2.4682116e-02
1.4503545e-02
1.0816895e-03
4.4894818e-03
2.2179416e-02
3.6397245e-02
4.3603034e-02
5.8747510e-02
8.7711214e-02
1.2116633e-01
1.5611017e-01
2.0516855e-01
2.8776940e-01
4.1638697e-01
5.9083164e-01
8.1118708e-01
1.0967117e+00
1.4856200e+00
2.0012652e+00
2.6338781e+00
3.3746163e+00
4.2291838e+00
5.1755656e+00
6.1153318e+00
6.8396832e+00
6.9788218e+00
5.8932473e+00
2.4798552e+00
-2.4470167e+00
-5.8637954e+00
-6.9614570e+00
-6.8556247e+00
-6.1939700e+00
-5.3318592e+00
-4.4492407e+00
-3.6360057e+00
-2.9410247e+00
-2.3959889e+00
-2.0205424e+00
-1.8148101e+00
-1.7592649e+00
-1.8317529e+00
-2.0218582e+00
-2.3346515e+00
-2.7935080e+00
-3.4198929e+00
-4.1950329e+00
-5.0541483e+00
-5.8959568e+00
-6.5461252e+00
-6.6700220e+00
-5.6384218e+00
-2.3504141e+00
2.4080642e+00
5.6830606e+00
6.6912697e+00
6.5354147e+00
5.8487968e+00
4.9657700e+00
4.0583253e+00
3.2245446e+00
2.5168661e+00
1.9403679e+00
1.4699780e+00
1.0864436e+00
7.8809165e-01
5.7251393e-01
4.2009095e-01
3.0104770e-01
1.9542774e-01
1.0415948e-01
3.7477309e-02
-4.2244025e-03
-3.1326267e-02
-5.0772116e-02
-5.6319996e-02
-3.8535532e-02
-5.7819135e-03
1.9594813e-02
3.0293691e-02
4.2631458e-02
6.7173283e-02
8.8925660e-02
8.9128937e-02
7.0453666e-02
6.0940336e-02
8.4243280e-02
1.1729563e-01
1.1401800e-01
7.6147074e-02
4.2987652e-02
2.5153007e-02
1.1488081e-02
1.8139035e-04
2.2769628e-04
2.2643480e-02
5.1820546e-02
6.2245901e-02
6.5059958e-02
8.4407598e-02
1.1497536e-01
1.2872906e-01
1.0680874e-01
6.1005824e-02
2.9462894e-02
4.1452209e-02
8.2709984e-02
1.1395886e-01
1.1652584e-01
1.0470293e-01
9.7075659e-02
8.9854380e-02
6.7312152e-02
2.6417287e-02
-1.4653387e-02
-3.4977811e-02
-3.6278529e-02
-3.7220032e-02
-4.7802983e-02
-5.7414384e-02
-4.9850618e-02
-2.6124762e-02
-1.1843679e-03
1.3486416e-02
1.6392791e-02
1.3418900e-02
1.2116652e-02
1.4423807e-02
1.6755886e-02
1.9351661e-02
2.6569329e-02
4.1010110e-02
6.2779160e-02
9.6130331e-02
1.4838508e-01
2.1075686e-01
2.6002132e-01
2.8896419e-01
3.1546021e-01
3.5255732e-01
3.9284498e-01
4.2286927e-01
4.3346418e-01
4.2569102e-01
4.0258576e-01
3.4862364e-01
2.2865790e-01
2.2339900e-02
-2.4311268e-01
-5.0971220e-01
-7.3494627e-01
-9.1236780e-01
-1.0514764e+00
-1.1540529e+00
-1.2100393e+00
-1.2150358e+00
-1.1903464e+00
-1.1732082e+00
-1.1847379e+00
-1.2112773e+00
-1.2218542e+00
-1.1968231e+00
-1.1248130e+00
-9.8761000e-01
-7.6686024e-01
-4.6313948e-01
-1.1181778e-01
2.2805909e-01
5.0168380e-01
6.8125314e-01
7.7021258e-01
7.8057532e-01
7.2641886e-01
6.4081722e-01
5.6523919e-01
5.1827400e-01
4.9116718e-01
4.6713544e-01
4.3527264e-01
3.9033787e-01
3.3103672e-01
2.6819982e-01
2.2120061e-01
1.9417252e-01
1.7397107e-01
1.5185659e-01
1.3113681e-01
1.1800840e-01
1.1377036e-01
1.1598135e-01
1.2248001e-01
1.3137617e-01
1.3931137e-01
1.4355410e-01
1.4469148e-01
1.4552940e-01
1.4756111e-01
1.4565397e-01
1.3488890e-01
1.2263547e-01
1.1846110e-01
1.2340946e-01
1.3269623e-01
1.4116262e-01
1.4815954e-01
1.5176983e-01
1.4318301e-01
1.1828812e-01
8.5155828e-02
5.3031564e-02
2.5846048e-02
1.4628558e-04
-3.0838621e-02
-6.0927952e-02
-6.9306329e-02
-4.8920157e-02
-2.6119118e-02
-2.8984472e-02
-5.1483035e-02
-6.4765488e-02
-5.3026154e-02
-2.9706388e-02
-1.6764287e-02
-1.7426241e-02
-1.6991526e-02
-7.8117495e-03
2.5131538e-03
8.5461641e-03
1.7893484e-02
3.8720073e-02
6.4470603e-02
8.5422313e-02
1.0605410e-01
1.3907726e-01
1.8866821e-01
2.5008444e-01
3.2037901e-01
4.0194205e-01
5.0424183e-01
6.4565782e-01
8.4764967e-01
1.1205782e+00
1.4680853e+00
1.9077151e+00
2.4636154e+00
3.1471224e+00
3.9521295e+00
4.8470849e+00
5.7491221e+00
6.4711744e+00
6.6538025e+00
5.6726152e+00
2.4648806e+00
-2.1971468e+00
-5.4327281e+00
-6.4770402e+00
-6.3919847e+00
-5.7741426e+00
-4.9444121e+00
-4.0815700e+00
-3.2908027e+00
-2.6231969e+00
-2.0829977e+00
-1.6443530e+00
-1.2795142e+00
-9.7674797e-01
-7.3161024e-01
-5.3632944e-01
-3.8434065e-01
-2.7182201e-01
-1.8952899e-01
-1.2625092e-01
-7.2665608e-02
-1.9754963e-02
2.5643102e-02
4.3635316e-02
2.9444408e-02
8.9305468e-04
-1.4732817e-02
-6.1508673e-03
8.4074259e-03
1.0932557e-02
6.4607857e-03
4.2107210e-03
6.3415673e-03
1.2761586e-02
1.7001289e-02
1.2243832e-02
-8.7410653e-06
-1.5250020e-02
-2.6748207e-02
-2.6975410e-02
-1.5283029e-02
2.3102628e-03
1.6538340e-02
1.6972483e-02
7.2747104e-03
5.8678768e-03
1.8825893e-02
3.5751115e-02
4.5140598e-02
4.3995161e-02
4.3899151e-02
5.4356536e-02
6.8195721e-02
7.6086845e-02
7.1728548e-02
4.7249185e-02
4.5667288e-05
-6.7443040e-02
-1.5245814e-01
-2.5257352e-01
-3.7255868e-01
-5.2327410e-01
-7.1541417e-01
-9.5959651e-01
-1.2640534e+00
-1.6362801e+00
-2.0936606e+00
-2.6675692e+00
-3.3783376e+00
-4.2046192e+00
-5.0866780e+00
-5.9312624e+00
-6.5721650e+00
-6.6785427e+00
-5.6287004e+00
-2.3394928e+00
2.4108899e+00
5.6951632e+00
6.7288348e+00
6.5917516e+00
5.9015596e+00
4.9995280e+00
4.0781485e+00
3.2456397e+00
2.5463956e+00
1.9791611e+00
1.5230430e+00
1.1561698e+00
8.6410359e-01
6.3806794e-01
4.7040572e-01
3.4892480e-01
2.5531837e-01
1.7618606e-01
1.1075388e-01
6.5621989e-02
4.4068553e-02
3.5321496e-02
2.2599068e-02
5.3349268e-03
-9.0396291e-04
8.1334887e-03
1.2921846e-02
9.8728414e-04
-6.8078005e-03
1.3876808e-02
5.4336205e-02
9.0484993e-02
1.2184988e-01
1.7385998e-01
2.7177706e-01
4.2214429e-01
6.1759353e-01
8.5782881e-01
1.1599510e+00
1.5480725e+00
2.0354830e+00
2.6232657e+00
3.3165906e+00
4.1264263e+00
5.0330827e+00
5.9404285e+00
6.6455171e+00
6.7850761e+00
5.7258346e+00
2.3800387e+00
-2.4561659e+00
-5.8116259e+00
-6.8762631e+00
-6.7353186e+00
-6.0375594e+00
-5.1549567e+00
-4.2820430e+00
-3.5088441e+00
-2.8604087e+00
-2.3407901e+00
-1.9662292e+00
-1.7501149e+00
-1.6877643e+00
-1.7638103e+00
-1.9589544e+00
-2.2675921e+00
-2.7091568e+00
-3.3042898e+00
-4.0436943e+00
-4.8785674e+00
-5.7118168e+00
-6.3609539e+00
-6.4831210e+00
-5.4611425e+00
-2.2449062e+00
2.3871509e+00
5.5714584e+00
6.5504923e+00
6.3964186e+00
5.7258772e+00
4.8626845e+00
3.9750073e+00
3.1593649e+00
2.4673197e+00
1.9030702e+00
1.4422118e+00
1.0710853e+00
7.9072664e-01
5.9162513e-01
4.4483614e-01
3.2089930e-01
2.1280936e-01
1.3418631e-01
9.6525391e-02
8.9197659e-02
8.6981679e-02
7.6477804e-02
6.5804358e-02
6.5593208e-02
6.5547182e-02
4.8186732e-02
1.4591776e-02
-1.8344483e-02
-3.6401125e-02
-3.8152225e-02
-3.1382010e-02
-2.4078422e-02
-1.3084182e-02
9.4141203e-03
3.3231630e-02
3.6841214e-02
1.7970456e-02
-2.8622151e-03
-1.0078365e-02
-1.4056396e-02
-2.9883845e-02
-4.6627611e-02
-4.0196051e-02
-9.6240882e-03
1.3762538e-02
-8.3823057e-05
-4.1536022e-02
-6.8784205e-02
-5.9260609e-02
-3.6815305e-02
-3.2561713e-02
-3.9156016e-02
-2.8728565e-02
-1.7465131e-03
1.5374280e-02
1.4974903e-02
1.2312244e-02
1.2568180e-02
4.5306724e-03
-2.0809045e-02
-5.4220353e-02
-7.3532476e-02
-6.9869109e-02
-5.3376336e-02
-3.5933963e-02
-2.0848345e-02
-7.3618645e-03
1.8772867e-04
-1.7229274e-03
-1.1015695e-02
-2.6650634e-02
-4.8906582e-02
-7.2598316e-02
-8.8739817e-02
-9.4173640e-02
-9.0917951e-02
-7.9477673e-02
-5.9678998e-02
-3.4902655e-02
-1.0505260e-02
9.2081412e-03
2.4030029e-02
3.5663621e-02
4.3933106e-02
5.0384126e-02
6.0499919e-02
8.0612539e-02
1.0927225e-01
1.3449220e-01
1.4376758e-01
1.3692903e-01
1.2427468e-01
1.1284432e-01
1.0164958e-01
8.5737318e-02
6.3960566e-02
3.9072891e-02
1.6757237e-02
5.5172383e-03
9.6943036e-03
2.6870843e-02
4.8498416e-02
6.3228975e-02
6.3651693e-02
6.0611451e-02
8.1954270e-02
1.4035909e-01
2.1844355e-01
2.9741017e-01
3.8511959e-01
5.0605363e-01
6.7674314e-01
8.9778378e-01
1.1657866e+00
1.4914846e+00
1.9053468e+00
2.4420608e+00
3.1176478e+00
3.9215130e+00
4.8175099e+00
5.7225117e+00
6.4496248e+00
6.6358063e+00
5.6463004e+00
2.4109041e+00
-2.2849462e+00
-5.5335360e+00
-6.5551952e+00
-6.4195723e+00
-5.7482722e+00
-4.8832380e+00
-4.0019957e+00
-3.1953493e+00
-2.5019839e+00
-1.9290530e+00
-1.4708715e+00
-1.1138584e+00
-8.4482381e-01
-6.5097237e-01
-5.1085435e-01
-4.0127655e-01
-3.0834297e-01
-2.2935694e-01
-1.7002401e-01
-1.3521890e-01
-1.1695683e-01
-1.0323349e-01
-9.6613669e-02
-1.1058499e-01
-1.4830694e-01
-1.7793505e-01
-1.6618640e-01
-1.3216753e-01
-1.1670284e-01
-1.3615288e-01
-1.7266119e-01
-1.9961663e-01
-2.1876569e-01
-2.5096257e-01
-3.1450574e-01
-4.2865403e-01
-6.1022906e-01
-8.5779964e-01
-1.1597075e+00
-1.5172738e+00
-1.9538034e+00
-2.5090639e+00
-3.2147304e+00
-4.0612948e+00
-4.9889277e+00
-5.8882619e+00
-6.5727303e+00
-6.7061055e+00
-5.6684598e+00
-2.3658360e+00
2.4207490e+00
5.7417364e+00
6.7987681e+00
6.6679315e+00
5.9796691e+00
5.1002613e+00
4.2330651e+00
3.4713864e+00
2.8410272e+00
2.3468100e+00
1.9944008e+00
1.7872812e+00
1.7205967e+00
1.7868716e+00
1.9908908e+00
2.3492666e+00
2.8741255e+00
3.5611800e+00
4.3885490e+00
5.3099704e+00
6.2314117e+00
6.9594721e+00
7.1133937e+00
6.0202476e+00
2.5603311e+00
-2.4246148e+00
-5.8700892e+00
-6.9623735e+00
-6.8311490e+00
-6.1297136e+00
-5.2240745e+00
-4.3109351e+00
-3.4784598e+00
-2.7446275e+00
-2.1116693e+00
-1.5978408e+00
-1.2119097e+00
-9.3260430e-01
-7.1904362e-01
-5.3656500e-01
-3.7931411e-01
-2.6390937e-01
-2.0026300e-01
-1.7453485e-01
-1.6286234e-01
-1.4795568e-01
-1.2488404e-01
-9.5472352e-02
-5.4609438e-02
1.4689413e-02
1.0054936e-01
1.5634205e-01
1.7157067e-01
1.6317798e-01
1.3701645e-01
9.7328899e-02
5.2639292e-02
1.6625292e-02
-5.5915287e-04
3.5612949e-03
2.0012899e-02
2.9887805e-02
2.4250142e-02
1.3046350e-02
1.2109901e-02
2.3822463e-02
3.6249515e-02
4.4118416e-02
5.3747452e-02
6.9375525e-02
8.6322955e-02
9.6268358e-02
9.6442698e-02
9.1260927e-02
8.3650813e-02
6.6155535e-02
3.2147293e-02
-6.5025543e-03
-3.2120805e-02
-4.8635358e-02
-8.1978455e-02
-1.4894445e-01
-2.3993271e-01
-3.4048349e-01
-4.5107777e-01
-5.8797469e-01
-7.7137183e-01
-1.0113771e+00
-1.3130534e+00
-1.6864705e+00
-2.1464263e+00
-2.7115072e+00
-3.3942062e+00
-4.1884738e+00
-5.0669330e+00
-5.9485936e+00
-6.6392751e+00
-6.7683418e+00
-5.6920443e+00
-2.3307269e+00
2.4901569e+00
5.7942702e+00
6.8169782e+00
6.6829394e+00
6.0143899e+00
5.1291432e+00
4.2093430e+00
3.3735953e+00
2.6708690e+00
2.0913947e+00
1.6130495e+00
1.2276532e+00
9.3001341e-01
7.0098527e-01
5.1478366e-01
3.6235741e-01
2.4844490e-01
1.6795873e-01
1.0375101e-01
4.7327624e-02
6.7856473e-03
-1.5446321e-02
-3.1216626e-02
-4.5088650e-02
-4.9700077e-02
-4.7627674e-02
-5.4479567e-02
-7.2622316e-02
-8.8241233e-02
-9.5909078e-02
-9.9270576e-02
-9.8889915e-02
-9.0529331e-02
-6.8024793e-02
-3.1875321e-02
5.0609926e-03
3.2007399e-02
5.3127877e-02
7.2271286e-02
8.0896073e-02
7.2183097e-02
6.1093029e-02
7.1491643e-02
1.0224237e-01
1.2993625e-01
1.4145419e-01
1.4726460e-01
1.5710320e-01
1.5868593e-01
1.3739089e-01
9.9025266e-02
6.0244583e-02
3.1051743e-02
1.6521716e-02
2.2701685e-02
5.5370802e-02
1.1286487e-01
1.8126350e-01
2.4761745e-01
3.2128110e-01
4.3470803e-01
6.1293491e-01
8.5334303e-01
1.1451193e+00
1.4999090e+00
1.9510845e+00
2.5247254e+00
3.2254593e+00
4.0411228e+00
4.9364427e+00
5.8235263e+00
6.5151365e+00
6.6563968e+00
5.6192776e+00
2.3334378e+00
-2.4055536e+00
-5.6691301e+00
-6.6809707e+00
-6.5291121e+00
-5.8419884e+00
-4.9576558e+00
-4.0500420e+00
-3.2136195e+00
-2.4943879e+00
-1.9056234e+00
-1.4352936e+00
-1.0569688e+00
-7.5470538e-01
-5.2543712e-01
-3.6096316e-01
-2.4550366e-01
-1.6366837e-01
-1.0244546e-01
-5.6527948e-02
-2.2192025e-02
4.8065614e-03
1.8769010e-02
1.2625687e-02
-1.7712463e-02
-7.8151072e-02
-1.5094657e-01
-2.0224069e-01
-2.3507788e-01
-2.6607673e-01
-2.8153682e-01
-2.5647177e-01
-1.9265043e-01
-1.2526498e-01
-8.3836826e-02
-6.5463959e-02
-4.9106615e-02
-2.1191835e-02
1.4333516e-02
4.3747636e-02
5.5821978e-02
4.7043106e-02
1.7398664e-02
-2.3697452e-02
-4.7172076e-02
-3.3202499e-02
1.5759791e-03
2.4673178e-02
2.0091226e-02
2.4274701e-03
7.1967616e-03
3.9860673e-02
6.0332291e-02
4.8956527e-02
1.9791414e-02
-8.9894771e-03
-2.4587158e-02
-2.8248195e-02
-2.7296218e-02
-2.3956439e-02
-1.3764592e-02
6.7327429e-03
3.1348965e-02
5.0675604e-02
6.9697195e-02
1.0053499e-01
1.3665463e-01
1.6127152e-01
1.6546457e-01
1.5442434e-01
1.4114231e-01
1.2883962e-01
1.1015468e-01
7.9569396e-02
4.3583135e-02
1.7670978e-02
2.7288173e-03
-1.7152262e-02
-4.7377928e-02
-8.1382772e-02
-1.1183853e-01
-1.3260519e-01
-1.4069289e-01
-1.3669325e-01
-1.2363718e-01
-1.0982576e-01
-1.0951949e-01
-1.2985683e-01
-1.5531266e-01
-1.5715260e-01
-1.2959625e-01
-1.0046079e-01
-9.5553855e-02
-1.0696297e-01
-1.0409160e-01
-6.5129472e-02
6.5764301e-03
8.5886740e-02
1.4364430e-01
1.6402475e-01
1.4633903e-01
1.0978293e-01
8.8949174e-02
9.6055191e-02
1.0943663e-01
1.0247757e-01
6.4666941e-02
7.7866148e-03
-4.0096803e-02
-5.6960547e-02
-4.9232631e-02
-4.0944047e-02
-4.4059747e-02
-5.0151072e-02
-4.4789863e-02
-2.7592087e-02
-1.2652280e-02
-8.5370152e-03
-1.0218897e-02
-9.6839672e-03
-6.3775649e-03
-5.7439782e-03
-5.0583317e-03
6.4055171e-03
2.8325604e-02
4.5978989e-02
5.0371439e-02
4.8413095e-02
4.9419242e-02
5.6179438e-02
5.9943373e-02
4.4118510e-02
1.3653403e-04
-6.8922864e-02
-1.6202218e-01
-2.8760226e-01
-4.6013453e-01
-6.8635399e-01
-9.6011208e-01
-1.2845654e+00
-1.6786759e+00
-2.1663465e+00
-2.7686172e+00
-3.4973112e+00
-4.3477916e+00
-5.2818037e+00
-6.1942640e+00
-6.8730131e+00
-6.9549728e+00
-5.8184807e+00
-2.3675980e+00
2.5770187e+00
5.9803087e+00
7.0489719e+00
6.9243821e+00
6.2479622e+00
5.3554789e+00
4.4333929e+00
3.6020299e+00
2.9294925e+00
2.4272901e+00
2.0716981e+00
1.8459341e+00
1.7545998e+00
1.8039151e+00
1.9894305e+00
2.3064121e+00
2.7652828e+00
3.3840958e+00
4.1530307e+00
5.0142978e+00
5.8660182e+00
6.5293692e+00
6.6627190e+00
5.6369578e+00
2.3628131e+00
-2.3807132e+00
-5.6638843e+00
-6.6952647e+00
-6.5551893e+00
-5.8796652e+00
-5.0148764e+00
-4.1391620e+00
-3.3512773e+00
-2.7046675e+00
-2.2214123e+00
-1.8948664e+00
-1.7029082e+00
-1.6396028e+00
-1.7158330e+00
-1.9356582e+00
-2.2967013e+00
-2.8035036e+00
-3.4648757e+00
-4.2807975e+00
-5.2113088e+00
-6.1405739e+00
-6.8567758e+00
-6.9952552e+00
-5.9136171e+00
-2.5006933e+00
2.4319390e+00
5.8561314e+00
6.9499400e+00
6.8109754e+00
6.0841161e+00
5.1476405e+00
4.2086357e+00
3.3570159e+00
2.6165389e+00
1.9971938e+00
1.5131487e+00
1.1642800e+00
9.1173181e-01
6.9639360e-01
4.9500373e-01
3.3119599e-01
2.2597456e-01
1.6155085e-01
1.0358310e-01
4.4498743e-02
2.6762075e-03
-1.5852017e-02
-2.7052782e-02
-4.2901212e-02
-5.6595652e-02
-5.4275982e-02
-3.5050226e-02
-1.4362579e-02
-1.8996080e-03
1.3911015e-02
4.8344938e-02
1.0226964e-01
1.6735672e-01
2.3981202e-01
3.2949425e-01
4.5343431e-01
6.2259654e-01
8.4109551e-01
1.1187006e+00
1.4803921e+00
1.9568868e+00
2.5619448e+00
3.2870300e+00
4.1240419e+00
5.0580846e+00
6.0070365e+00
6.7652500e+00
6.9538623e+00
5.9230959e+00
2.5718854e+00
-2.2969142e+00
-5.6934902e+00
-6.8051425e+00
-6.7110759e+00
-6.0360063e+00
-5.1381563e+00
-4.2250407e+00
-3.4081086e+00
-2.7219742e+00
-2.1552773e+00
-1.6881068e+00
-1.3033178e+00
-9.8890317e-01
-7.4112618e-01
-5.5473158e-01
-4.2352819e-01
-3.3938881e-01
-2.8388018e-01
-2.3219713e-01
-1.7203808e-01
-1.1720062e-01
-9.0476709e-02
-9.2615356e-02
-9.0873708e-02
-4.2084703e-02
4.3288930e-02
1.0245767e-01
1.1384644e-01
1.0527544e-01
9.7249537e-02
9.0093621e-02
8.0279226e-02
7.1503971e-02
6.6231469e-02
6.0770551e-02
4.9547895e-02
3.1363407e-02
1.8276564e-02
2.5077816e-02
4.9640969e-02
7.8027346e-02
9.6382939e-02
1.0165961e-01
1.0613729e-01
1.2434389e-01
1.5423943e-01
1.7960295e-01
1.9031232e-01
1.7891498e-01
1.2506364e-01
3.9021157e-02
-2.7280061e-02
-5.7620301e-02
-6.9480110e-02
-7.2327036e-02
-7.0846320e-02
-6.6888929e-02
-6.0173721e-02
-5.6052509e-02
-6.6341715e-02
-9.4781564e-02
-1.3133583e-01
-1.5638683e-01
-1.5611297e-01
-1.4264107e-01
-1.4377249e-01
-1.6740790e-01
-1.9107123e-01
-1.8775152e-01
-1.5428662e-01
-1.1470111e-01
-9.1489584e-02
-8.6503237e-02
-9.4855123e-02
-1.1349833e-01
-1.2301758e-01
-1.0079399e-01
-6.2283032e-02
-4.2160263e-02
-6.3607783e-02
-1.2745223e-01
-2.0136244e-01
-2.5341724e-01
-2.9410561e-01
-3.6172938e-01
-4.8451887e-01
-6.6601023e-01
-8.9203736e-01
-1.1594947e+00
-1.4959881e+00
-1.9414755e+00
-2.5210215e+00
-3.2341181e+00
-4.0608372e+00
-4.9634355e+00
-5.8569459e+00
-6.5548285e+00
-6.6976999e+00
-5.6478057e+00
-2.3175124e+00
2.4899270e+00
5.8090947e+00
6.8550085e+00
6.7226039e+00
6.0325147e+00
5.1329152e+00
4.2341004e+00
3.4549255e+00
2.8313650e+00
2.3530439e+00
2.0117463e+00
1.8160863e+00
1.7747545e+00
1.8795316e+00
2.1146783e+00
2.4785384e+00
2.9860150e+00
3.6501904e+00
4.4570192e+00
5.3568247e+00
6.2577321e+00
6.9723579e+00
7.1189071e+00
6.0114385e+00
2.5128871e+00
-2.5251811e+00
-5.9955943e+00
-7.0642845e+00
-6.8870301e+00
-6.1535706e+00
-5.2382707e+00
-4.3144245e+00
-3.4535878e+00
-2.6900307e+00
-2.0469002e+00
-1.5373084e+00
-1.1526130e+00
-8.6875192e-01
-6.6005543e-01
-5.0162229e-01
-3.7405356e-01
-2.7080516e-01
-1.9419136e-01
-1.4809383e-01
-1.3051600e-01
-1.2268047e-01
-1.0555183e-01
-8.4641180e-02
-7.3180488e-02
-5.8471335e-02
-2.5921750e-02
1.5210509e-02
5.4897566e-02
8.0779221e-02
8.2299345e-02
6.9903729e-02
6.1142344e-02
6.0341179e-02
6.0177292e-02
5.7521610e-02
5.7493712e-02
6.3061163e-02
7.4513403e-02
9.1439972e-02
1.1245509e-01
1.3630788e-01
1.5518273e-01
1.5478917e-01
1.3225267e-01
1.0529405e-01
9.4227886e-02
1.0162722e-01
1.0632224e-01
7.6569980e-02
-6.6220588e-03
-1.1251844e-01
-1.7928457e-01
-1.9326535e-01
-1.8338776e-01
-1.7148734e-01
-1.6266337e-01
-1.5588140e-01
-1.5233862e-01
-1.4724657e-01
-1.2959612e-01
-9.7480126e-02
-6.3199702e-02
-4.3367579e-02
-4.4721411e-02
-5.1885742e-02
-4.3401724e-02
-1.6459396e-02
1.3907836e-02
2.7167769e-02
1.6263812e-02
-4.7219176e-03
-1.8941199e-02
-2.2692721e-02
-1.9715344e-02
-6.4976207e-03
1.9764496e-02
4.6699790e-02
6.0896920e-02
6.2261807e-02
6.1169644e-02
6.3588833e-02
6.1406367e-02
4.6070844e-02
2.5028920e-02
1.7392860e-02
3.0063136e-02
4.7364753e-02
5.1829479e-02
4.1900263e-02
2.9387281e-02
2.7314045e-02
3.7734723e-02
5.1953010e-02
6.4703246e-02
8.0972226e-02
1.0568289e-01
1.3790327e-01
1.6724120e-01
1.7479640e-01
1.4703199e-01
9.4084731e-02
4.1303258e-02
-2.9776520e-04
-2.7428301e-02
-3.4899020e-02
-2.9243499e-02
-3.2651462e-02
-6.1071962e-02
-1.0103311e-01
-1.2557334e-01
-1.2309550e-01
-1.0924853e-01
-1.1011696e-01
-1.3018757e-01
-1.5381235e-01
-1.6882282e-01
-1.7443098e-01
-1.7554134e-01
-1.7696564e-01
-1.8093655e-01
-1.8972595e-01
-2.0218880e-01
-2.0372959e-01
-1.6712810e-01
-6.4595478e-02
7.1900557e-02
1.6032401e-01
1.8019587e-01
1.6910313e-01
1.6050008e-01
1.6182986e-01
1.5349511e-01
1.2422851e-01
8.8162303e-02
6.4374490e-02
5.7703777e-02
6.0614409e-02
6.4094540e-02
6.3712735e-02
6.6513202e-02
8.0608594e-02
9.7952221e-02
1.1035981e-01
1.2183426e-01
1.3318029e-01
1.4019889e-01
1.4058004e-01
1.3134865e-01
1.0861551e-01
5.5373565e-02
-2.7642323e-02
-9.6535293e-02
-1.2369757e-01
-1.1452187e-01
-8.8166334e-02
-7.4982823e-02
-9.5886951e-02
-1.4835084e-01
-2.2348176e-01
-3.2432207e-01
-4.6331392e-01
-6.5428849e-01
-9.0051946e-01
-1.2047161e+00
-1.5904424e+00
-2.0883200e+00
-2.7152699e+00
-3.4706737e+00
-4.3322959e+00
-5.2594180e+00
-6.1749864e+00
-6.8939291e+00
-7.0385056e+00
-5.9433856e+00
-2.4818763e+00
2.5095736e+00
5.9497166e+00
7.0223577e+00
6.8676207e+00
6.1379855e+00
5.1959225e+00
4.2460145e+00
3.3979160e+00
2.6812069e+00
2.0746626e+00
1.5612196e+00
1.1544724e+00
8.6668162e-01
6.6890141e-01
5.1012192e-01
3.6857996e-01
2.5887934e-01
1.9290325e-01
1.5694265e-01
1.2662889e-01
9.1957776e-02
6.3842150e-02
5.2707757e-02
4.9412534e-02
4.0785775e-02
3.1375363e-02
3.0341023e-02
3.6226458e-02
4.6542013e-02
5.9415408e-02
7.4664025e-02
1.0274810e-01
1.5608199e-01
2.3306017e-01
3.2640249e-01
4.4354494e-01
6.0378921e-01
8.2399613e-01
1.1167027e+00
1.4989243e+00
1.9946441e+00
2.6209414e+00
3.3803961e+00
4.2623473e+00
5.2284097e+00
6.1818713e+00
6.9242577e+00
7.0842008e+00
5.9993141e+00
2.5416502e+00
-2.4579217e+00
-5.9265657e+00
-7.0328025e+00
-6.9076206e+00
-6.2231697e+00
-5.3486348e+00
-4.4620492e+00
-3.6485655e+00
-2.9645415e+00
-2.4496125e+00
-2.1095376e+00
-1.9117200e+00
-1.8235773e+00
-1.8519011e+00
-2.0221301e+00
-2.3489075e+00
-2.8357333e+00
-3.4802815e+00
-4.2684413e+00
-5.1493121e+00
-6.0131164e+00
-6.6680440e+00
-6.7725957e+00
-5.7040017e+00
-2.3618051e+00
2.4699518e+00
5.8185741e+00
6.8783034e+00
6.7335532e+00
6.0198188e+00
5.1051143e+00
4.1859355e+00
3.3523333e+00
2.6366699e+00
2.0414087e+00
1.5565254e+00
1.1695817e+00
8.6681722e-01
6.3084384e-01
4.4664661e-01
3.0837215e-01
2.0931841e-01
1.3321219e-01
6.6240090e-02
1.0611310e-02
-2.6005611e-02
-4.4996134e-02
-4.9978309e-02
-4.1157135e-02
-2.2201896e-02
9.9630018e-04
2.6109504e-02
5.2138353e-02
7.8086384e-02
1.0458367e-01
1.3516257e-01
1.7631510e-01
2.3721466e-01
3.2791882e-01
4.5047205e-01
5.9975488e-01
7.7693631e-01
9.9671357e-01
1.2804836e+00
1.6420353e+00
2.0916221e+00
2.6477236e+00
3.3260119e+00
4.1183914e+00
4.9882291e+00
5.8587824e+00
6.5555286e+00
6.7127513e+00
5.6696108e+00
2.3273392e+00
-2.5034128e+00
-5.8417693e+00
-6.8836457e+00
-6.7264139e+00
-6.0214977e+00
-5.1358295e+00
-4.2624976e+00
-3.4951258e+00
-2.8657412e+00
-2.3730519e+00
-2.0131915e+00
-1.7939681e+00
-1.7274385e+00
-1.8108310e+00
-2.0209208e+00
-2.3407586e+00
-2.7884720e+00
-3.3934137e+00
-4.1509629e+00
-5.0135895e+00
-5.8796623e+00
-6.5556135e+00
-6.6918985e+00
-5.6668117e+00
-2.4098551e+00
2.2971707e+00
5.5463775e+00
6.5603859e+00
6.4140540e+00
5.7319376e+00
4.8598839e+00
3.9818026e+00
3.1891182e+00
2.5153502e+00
1.9636909e+00
1.5248110e+00
1.1773216e+00
8.9796955e-01
6.7823567e-01
5.1734300e-01
4.0770209e-01
3.3444297e-01
2.8155369e-01
2.3926526e-01
2.0393137e-01
1.7368125e-01
1.4868256e-01
1.2723325e-01
1.0323943e-01
7.6087811e-02
5.2718247e-02
3.0586068e-02
6.0763812e-03
4.4348521e-04
3.8868061e-02
1.0797346e-01
1.6862572e-01
2.0699116e-01
2.5134936e-01
3.3940366e-01
4.7950477e-01
6.5805698e-01
8.7388624e-01
1.1490579e+00
1.5098621e+00
1.9684134e+00
2.5338926e+00
3.2251387e+00
4.0467617e+00
4.9521814e+00
5.8310994e+00
6.4992385e+00
6.6285726e+00
5.6021285e+00
2.3282515e+00
-2.4208134e+00
-5.7160325e+00
-6.7633688e+00
-6.6350424e+00
-5.9582289e+00
-5.0905163e+00
-4.2237727e+00
-3.4419037e+00
-2.7815016e+00
-2.2697784e+00
-1.9164734e+00
-1.7112317e+00
-1.6400727e+00
-1.7037374e+00
-1.9208586e+00
-2.3041854e+00
-2.8420291e+00
-3.5169420e+00
-4.3201044e+00
-5.2287091e+00
-6.1577219e+00
-6.8982670e+00
-7.0576556e+00
-5.9729806e+00
-2.5393511e+00
2.4130252e+00
5.8498598e+00
6.9586838e+00
6.8436453e+00
6.1418669e+00
5.2215941e+00
4.2856800e+00
3.4284440e+00
2.6826764e+00
2.0517218e+00
1.5338559e+00
1.1370758e+00
8.5920491e-01
6.6219852e-01
4.9296418e-01
3.3364204e-01
2.1210931e-01
1.5269136e-01
1.3500508e-01
1.1760959e-01
9.1529260e-02
7.9707888e-02
8.6912609e-02
8.8530460e-02
6.8979386e-02
4.2621051e-02
2.7749532e-02
1.8739989e-02
8.6949170e-04
-2.1690958e-02
-2.8674634e-02
-1.1505752e-02
1.3026959e-02
2.4035973e-02
2.0379072e-02
1.3883696e-02
9.6416030e-03
3.2464051e-03
-1.0593773e-02
-3.0330351e-02
-4.5709542e-02
-5.3187717e-02
-6.4462017e-02
-8.8246653e-02
-1.1299587e-01
-1.1790966e-01
-1.0346781e-01
-9.0042312e-02
-8.0901694e-02
-5.5126645e-02
-5.1148223e-04
6.4818298e-02
1.1045867e-01
1.2843305e-01
1.4188257e-01
1.8017954e-01
2.4711434e-01
3.1819713e-01
3.7649124e-01
4.4278542e-01
5.5303572e-01
7.1437693e-01
9.1523500e-01
1.1678173e+00
1.5061569e+00
1.9516549e+00
2.5035608e+00
3.1610189e+00
3.9325881e+00
4.8106139e+00
5.7144116e+00
6.4274618e+00
6.5609577e+00
5.4905368e+00
2.1782054e+00
-2.5579727e+00
-5.7996607e+00
-6.8000552e+00
-6.6581447e+00
-5.9847215e+00
-5.1061456e+00
-4.2016649e+00
-3.3695439e+00
-2.6554874e+00
-2.0707537e+00
-1.6057228e+00
-1.2369215e+00
-9.3815305e-01
-6.9012881e-01
-4.8337129e-01
-3.1393465e-01
-1.8302140e-01
-9.5003855e-02
-4.0383215e-02
-3.5431996e-03
1.6658397e-02
1.7896556e-02
1.0567106e-02
8.8211396e-03
1.4642759e-02
2.0677230e-02
1.9926522e-02
1.0545161e-02
4.0976938e-05
-6.0956639e-03
-1.3745112e-02
-3.7680951e-02
-8.8112605e-02
-1.5879400e-01
-2.5369350e-01
-3.9621701e-01
-5.9920990e-01
-8.5772272e-01
-1.1665882e+00
-1.5373539e+00
-2.0036272e+00
-2.6014513e+00
-3.3379745e+00
-4.1834704e+00
-5.0836397e+00
-5.9531782e+00
-6.6224524e+00
-6.7477556e+00
-5.6947401e+00
-2.3645015e+00
2.4425938e+00
5.7507163e+00
6.7856739e+00
6.6605250e+00
5.9880950e+00
5.0936844e+00
4.1761253e+00
3.3684781e+00
2.7307084e+00
2.2532563e+00
1.9073800e+00
1.6930849e+00
1.6252248e+00
1.6952850e+00
1.8835000e+00
2.1969146e+00
2.6621855e+00
3.2888270e+00
4.0533037e+00
4.9042162e+00
5.7532338e+00
6.4254641e+00
6.5776266e+00
5.5857775e+00
2.3824732e+00
-2.2661953e+00
-5.4870998e+00
-6.5004416e+00
-6.3579567e+00
-5.6814076e+00
-4.8169750e+00
-3.9369447e+00
-3.1223472e+00
-2.4139278e+00
-1.8316366e+00
-1.3744516e+00
-1.0229158e+00
-7.5380454e-01
-5.5068438e-01
-4.0034345e-01
-2.8608523e-01
-1.9468453e-01
-1.2627696e-01
-8.8933453e-02
-8.0875780e-02
-7.9496452e-02
-6.1779453e-02
-3.5545521e-02
-3.2333302e-02
-7.8965657e-02
-1.5799474e-01
-2.1516996e-01
-2.3121191e-01
-2.2654150e-01
-2.2204545e-01
-2.2904473e-01
-2.5287790e-01
-2.9580245e-01
-3.5837056e-01
-4.4002988e-01
-5.4380022e-01
-6.8807622e-01
-8.9832905e-01
-1.1887906e+00
-1.5607702e+00
-2.0159046e+00
-2.5725396e+00
-3.2630120e+00
-4.0939074e+00
-5.0132534e+00
-5.9092044e+00
-6.5886346e+00
-6.7087852e+00
-5.6555496e+00
-2.3530735e+00
2.4181185e+00
5.7299147e+00
6.7929384e+00
6.6810669e+00
6.0201215e+00
5.1652746e+00
4.3083737e+00
3.5392923e+00
2.8898083e+00
2.3744409e+00
2.0060024e+00
1.7816239e+00
1.6856452e+00
1.7200781e+00
1.9084884e+00
2.2684753e+00
2.7982582e+00
3.4801594e+00
4.2885258e+00
5.1886715e+00
6.0997907e+00
6.8259123e+00
6.9845281e+00
5.9226839e+00
2.5449447e+00
-2.3424861e+00
-5.7466180e+00
-6.8548811e+00
-6.7534925e+00
-6.0782786e+00
-5.2051222e+00
-4.3444509e+00
-3.5878709e+00
-2.9570676e+00
-2.4506345e+00
-2.0755562e+00
-1.8508406e+00
-1.7846325e+00
-1.8673953e+00
-2.0926367e+00
-2.4597307e+00
-2.9654748e+00
-3.6033697e+00
-4.3596953e+00
-5.2049338e+00
-6.0598576e+00
-6.7315230e+00
-6.8407221e+00
-5.7365845e+00
-2.3397481e+00
2.5204897e+00
5.8575708e+00
6.8928033e+00
6.7408866e+00
6.0383880e+00
5.1314018e+00
4.2050938e+00
3.3617658e+00
2.6437776e+00
2.0471350e+00
1.5579218e+00
1.1737695e+00
8.9045147e-01
6.8251853e-01
5.1483737e-01
3.7241047e-01
2.6225454e-01
1.8964493e-01
1.4397415e-01
1.0494919e-01
6.0326861e-02
1.8133883e-02
-5.8958243e-03
-1.0121900e-02
-8.7012189e-03
-1.0422124e-02
-5.3661417e-03
1.5261375e-02
4.4684179e-02
7.4634719e-02
1.0890915e-01
1.5791274e-01
2.2498199e-01
3.0678717e-01
4.0404585e-01
5.2903870e-01
7.0456672e-01
9.4916456e-01
1.2651231e+00
1.6532331e+00
2.1322759e+00
2.7278690e+00
3.4447747e+00
4.2620126e+00
5.1457684e+00
6.0225625e+00
6.7048439e+00
6.8206073e+00
5.7266188e+00
2.3340197e+00
-2.5345459e+00
-5.8772656e+00
-6.9132663e+00
-6.7743832e+00
-6.0953471e+00
-5.2024177e+00
-4.2783422e+00
-3.4451150e+00
-2.7735537e+00
-2.2813872e+00
-1.9510656e+00
-1.7590087e+00
-1.6936256e+00
-1.7603748e+00
-1.9697916e+00
-2.3246302e+00
-2.8285945e+00
-3.4845922e+00
-4.2732863e+00
-5.1414499e+00
-5.9910593e+00
-6.6431707e+00
-6.7602926e+00
-5.7149704e+00
-2.4018075e+00
2.3981951e+00
5.7196184e+00
6.7646966e+00
6.6235062e+00
5.9283068e+00
5.0399748e+00
4.1583434e+00
3.3823199e+00
2.7530646e+00
2.2837356e+00
1.9699715e+00
1.7973568e+00
1.7571783e+00
1.8505071e+00
2.0790709e+00
2.4441256e+00
2.9554267e+00
3.6244243e+00
4.4427752e+00
5.3690854e+00
6.3014539e+00
7.0264686e+00
7.1596822e+00
6.0417918e+00
2.5420910e+00
-2.4945368e+00
-5.9622585e+00
-7.0426609e+00
-6.8847872e+00
-6.1525868e+00
-5.2182928e+00
-4.2715320e+00
-3.3964980e+00
-2.6312611e+00
-2.0035617e+00
-1.5311048e+00
-1.2027949e+00
-9.7024606e-01
-7.7736071e-01
-6.0642081e-01
-4.7285921e-01
-3.8297677e-01
-3.2489021e-01
-2.8140473e-01
-2.3475634e-01
-1.8080125e-01
-1.3293118e-01
-1.0031786e-01
-7.9292944e-02
-5.4301504e-02
-1.6061452e-02
2.7587978e-02
7.5429336e-02
1.2434970e-01
1.5588792e-01
1.5545560e-01
1.3004092e-01
1.0396295e-01
9.2308973e-02
8.8093381e-02
7.7684360e-02
6.2689259e-02
5.8726529e-02
7.1102496e-02
8.6986959e-02
9.3387939e-02
9.1063946e-02
8.8628674e-02
8.8083150e-02
8.0827738e-02
6.1693152e-02
3.7620704e-02
1.2038755e-02
-1.9834213e-02
-5.8700984e-02
-9.8851813e-02
-1.2832787e-01
-1.4079318e-01
-1.4942886e-01
-1.6935105e-01
-1.9648974e-01
-2.1366972e-01
-2.0475058e-01
-1.6704380e-01
-1.2287477e-01
-9.8686150e-02
-9.6065300e-02
-9.9803784e-02
-9.1687100e-02
-6.3418608e-02
-2.1188227e-02
2.5400373e-02
6.1453097e-02
6.7488753e-02
4.1313264e-02
7.1287577e-03
-1.6427073e-02
