6.6938348e-03
-7.5368198e-03
-1.4824824e-02
-1.1215763e-02
3.4417541e-03
2.5710084e-02
4.9879761e-02
6.9794266e-02
8.0588391e-02
7.9945906e-02
6.8652405e-02
5.0325409e-02
3.0345257e-02
1.4234675e-02
5.9546092e-03
6.6508456e-03
1.4243647e-02
2.3995153e-02
2.9936058e-02
2.6805923e-02
1.1959011e-02
-1.3401726e-02
-4.4164419e-02
-7.2568430e-02
-9.0487129e-02
-9.2059935e-02
-7.5803740e-02
-4.5395832e-02
-8.7145246e-03
2.4598303e-02
4.6134464e-02
5.1130690e-02
3.9468868e-02
1.5052614e-02
-1.6092189e-02
-4.8291452e-02
-7.8405524e-02
-1.0686652e-01
-1.3697918e-01
-1.7245442e-01
-2.1386094e-01
-2.5525916e-01
-2.8249710e-01
-2.7443529e-01
-2.0771286e-01
-6.4555100e-02
1.5829036e-01
4.4261349e-01
7.4717923e-01
1.0136368e+00
1.1793165e+00
1.1933867e+00
1.0311763e+00
7.0197427e-01
2.4794102e-01
-2.6524392e-01
-7.6290722e-01
-1.1767803e+00
-1.4572129e+00
-1.5795542e+00
-1.5439909e+00
-1.3699324e+00
-1.0873167e+00
-7.2789070e-01
-3.1943587e-01
1.1517263e-01
5.5420208e-01
9.7093699e-01
1.3289148e+00
1.5820662e+00
1.6815524e+00
1.5883870e+00
1.2882235e+00
8.0292986e-01
1.9359484e-01
-4.4805330e-01
-1.0184641e+00
-1.4254314e+00
-1.6078241e+00
-1.5461414e+00
-1.2624853e+00
-8.1219483e-01
-2.7082861e-01
2.8015998e-01
7.6656579e-01
1.1315131e+00
1.3410502e+00
1.3846398e+00
1.2712358e+00
1.0229868e+00
6.6929953e-01
2.4355582e-01
-2.1679042e-01
-6.6816154e-01
-1.0599894e+00
-1.3383425e+00
-1.4554760e+00
-1.3834366e+00
-1.1266927e+00
-7.2751601e-01
-2.5969162e-01
1.8906915e-01
5.4013650e-01
7.4370970e-01
7.8836514e-01
6.9831773e-01
5.2114227e-01
3.1136827e-01
1.1556385e-01
-3.6974708e-02
-1.3611922e-01
-1.8605211e-01
-1.9642082e-01
-1.7348110e-01
-1.1509168e-01
-1.1905568e-02
1.4538535e-01
3.5552437e-01
5.9749640e-01
8.2756727e-01
9.8575293e-01
1.0114405e+00
8.6377388e-01
5.3942644e-01
8.0107482e-02
-4.3469593e-01
-9.0838041e-01
-1.2539689e+00
-1.4169721e+00
-1.3866654e+00
-1.1935035e+00
-8.9566567e-01
-5.6063056e-01
-2.4787416e-01
2.9122745e-03
1.7619319e-01
2.7806079e-01
3.2899764e-01
3.5480347e-01
3.7835001e-01
4.1401803e-01
4.6556492e-01
5.2707946e-01
5.8596435e-01
6.2674849e-01
6.3482978e-01
5.9964369e-01
5.1699020e-01
3.9026565e-01
2.3026129e-01
5.3276721e-02
-1.2223737e-01
-2.7958866e-01
-4.0694466e-01
-4.9852821e-01
-5.5369844e-01
-5.7467092e-01
-5.6412981e-01
-5.2385639e-01
-4.5490606e-01
-3.5910518e-01
-2.4103492e-01
-1.0946452e-01
2.2579941e-02
1.3942920e-01
2.2580388e-01
2.7050227e-01
2.6971736e-01
2.2899036e-01
1.6303063e-01
9.2989795e-02
4.1393815e-02
2.5836008e-02
5.3363459e-02
1.1769610e-01
2.0066074e-01
2.7764839e-01
3.2520580e-01
3.2796303e-01
2.8245583e-01
1.9676142e-01
8.6555300e-02
-3.0483921e-02
-1.3959695e-01
-2.3154694e-01
-3.0257279e-01
-3.5253156e-01
-3.8253794e-01
-3.9317514e-01
-3.8378967e-01
-3.5287293e-01
-2.9925172e-01
-2.2369859e-01
-1.3045427e-01
-2.7992504e-02
7.1631485e-02
1.5511862e-01
2.1151838e-01
2.3591992e-01
2.3169666e-01
2.1003637e-01
1.8651878e-01
1.7587233e-01
1.8697040e-01
2.2006001e-01
2.6722684e-01
3.1571951e-01
3.5258791e-01
3.6862137e-01
3.6000029e-01
3.2716753e-01
2.7167331e-01
1.9265926e-01
8.4907799e-02
-6.0106320e-02
-2.4982434e-01
-4.8389867e-01
-7.4740354e-01
-1.0068513e+00
-1.2117709e+00
-1.3034852e+00
-1.2305088e+00
-9.6697853e-01
-5.2778496e-01
2.6759683e-02
6.0129208e-01
1.0893680e+00
1.4028674e+00
1.4955565e+00
1.3722873e+00
1.0819345e+00
6.9855109e-01
2.9861236e-01
-5.7839389e-02
-3.3697717e-01
-5.3058100e-01
-6.4737364e-01
-7.0097678e-01
-6.9967445e-01
-6.4195340e-01
-5.1937591e-01
-3.2546628e-01
-6.6798303e-02
2.2879776e-01
5.1144079e-01
7.1795515e-01
7.8876492e-01
6.8799610e-01
4.1964471e-01
3.2809397e-02
-3.8788966e-01
-7.4491032e-01
-9.5571397e-01
-9.7566752e-01
-8.0794259e-01
-4.9820760e-01
-1.1770823e-01
2.5830406e-01
5.6952182e-01
7.8169097e-01
8.8787415e-01
9.0112869e-01
8.4239952e-01
7.2868718e-01
5.6617245e-01
3.5098153e-01
7.7207390e-02
-2.5129098e-01
-6.1069102e-01
-9.5384701e-01
-1.2167803e+00
-1.3344652e+00
-1.2615622e+00
-9.9092934e-01
-5.6215528e-01
-5.5071253e-02
4.3095562e-01
8.0466332e-01
1.0069659e+00
1.0230621e+00
8.7991214e-01
6.3215542e-01
3.4289457e-01
6.6269857e-02
-1.6302323e-01
-3.3122746e-01
-4.3930666e-01
-4.9281977e-01
-4.9276065e-01
-4.3162368e-01
-2.9677918e-01
-8.0094961e-02
2.1025970e-01
5.4142959e-01
8.5577197e-01
1.0810705e+00
1.1492205e+00
1.0179621e+00
6.8813919e-01
2.0929045e-01
-3.3025778e-01
-8.2668252e-01
-1.1891753e+00
-1.3630606e+00
-1.3398112e+00
-1.1524073e+00
-8.6005747e-01
-5.2895180e-01
-2.1544026e-01
4.4152577e-02
2.3579430e-01
3.6347668e-01
4.4142413e-01
4.8607883e-01
5.1034215e-01
5.2115130e-01
5.2005664e-01
5.0551951e-01
4.7544574e-01
4.2892071e-01
3.6681614e-01
2.9149388e-01
2.0608532e-01
1.1381818e-01
1.7680862e-02
-7.9522235e-02
-1.7482993e-01
-2.6465613e-01
-3.4438143e-01
-4.0825369e-01
-4.4986288e-01
-4.6328198e-01
-4.4460861e-01
-3.9335391e-01
-3.1315353e-01
-2.1156440e-01
-9.8996421e-02
1.2983237e-02
1.1355611e-01
1.9424155e-01
2.4980582e-01
2.7851676e-01
2.8200525e-01
2.6485911e-01
2.3383595e-01
1.9661734e-01
1.6030368e-01
1.3003872e-01
1.0811617e-01
9.3776370e-02
8.3750079e-02
7.3408525e-02
5.8149966e-02
3.4578033e-02
1.2248202e-03
-4.1151483e-02
-8.9609122e-02
-1.3948290e-01
-1.8540098e-01
-2.2273767e-01
-2.4896785e-01
-2.6419977e-01
-2.7042703e-01
-2.6968067e-01
-2.6194523e-01
-2.4401288e-01
-2.1015081e-01
-1.5464637e-01
-7.5320699e-02
2.3587920e-02
1.3077951e-01
2.3028245e-01
3.0629792e-01
3.4860222e-01
3.5609424e-01
3.3678734e-01
3.0421027e-01
2.7187827e-01
2.4827968e-01
2.3440995e-01
2.2466370e-01
2.1046326e-01
1.8488676e-01
1.4617310e-01
9.8488017e-02
4.9520075e-02
5.8293455e-03
-3.2137740e-02
-7.3132103e-02
-1.3443492e-01
-2.3661166e-01
-3.9442585e-01
-6.0647519e-01
-8.4752533e-01
-1.0676884e+00
-1.2010433e+00
-1.1831902e+00
-9.7336738e-01
-5.7352284e-01
-3.5936939e-02
5.4589345e-01
1.0617178e+00
1.4157606e+00
1.5528082e+00
1.4699545e+00
1.2115434e+00
8.5141966e-01
4.7008979e-01
1.3434908e-01
-1.1545908e-01
-2.6867138e-01
-3.3917148e-01
-3.5510758e-01
-3.4739277e-01
-3.4036637e-01
-3.4665005e-01
-3.6669538e-01
-3.9217343e-01
-4.1138416e-01
-4.1447492e-01
-3.9665651e-01
-3.5868143e-01
-3.0507946e-01
-2.4142815e-01
-1.7201298e-01
-9.8775384e-02
-2.1786144e-02
5.9144960e-02
1.4256000e-01
2.2411571e-01
2.9672038e-01
3.5213715e-01
3.8345135e-01
3.8736261e-01
3.6531282e-01
3.2296163e-01
2.6821174e-01
2.0856886e-01
1.4890748e-01
9.0608625e-02
3.2489642e-02
-2.6918753e-02
-8.6942973e-02
-1.4350762e-01
-1.8976002e-01
-2.1832705e-01
-2.2419171e-01
-2.0696180e-01
-1.7161300e-01
-1.2737612e-01
-8.5095188e-02
-5.3967449e-02
-3.8882675e-02
-3.9396355e-02
-5.0723356e-02
-6.6321195e-02
-8.0989035e-02
-9.3155436e-02
-1.0527200e-01
-1.2195566e-01
-1.4648237e-01
-1.7700450e-01
-2.0410257e-01
-2.1093726e-01
-1.7654035e-01
-8.1931283e-02
8.2106619e-02
3.0760511e-01
5.6505429e-01
8.0486482e-01
9.6623614e-01
9.9259656e-01
8.4983398e-01
5.4125355e-01
1.1282600e-01
-3.5522685e-01
-7.6927558e-01
-1.0485663e+00
-1.1470609e+00
-1.0629519e+00
-8.3358416e-01
-5.1942295e-01
-1.8416589e-01
1.2177892e-01
3.6971047e-01
5.5182530e-01
6.7335738e-01
7.4190047e-01
7.5860117e-01
7.1484237e-01
5.9585075e-01
3.9002229e-01
1.0043776e-01
-2.4626410e-01
-5.9825358e-01
-8.8672317e-01
-1.0431107e+00
-1.0206029e+00
-8.1236415e-01
-4.5871098e-01
-3.8697196e-02
3.5227716e-01
6.3079790e-01
7.4873963e-01
7.0312792e-01
5.3048289e-01
2.8985547e-01
4.2187520e-02
-1.6645973e-01
-3.1298677e-01
-3.9568686e-01
-4.2555315e-01
-4.1504336e-01
-3.6914356e-01
-2.8224665e-01
-1.4199299e-01
6.1450972e-02
3.2436326e-01
6.2132334e-01
9.0398756e-01
1.1088138e+00
1.1728824e+00
1.0538283e+00
7.4735442e-01
2.9506725e-01
-2.2227022e-01
-7.0544238e-01
-1.0644287e+00
-1.2425921e+00
-1.2288876e+00
-1.0552795e+00
-7.8245630e-01
-4.8026758e-01
-2.0950290e-01
-9.6467603e-03
1.0554576e-01
1.4532985e-01
1.3442239e-01
1.0352037e-01
8.0511692e-02
8.4233890e-02
1.2164720e-01
1.8829585e-01
2.7119031e-01
3.5295954e-01
4.1625381e-01
4.4765284e-01
4.4050142e-01
3.9615202e-01
3.2324813e-01
2.3510307e-01
1.4585937e-01
6.6668034e-02
3.2360465e-03
-4.4417228e-02
-8.0060402e-02
-1.0810505e-01
-1.3052143e-01
-1.4507856e-01
-1.4582682e-01
-1.2611948e-01
-8.3489867e-02
-2.4563660e-02
3.2485286e-02
6.0047213e-02
2.8401448e-02
-8.3154939e-02
-2.7472587e-01
-5.1828408e-01
-7.5841258e-01
-9.2341775e-01
-9.4521234e-01
-7.8235449e-01
-4.3808088e-01
3.4449752e-02
5.4357780e-01
9.8448511e-01
1.2692723e+00
1.3502584e+00
1.2285104e+00
9.4659014e-01
5.7066783e-01
1.6985353e-01
-2.0018299e-01
-5.0514928e-01
-7.3104139e-01
-8.7654553e-01
-9.4331614e-01
-9.2875415e-01
-8.2455318e-01
-6.2183617e-01
-3.2096767e-01
5.8059726e-02
4.6967692e-01
8.4539656e-01
1.1066093e+00
1.1852267e+00
1.0461445e+00
7.0339294e-01
2.2260758e-01
-2.9341777e-01
-7.3265542e-01
-1.0054525e+00
-1.0679179e+00
-9.2904028e-01
-6.4088370e-01
-2.7772615e-01
8.7119650e-02
3.9894593e-01
6.2918732e-01
7.7243104e-01
8.3611544e-01
8.2827680e-01
7.4884600e-01
5.8826913e-01
3.3429080e-01
-1.5530352e-02
-4.4068762e-01
-8.9022806e-01
-1.2859571e+00
-1.5378756e+00
-1.5686160e+00
-1.3394785e+00
-8.6872856e-01
-2.3408941e-01
4.4387382e-01
1.0334307e+00
1.4274868e+00
1.5703239e+00
1.4663480e+00
1.1700143e+00
7.6327594e-01
3.3007269e-01
-6.3632863e-02
-3.7945555e-01
-6.0542542e-01
-7.4717631e-01
-8.1631542e-01
-8.2071161e-01
-7.6004006e-01
-6.2779785e-01
-4.1868016e-01
-1.3823127e-01
1.8937138e-01
5.1927656e-01
7.9189914e-01
9.4641318e-01
9.3837459e-01
7.5568360e-01
4.2649704e-01
1.4844784e-02
-3.9553507e-01
-7.2339647e-01
-9.1001408e-01
-9.3064324e-01
-7.9538433e-01
-5.4141379e-01
-2.2060253e-01
1.1322016e-01
4.1404798e-01
6.4880930e-01
7.9783970e-01
8.5215763e-01
8.0971227e-01
6.7274347e-01
4.4771841e-01
1.4811180e-01
-2.0123959e-01
-5.6087056e-01
-8.7767869e-01
-1.0923710e+00
-1.1531326e+00
-1.0321420e+00
-7.3897737e-01
-3.2440870e-01
1.2931989e-01
5.3007092e-01
8.0167285e-01
9.0396654e-01
8.3976870e-01
6.4770101e-01
3.8558653e-01
1.1176098e-01
-1.2915239e-01
-3.1245828e-01
-4.3153054e-01
-4.9045697e-01
-4.9505453e-01
-4.4610658e-01
-3.3757418e-01
-1.6064945e-01
8.7679069e-02
3.9478654e-01
7.2556713e-01
1.0225809e+00
1.2154116e+00
1.2383631e+00
1.0519813e+00
6.6104203e-01
1.2115540e-01
-4.7083346e-01
-1.0012641e+00
-1.3707961e+00
-1.5208576e+00
-1.4462526e+00
-1.1909461e+00
-8.3048827e-01
-4.4843897e-01
-1.1469439e-01
1.2852434e-01
2.7068158e-01
3.2788705e-01
3.3197127e-01
3.1769696e-01
3.1182695e-01
3.2671128e-01
3.5957320e-01
3.9701368e-01
4.2272521e-01
4.2542353e-01
4.0397084e-01
3.6774358e-01
3.3220510e-01
3.1161357e-01
3.1194612e-01
3.2696733e-01
3.3903814e-01
3.2435368e-01
2.6063933e-01
1.3461158e-01
-5.3080767e-02
-2.8657284e-01
-5.3709659e-01
-7.6807034e-01
-9.4184030e-01
-1.0268770e+00
-1.0042593e+00
-8.7235526e-01
-6.4866375e-01
-3.6788072e-01
-7.5745642e-02
1.8064298e-01
3.6387417e-01
4.5548076e-01
4.6043079e-01
4.0514292e-01
3.2913363e-01
2.7236834e-01
2.6214821e-01
3.0420054e-01
3.8163233e-01
4.6234720e-01
5.1172598e-01
5.0511273e-01
4.3529118e-01
3.1291940e-01
1.6090649e-01
5.6461945e-03
-1.3140053e-01
-2.3890071e-01
-3.1629470e-01
-3.7046249e-01
-4.1039244e-01
-4.4219006e-01
-4.6615288e-01
-4.7659139e-01
-4.6411260e-01
-4.1942996e-01
-3.3741698e-01
-2.2006292e-01
-7.7297811e-02
7.4636620e-02
2.1669145e-01
3.3113664e-01
4.0497973e-01
4.3188448e-01
4.1255516e-01
3.5404673e-01
2.6846073e-01
1.7112573e-01
7.8055357e-02
2.6385359e-03
-4.7822619e-02
-7.4415959e-02
-8.6343587e-02
-9.7422385e-02
-1.2012939e-01
-1.5933862e-01
-2.0846404e-01
-2.5006007e-01
-2.6126344e-01
-2.2250393e-01
-1.2642789e-01
1.6480636e-02
1.7825187e-01
3.2038940e-01
4.0549345e-01
4.0954367e-01
3.3025395e-01
1.8817268e-01
1.9921595e-02
-1.3384531e-01
-2.4094322e-01
-2.8582265e-01
-2.7100885e-01
-2.1267527e-01
-1.3331369e-01
-5.4601460e-02
7.5910764e-03
4.5434873e-02
5.8859778e-02
5.3394015e-02
3.6979155e-02
1.6821868e-02
-2.5924310e-03
-1.9604229e-02
-3.3840377e-02
-4.4300937e-02
-4.8647419e-02
-4.4413909e-02
-3.1341153e-02
-1.2993521e-02
3.8734110e-03
1.2222798e-02
8.3185428e-03
-6.1678960e-03
-2.4672904e-02
-3.8290550e-02
-3.8751753e-02
-2.0605421e-02
1.7610216e-02
7.2971925e-02
1.3866307e-01
2.0568995e-01
2.6548963e-01
3.1201385e-01
3.4171827e-01
3.5128848e-01
3.3489970e-01
2.8355617e-01
1.8780628e-01
4.2873752e-02
-1.4625551e-01
-3.6211880e-01
-5.7557390e-01
-7.5013186e-01
-8.4925015e-01
-8.4545326e-01
-7.2914412e-01
-5.1395236e-01
-2.3564675e-01
5.6202728e-02
3.1132394e-01
4.9178164e-01
5.8032760e-01
5.8178722e-01
5.1808486e-01
4.1950334e-01
3.1540026e-01
2.2708528e-01
1.6439945e-01
1.2622504e-01
1.0404207e-01
8.6920925e-02
6.6114800e-02
3.7776670e-02
3.1903373e-03
-3.3068486e-02
-6.5890064e-02
-9.1996738e-02
-1.1100607e-01
-1.2499780e-01
-1.3708856e-01
-1.4986153e-01
-1.6433864e-01
-1.7971137e-01
-1.9366766e-01
-2.0308481e-01
-2.0495081e-01
-1.9735861e-01
-1.8027231e-01
-1.5571337e-01
-1.2719648e-01
-9.8555639e-02
-7.2543933e-02
-4.9656495e-02
-2.7534282e-02
-1.1504090e-03
3.6156345e-02
9.0858530e-02
1.6685763e-01
2.6302307e-01
3.7138017e-01
4.7675897e-01
5.5851616e-01
5.9444664e-01
5.6629820e-01
4.6556533e-01
2.9771353e-01
8.2984291e-02
-1.4724363e-01
-3.5790479e-01
-5.1905212e-01
-6.1271945e-01
-6.3539260e-01
-5.9572189e-01
-5.0919100e-01
-3.9246149e-01
-2.5970085e-01
-1.2179643e-01
1.2211774e-02
1.3310972e-01
2.3052131e-01
2.9375487e-01
3.1419507e-01
2.8820034e-01
2.1936011e-01
1.1933797e-01
6.9516626e-03
-9.4609707e-02
-1.6227799e-01
-1.7862292e-01
-1.3699806e-01
-4.4518831e-02
7.8601312e-02
2.0375279e-01
3.0154181e-01
3.4983230e-01
3.3936152e-01
2.7506387e-01
1.7307315e-01
5.5000185e-02
-5.8244058e-02
-1.5114685e-01
-2.1580381e-01
-2.5162612e-01
-2.6325046e-01
-2.5767225e-01
-2.4156085e-01
-2.1941828e-01
-1.9288182e-01
-1.6114109e-01
-1.2217137e-01
-7.4311695e-02
-1.7672925e-02
4.5056577e-02
1.0865190e-01
1.6622794e-01
2.1070796e-01
2.3651275e-01
2.4105283e-01
2.2558847e-01
1.9508152e-01
1.5690748e-01
1.1869844e-01
8.5957650e-02
6.0244200e-02
3.8620733e-02
1.4711938e-02
-1.8796793e-02
-6.6943204e-02
-1.2965404e-01
-2.0041165e-01
-2.6712245e-01
-3.1511369e-01
-3.3134341e-01
-3.0840531e-01
-2.4699197e-01
-1.5604915e-01
-5.0613206e-02
5.1993094e-02
1.3647099e-01
1.9308768e-01
2.1942443e-01
2.1989761e-01
2.0335317e-01
1.7965910e-01
1.5653284e-01
1.3769972e-01
1.2286274e-01
1.0912745e-01
9.2944534e-02
7.1642171e-02
4.4117678e-02
1.0822229e-02
-2.6555796e-02
-6.5395774e-02
-1.0239218e-01
-1.3388735e-01
-1.5642271e-01
-1.6747895e-01
-1.6618399e-01
-1.5367508e-01
-1.3287976e-01
-1.0770709e-01
-8.1909659e-02
-5.8046305e-02
-3.6934487e-02
-1.7746375e-02
1.3640754e-03
2.2358290e-02
4.6400613e-02
7.3175946e-02
1.0064978e-01
1.2540077e-01
1.4348637e-01
1.5159964e-01
1.4814070e-01
1.3382691e-01
1.1160528e-01
8.5861872e-02
6.1167714e-02
4.0959440e-02
2.6549732e-02
1.6730797e-02
8.0763586e-03
-4.0920868e-03
-2.4262610e-02
-5.5163686e-02
-9.6513179e-02
-1.4449037e-01
-1.9215166e-01
-2.3073728e-01
-2.5156330e-01
-2.4805266e-01
-2.1743602e-01
-1.6170123e-01
-8.7484959e-02
-4.8219266e-03
7.5001478e-02
1.4190337e-01
1.8901516e-01
2.1363801e-01
2.1700347e-01
2.0320557e-01
1.7788990e-01
1.4710567e-01
1.1638522e-01
8.9931102e-02
6.9878500e-02
5.5826148e-02
4.4964322e-02
3.3011668e-02
1.5824500e-02
-8.8457076e-03
-4.0163949e-02
-7.4171194e-02
-1.0503209e-01
-1.2715781e-01
-1.3737256e-01
-1.3621050e-01
-1.2774615e-01
-1.1795631e-01
-1.1224167e-01
-1.1313193e-01
-1.1917084e-01
-1.2549227e-01
-1.2583609e-01
-1.1507713e-01
-9.1136016e-02
-5.5523284e-02
-1.2451757e-02
3.2991719e-02
7.6887595e-02
1.1799476e-01
1.5808938e-01
2.0078207e-01
2.4902725e-01
3.0219006e-01
3.5391595e-01
3.9193548e-01
4.0037034e-01
3.6424745e-01
2.7497563e-01
1.3481497e-01
-4.1639995e-02
-2.2990690e-01
-4.0123047e-01
-5.2927717e-01
-5.9569027e-01
-5.9317342e-01
-5.2585588e-01
-4.0739962e-01
-2.5761059e-01
-9.8411994e-02
4.9973382e-02
1.7191389e-01
2.5787055e-01
3.0442257e-01
3.1317469e-01
2.8922914e-01
2.3988867e-01
1.7391677e-01
1.0125293e-01
3.2755391e-02
-2.0597895e-02
-4.9473337e-02
-4.8796246e-02
-2.0299454e-02
2.6488408e-02
7.6042562e-02
1.1137599e-01
1.1965403e-01
9.6460151e-02
4.6905717e-02
-1.6684059e-02
-7.9307443e-02
-1.2813912e-01
-1.5597780e-01
-1.6236989e-01
-1.5243570e-01
-1.3411782e-01
-1.1490813e-01
-9.9164628e-02
-8.6907180e-02
-7.4442648e-02
-5.6459373e-02
-2.8679124e-02
9.9776866e-03
5.6483940e-02
1.0434501e-01
1.4555783e-01
1.7319771e-01
1.8366209e-01
1.7769332e-01
1.5979856e-01
1.3633609e-01
1.1300177e-01
9.2589727e-02
7.3804319e-02
5.1653492e-02
1.9519111e-02
-2.7638813e-02
-9.0121584e-02
-1.6179076e-01
-2.3080115e-01
-2.8273178e-01
-3.0499952e-01
-2.9086780e-01
-2.4156262e-01
-1.6581567e-01
-7.7156212e-02
9.9357633e-03
8.3610860e-02
1.3686914e-01
1.6803175e-01
1.7976409e-01
1.7728045e-01
1.6637189e-01
1.5179183e-01
1.3637775e-01
1.2102777e-01
1.0530662e-01
8.8221198e-02
6.8791770e-02
4.6390037e-02
2.1050288e-02
-6.1822130e-03
-3.3129786e-02
-5.6922908e-02
-7.4985974e-02
-8.6088008e-02
-9.0853461e-02
-9.1461807e-02
-9.0752147e-02
-9.1207144e-02
-9.4208372e-02
-9.9704165e-02
-1.0623831e-01
-1.1123845e-01
-1.1148077e-01
-1.0364951e-01
-8.4917256e-02
-5.3518217e-02
-9.3158609e-03
4.5677280e-02
1.0695742e-01
1.6756495e-01
2.1871101e-01
2.5112128e-01
2.5699038e-01
2.3210561e-01
1.7744465e-01
9.9603950e-02
9.8172551e-03
-7.8149558e-02
-1.5061450e-01
-1.9649626e-01
-2.0931817e-01
-1.8844202e-01
-1.3929519e-01
-7.2381372e-02
-1.1029472e-03
6.1153287e-02
1.0388285e-01
1.2148156e-01
1.1389536e-01
8.5810439e-02
4.4721952e-02
-1.4456626e-03
-4.6340710e-02
-8.6120916e-02
-1.1910796e-01
-1.4454286e-01
-1.6119277e-01
-1.6652978e-01
-1.5691426e-01
-1.2883853e-01
-8.0852133e-02
-1.5373903e-02
6.0551865e-02
1.3615406e-01
1.9935850e-01
2.3991474e-01
2.5212464e-01
2.3625301e-01
1.9816391e-01
1.4730407e-01
9.3733269e-02
4.5283294e-02
5.8553480e-03
-2.4704099e-02
-4.9438039e-02
-7.2539775e-02
-9.7712525e-02
-1.2698166e-01
-1.6000752e-01
-1.9383071e-01
-2.2306647e-01
-2.4069805e-01
-2.3958121e-01
-2.1447782e-01
-1.6403357e-01
-9.1894232e-02
-6.3556797e-03
8.1458058e-02
1.6023853e-01
2.2101714e-01
2.5882588e-01
2.7319955e-01
2.6759873e-01
2.4799060e-01
2.2086555e-01
1.9108355e-01
1.6016444e-01
1.2574226e-01
8.2624291e-02
2.5258085e-02
-4.9224183e-02
-1.3849085e-01
-2.3399608e-01
-3.2201681e-01
-3.8668168e-01
-4.1420915e-01
-3.9696999e-01
-3.3588043e-01
-2.4022129e-01
-1.2501346e-01
-7.0059185e-03
9.9267479e-02
1.8409898e-01
2.4326736e-01
2.7697204e-01
2.8794190e-01
2.7977924e-01
2.5617806e-01
2.2097964e-01
1.7855759e-01
1.3397410e-01
9.2596743e-02
5.9187061e-02
3.6732219e-02
2.5436668e-02
2.2299152e-02
2.1549310e-02
1.5926062e-02
-1.5280879e-03
-3.5627747e-02
-8.7586282e-02
-1.5429119e-01
-2.2864283e-01
-3.0112860e-01
-3.6231596e-01
-4.0531119e-01
-4.2697238e-01
-4.2714864e-01
-4.0624234e-01
-3.6235818e-01
-2.8968303e-01
-1.7937478e-01
-2.3296793e-02
1.8027083e-01
4.2091123e-01
6.7287017e-01
8.9655383e-01
1.0456049e+00
1.0785348e+00
9.7191620e-01
7.3069737e-01
3.9104734e-01
1.3068177e-02
-3.3529176e-01
-5.9745865e-01
-7.4306587e-01
-7.7295053e-01
-7.1349855e-01
-6.0386731e-01
-4.8169251e-01
-3.7241655e-01
-2.8517779e-01
-2.1540271e-01
-1.5185404e-01
-8.4633811e-02
-1.0835407e-02
6.4053489e-02
1.2896926e-01
1.7263422e-01
1.8896105e-01
1.8019930e-01
1.5660960e-01
1.3294067e-01
1.2319044e-01
1.3559614e-01
1.6957056e-01
2.1567764e-01
2.5882422e-01
2.8363824e-01
2.7990787e-01
2.4577468e-01
1.8748101e-01
1.1620024e-01
4.3683248e-02
-2.1432492e-02
-7.5494434e-02
-1.1963143e-01
-1.5794323e-01
-1.9495335e-01
-2.3325098e-01
-2.7204073e-01
-3.0699036e-01
-3.3139097e-01
-3.3824595e-01
-3.2257292e-01
-2.8309289e-01
-2.2271365e-01
-1.4771454e-01
-6.6026359e-02
1.4763464e-02
8.9050645e-02
1.5401284e-01
2.0936941e-01
2.5631079e-01
2.9613309e-01
3.2915609e-01
3.5429662e-01
3.6941483e-01
3.7231528e-01
3.6198354e-01
3.3934552e-01
3.0686341e-01
2.6680942e-01
2.1884926e-01
1.5816921e-01
7.5472944e-02
-4.0353000e-02
-1.9715888e-01
-3.9350081e-01
-6.1393381e-01
-8.2790435e-01
-9.9366876e-01
-1.0671900e+00
-1.0142126e+00
-8.2214259e-01
-5.0757277e-01
-1.1592690e-01
2.8796055e-01
6.3598368e-01
8.7420092e-01
9.7543734e-01
9.4316171e-01
8.0647819e-01
6.0916676e-01
3.9701042e-01
2.0723075e-01
6.2361605e-02
-3.0906622e-02
-7.8820875e-02
-9.5270650e-02
-9.5949149e-02
-9.3603641e-02
-9.5490495e-02
-1.0334101e-01
-1.1524053e-01
-1.2821393e-01
-1.4028873e-01
-1.5131748e-01
-1.6254488e-01
-1.7543251e-01
-1.9040898e-01
-2.0603654e-01
-2.1880638e-01
-2.2359659e-01
-2.1475775e-01
-1.8772027e-01
-1.4087647e-01
-7.7283108e-02
-5.5041717e-03
6.1167384e-02
1.0754748e-01
1.2109507e-01
9.6853139e-02
4.1030743e-02
-2.8285066e-02
-8.4006458e-02
-9.6282047e-02
-4.0981610e-02
9.1469037e-02
2.8940943e-01
5.1805072e-01
7.2424362e-01
8.4807119e-01
8.3912695e-01
6.7314053e-01
3.6335099e-01
-3.8449391e-02
-4.5339536e-01
-7.9693016e-01
-1.0027780e+00
-1.0405482e+00
-9.2075938e-01
-6.8661215e-01
-3.9703535e-01
-1.0813534e-01
1.4034522e-01
3.2988483e-01
4.5956649e-01
5.3733050e-01
5.7065041e-01
5.6043988e-01
5.0017617e-01
3.8024378e-01
1.9578474e-01
-4.4942569e-02
-3.1523899e-01
-5.7064742e-01
-7.5686873e-01
-8.2365005e-01
-7.4089810e-01
-5.1157899e-01
-1.7588291e-01
1.9661635e-01
5.2555305e-01
7.4285336e-01
8.1159247e-01
7.3380488e-01
5.4547625e-01
3.0208674e-01
6.0923466e-02
-1.3367206e-01
-2.5817513e-01
-3.1003155e-01
-3.0200063e-01
-2.5408767e-01
-1.8640447e-01
-1.1498061e-01
-5.0732929e-02
-3.6682920e-04
3.2447196e-02
4.6662729e-02
4.4158742e-02
2.9927216e-02
1.1332487e-02
-3.7382146e-03
-9.2890091e-03
-3.2670692e-03
1.1598684e-02
2.8583998e-02
3.9183519e-02
3.6012650e-02
1.5403012e-02
-2.1171466e-02
-6.7271176e-02
-1.1317120e-01
-1.4849749e-01
-1.6501137e-01
-1.5869970e-01
-1.3053720e-01
-8.5737473e-02
-3.1872211e-02
2.3339501e-02
7.3723331e-02
1.1533699e-01
1.4621297e-01
1.6561091e-01
1.7330813e-01
1.6929459e-01
1.5397864e-01
1.2871909e-01
9.6260329e-02
6.0629037e-02
2.6355535e-02
-2.6551401e-03
-2.4036461e-02
-3.7281386e-02
-4.3507476e-02
-4.4957845e-02
-4.4484324e-02
-4.5075309e-02
-4.9376086e-02
-5.9159317e-02
-7.4785273e-02
-9.4804063e-02
-1.1594862e-01
-1.3372708e-01
-1.4355583e-01
-1.4201593e-01
-1.2767808e-01
-1.0118787e-01
-6.4752212e-02
-2.1467421e-02
2.5125113e-02
7.1187996e-02
1.1266680e-01
1.4556875e-01
1.6653487e-01
1.7358667e-01
1.6679694e-01
1.4858056e-01
1.2332767e-01
9.6282549e-02
7.1922824e-02
5.2434340e-02
3.6944862e-02
2.1903169e-02
2.5354785e-03
-2.5092389e-02
-6.2097473e-02
-1.0557710e-01
-1.4866665e-01
-1.8197525e-01
-1.9607397e-01
-1.8433021e-01
-1.4520999e-01
-8.3291346e-02
-8.6134662e-03
6.5515068e-02
1.2567913e-01
1.6163415e-01
1.6876752e-01
1.4900401e-01
1.0987299e-01
6.2042762e-02
1.6100687e-02
-2.0441499e-02
-4.5030146e-02
-6.0304509e-02
-7.2675735e-02
-8.9754794e-02
-1.1741369e-01
-1.5723878e-01
-2.0493894e-01
-2.5008667e-01
-2.7742644e-01
-2.6976652e-01
-2.1212194e-01
-9.6403047e-02
7.4311039e-02
2.8299451e-01
4.9852445e-01
6.7919411e-01
7.8038430e-01
7.6565135e-01
6.1874627e-01
3.5254914e-01
1.0614954e-02
-3.4115261e-01
-6.3134095e-01
-8.0287580e-01
-8.2853848e-01
-7.1662711e-01
-5.0547571e-01
-2.4973979e-01
-3.7852380e-03
1.9224339e-01
3.1970155e-01
3.8081831e-01
3.9173156e-01
3.7262261e-01
3.3878620e-01
2.9557088e-01
2.3845408e-01
1.5764573e-01
4.5110777e-02
-9.8775122e-02
-2.6142689e-01
-4.1857490e-01
-5.3924982e-01
-5.9402424e-01
-5.6411179e-01
-4.4820811e-01
-2.6432187e-01
-4.5576782e-02
1.6860513e-01
3.4276932e-01
4.5378602e-01
4.9505245e-01
4.7584265e-01
4.1653009e-01
3.4148891e-01
2.7196432e-01
2.2088092e-01
1.9062776e-01
1.7385851e-01
1.5666403e-01
1.2312739e-01
6.0153761e-02
-3.8417659e-02
-1.6908116e-01
-3.1768339e-01
-4.6059444e-01
-5.6858894e-01
-6.1361862e-01
-5.7736077e-01
-4.5877777e-01
-2.7720905e-01
-6.8717772e-02
1.2371528e-01
2.6257679e-01
3.2600044e-01
3.1222194e-01
2.3750360e-01
1.2921018e-01
1.6991856e-02
-7.4977359e-02
-1.3265079e-01
-1.5287009e-01
-1.4068829e-01
-1.0464138e-01
-5.1862952e-02
1.5077271e-02
9.8320682e-02
2.0165719e-01
3.2537752e-01
4.6123026e-01
5.8997094e-01
6.8326730e-01
7.1015879e-01
6.4639823e-01
4.8351826e-01
2.3402675e-01
-6.9790290e-02
-3.8346911e-01
-6.6150823e-01
-8.6770690e-01
-9.8128696e-01
-9.9789204e-01
-9.2679976e-01
-7.8646580e-01
-6.0000495e-01
-3.9131989e-01
-1.8201803e-01
1.0898258e-02
1.7652913e-01
3.1059075e-01
4.1469382e-01
4.9431947e-01
5.5589243e-01
6.0378005e-01
6.3810039e-01
6.5395802e-01
6.4243964e-01
5.9344113e-01
4.9988749e-01
3.6207027e-01
1.9018204e-01
3.4504513e-03
-1.7424509e-01
-3.2060459e-01
-4.2048461e-01
-4.6891033e-01
-4.7095942e-01
-4.3911614e-01
-3.8927682e-01
-3.3666820e-01
-2.9266113e-01
-2.6297704e-01
-2.4731811e-01
-2.4017051e-01
-2.3244780e-01
-2.1369513e-01
-1.7464382e-01
-1.0983825e-01
-1.9828620e-02
8.7783661e-02
1.9911206e-01
2.9682651e-01
3.6464477e-01
3.9225728e-01
3.7892287e-01
3.3410372e-01
2.7453844e-01
2.1873074e-01
1.8105895e-01
1.6778200e-01
1.7616114e-01
1.9654260e-01
2.1628695e-01
2.2403968e-01
2.1289680e-01
1.8148055e-01
1.3270811e-01
7.0848447e-02
-1.9485444e-03
-8.8203118e-02
-1.9534893e-01
-3.3274980e-01
-5.0562139e-01
-7.0753696e-01
-9.1463609e-01
-1.0850846e+00
-1.1661371e+00
-1.1084375e+00
-8.8381608e-01
-5.0018599e-01
-6.6703075e-03
5.1515807e-01
9.7241736e-01
1.2869387e+00
1.4160284e+00
1.3604654e+00
1.1583382e+00
8.6909502e-01
5.5489950e-01
2.6566597e-01
3.1275046e-02
-1.3879669e-01
-2.5053360e-01
-3.1816618e-01
-3.5744764e-01
-3.8113835e-01
-3.9713806e-01
-4.0869936e-01
-4.1572064e-01
-4.1623860e-01
-4.0763392e-01
-3.8740969e-01
-3.5359296e-01
-3.0492744e-01
-2.4110730e-01
-1.6325562e-01
-7.4613052e-02
1.8917552e-02
1.0890850e-01
1.8562723e-01
2.4026815e-01
2.6754151e-01
2.6761571e-01
2.4653767e-01
2.1481839e-01
1.8456140e-01
1.6599980e-01
1.6445794e-01
1.7862067e-01
2.0066271e-01
2.1832785e-01
2.1851652e-01
1.9142770e-01
1.3395805e-01
5.1128037e-02
-4.5065742e-02
-1.3898570e-01
-2.1566579e-01
-2.6464694e-01
-2.8221815e-01
-2.7158523e-01
-2.4115510e-01
-2.0163877e-01
-1.6294162e-01
-1.3179606e-01
-1.1081998e-01
-9.9182930e-02
-9.4429233e-02
-9.4481066e-02
-9.8720999e-02
-1.0747469e-01
-1.2004044e-01
-1.3225755e-01
-1.3501650e-01
-1.1484430e-01
-5.6896849e-02
5.0209580e-02
2.0892848e-01
4.0818493e-01
6.2127923e-01
8.0783005e-01
9.2068160e-01
9.1729094e-01
7.7310749e-01
4.9263563e-01
1.1335344e-01
-3.0061013e-01
-6.7421664e-01
-9.4147619e-01
-1.0622810e+00
-1.0303360e+00
-8.7053078e-01
-6.2823731e-01
-3.5531278e-01
-9.7577796e-02
1.1314962e-01
2.6162029e-01
3.4723672e-01
3.7944619e-01
3.7238233e-01
3.4035902e-01
2.9513628e-01
2.4504473e-01
1.9543619e-01
1.4973076e-01
1.1040734e-01
7.9417127e-02
5.7724489e-02
4.4163538e-02
3.4438563e-02
2.1396772e-02
-2.8061503e-03
-4.3203551e-02
-9.8794661e-02
-1.6136643e-01
-2.1723639e-01
-2.5145056e-01
-2.5291351e-01
-2.1853712e-01
-1.5479603e-01
-7.5979950e-02
2.9915788e-04
5.8669563e-02
9.0585032e-02
9.6443026e-02
8.4802113e-02
6.9183543e-02
6.3466134e-02
7.7173438e-02
1.1208020e-01
1.6129722e-01
2.1119636e-01
2.4552719e-01
2.5036206e-01
2.1832249e-01
1.5079683e-01
5.7439122e-02
-4.6873943e-02
-1.4645218e-01
-2.2881733e-01
-2.8691112e-01
-3.1909078e-01
-3.2756538e-01
-3.1637342e-01
-2.8978025e-01
-2.5144718e-01
-2.0426873e-01
-1.5053461e-01
-9.2040334e-02
-2.9959856e-02
3.5333636e-02
1.0402577e-01
1.7587960e-01
2.4877628e-01
3.1755599e-01
3.7394334e-01
4.0787874e-01
4.1002137e-01
3.7478052e-01
3.0294782e-01
2.0284714e-01
8.9148070e-02
-2.0669825e-02
-1.1107025e-01
-1.7262405e-01
-2.0405857e-01
-2.1161395e-01
-2.0609474e-01
-1.9865723e-01
-1.9672245e-01
-2.0143951e-01
-2.0770747e-01
-2.0686816e-01
-1.9107724e-01
-1.5755526e-01
-1.1085826e-01
-6.2045817e-02
-2.4809203e-02
-9.8203206e-03
-1.9452339e-02
-4.5247891e-02
-6.9691023e-02
-7.2065441e-02
-3.6288624e-02
4.2357763e-02
1.5429587e-01
2.7779053e-01
3.8553127e-01
4.5323863e-01
4.6696778e-01
4.2639310e-01
3.4326814e-01
2.3633873e-01
1.2508459e-01
2.4473939e-02
-5.7976575e-02
-1.2244206e-01
-1.7464101e-01
-2.2221864e-01
-2.7099665e-01
-3.2238448e-01
-3.7270068e-01
-4.1437620e-01
-4.3837432e-01
-4.3688354e-01
-4.0542498e-01
-3.4384237e-01
-2.5605640e-01
-1.4885839e-01
-3.0328512e-02
9.1433576e-02
2.0884301e-01
3.1475599e-01
4.0235845e-01
4.6558268e-01
5.0019636e-01
5.0518465e-01
4.8372349e-01
4.4305258e-01
3.9288031e-01
3.4248504e-01
2.9725301e-01
2.5578574e-01
2.0873328e-01
1.4018472e-01
3.1908097e-02
-1.3000871e-01
-3.4754195e-01
-6.0453059e-01
-8.6466574e-01
-1.0757826e+00
-1.1808415e+00
-1.1336343e+00
-9.1495587e-01
-5.4358937e-01
-7.6921380e-02
4.0101710e-01
8.0132393e-01
1.0543372e+00
1.1271153e+00
1.0282917e+00
7.9996610e-01
5.0132650e-01
1.9086621e-01
-8.6877464e-02
-3.0697959e-01
-4.6225871e-01
-5.5629693e-01
-5.9485610e-01
-5.7916046e-01
-5.0361818e-01
-3.5903618e-01
-1.4048622e-01
1.4292757e-01
4.6052071e-01
7.5899554e-01
9.7068162e-01
1.0305951e+00
8.9788213e-01
5.7409267e-01
1.1021960e-01
-4.0239736e-01
-8.5584822e-01
-1.1558946e+00
-1.2473013e+00
-1.1254107e+00
-8.3150173e-01
-4.3581996e-01
-1.5686910e-02
3.6375505e-01
6.6091441e-01
8.5940561e-01
9.6146335e-01
9.7700163e-01
9.1326337e-01
7.6948788e-01
5.3897977e-01
2.1794419e-01
-1.8251729e-01
-6.2668985e-01
-1.0522139e+00
-1.3790239e+00
-1.5286679e+00
-1.4488344e+00
-1.1343908e+00
-6.3575478e-01
-4.9202796e-02
5.0899490e-01
9.3530015e-01
1.1660464e+00
1.1896831e+00
1.0419059e+00
7.8814609e-01
5.0129891e-01
2.4234086e-01
4.8771097e-02
-6.7823201e-02
-1.1688049e-01
-1.2009217e-01
-1.0219343e-01
-8.3737600e-02
-7.6984834e-02
-8.5005735e-02
-1.0344010e-01
-1.2395033e-01
-1.3817960e-01
-1.4101479e-01
-1.3224692e-01
-1.1627725e-01
-1.0017342e-01
-9.0932463e-02
-9.3048950e-02
-1.0727627e-01
-1.3087884e-01
-1.5901918e-01
-1.8655854e-01
-2.0959323e-01
-2.2632480e-01
-2.3710987e-01
-2.4366687e-01
-2.4752834e-01
-2.4803165e-01
-2.4042687e-01
-2.1491309e-01
-1.5743673e-01
-5.2797271e-02
1.1003525e-01
3.3143183e-01
5.9547032e-01
8.6771112e-01
1.0985294e+00
1.2326682e+00
1.2234657e+00
1.0479679e+00
7.1772213e-01
2.8035967e-01
-1.9032184e-01
-6.1356405e-01
-9.2353277e-01
-1.0857222e+00
-1.1022405e+00
-1.0053325e+00
-8.4302909e-01
-6.6293060e-01
-4.9959613e-01
-3.6870235e-01
-2.6828641e-01
-1.8503824e-01
-1.0242353e-01
-7.6016845e-03
1.0465664e-01
2.3127544e-01
3.6247976e-01
4.8444522e-01
5.8208464e-01
6.4163419e-01
6.5302339e-01
6.1193042e-01
5.2115300e-01
3.9080765e-01
2.3705292e-01
7.9407117e-02
-6.2849758e-02
-1.7433735e-01
-2.4630657e-01
-2.7770129e-01
-2.7437231e-01
-2.4681777e-01
-2.0715147e-01
-1.6613429e-01
-1.3109443e-01
-1.0532160e-01
-8.8987362e-02
-8.0997103e-02
-8.0768857e-02
-8.9012195e-02
-1.0711081e-01
-1.3540167e-01
-1.7115689e-01
-2.0724942e-01
-2.3233677e-01
-2.3297294e-01
-1.9738171e-01
-1.1984670e-01
-4.1315041e-03
1.3563580e-01
2.7747710e-01
3.9708441e-01
4.7458056e-01
5.0000523e-01
4.7544348e-01
4.1315395e-01
3.3067532e-01
2.4489265e-01
1.6714235e-01
1.0080871e-01
4.1866202e-02
-1.8183203e-02
-8.8200633e-02
-1.7352103e-01
-2.7340832e-01
-3.8044869e-01
-4.8185115e-01
-5.6210741e-01
-6.0622764e-01
-6.0281379e-01
-5.4641362e-01
-4.3880251e-01
-2.8904173e-01
-1.1235332e-01
7.2012539e-02
2.4366670e-01
3.8435557e-01
4.8103621e-01
5.2804273e-01
5.2779978e-01
4.8994041e-01
4.2910188e-01
3.6191006e-01
3.0365463e-01
2.6504688e-01
2.4948478e-01
2.5144829e-01
2.5671611e-01
2.4479213e-01
1.9340791e-01
8.4518545e-02
-8.9185526e-02
-3.1876451e-01
-5.7654516e-01
-8.1862091e-01
-9.9316907e-01
-1.0534109e+00
-9.7187167e-01
-7.5118199e-01
-4.2681536e-01
-5.9399473e-02
2.8171734e-01
5.3784948e-01
6.7590796e-01
6.9365946e-01
6.1463847e-01
4.7620305e-01
3.1613295e-01
1.6263941e-01
3.0531566e-02
-7.6361120e-02
-1.5867034e-01
-2.1430676e-01
-2.3407923e-01
-2.0242261e-01
-1.0352519e-01
6.9110129e-02
3.0335723e-01
5.6361802e-01
7.9366640e-01
9.2810553e-01
9.1028859e-01
7.1163213e-01
3.4556237e-01
-1.3011276e-01
-6.2527132e-01
-1.0412949e+00
-1.2985268e+00
-1.3572643e+00
-1.2251291e+00
-9.4970401e-01
-6.0091759e-01
-2.5037392e-01
4.5717174e-02
2.5605463e-01
3.7545823e-01
4.1946668e-01
4.1524344e-01
3.9191259e-01
3.7286917e-01
3.7146212e-01
3.9009765e-01
4.2182700e-01
4.5327613e-01
4.6818906e-01
4.5128084e-01
3.9208307e-01
2.8812932e-01
1.4658139e-01
-1.6494049e-02
-1.7944455e-01
-3.2024877e-01
-4.2195199e-01
-4.7631959e-01
-4.8442651e-01
-4.5426081e-01
-3.9664826e-01
-3.2134769e-01
-2.3486260e-01
-1.4058080e-01
-4.0792265e-02
6.0585765e-02
1.5595090e-01
2.3372654e-01
2.8031439e-01
2.8394350e-01
2.3928206e-01
1.5118516e-01
3.5989243e-02
-8.0616679e-02
-1.6910483e-01
-2.0386502e-01
-1.7113443e-01
-7.4539927e-02
6.4059990e-02
2.0949016e-01
3.2287579e-01
3.7284708e-01
3.4444110e-01
2.4281177e-01
9.0937402e-02
-7.7460551e-02
-2.2727802e-01
-3.3076034e-01
-3.7319787e-01
-3.5442610e-01
-2.8649443e-01
-1.8897230e-01
-8.3612962e-02
1.0330812e-02
7.9416784e-02
1.1764678e-01
1.2643924e-01
1.1321101e-01
8.8956194e-02
6.5255623e-02
5.1288021e-02
5.1590216e-02
6.5241929e-02
8.6704621e-02
1.0795110e-01
1.2110824e-01
1.2072751e-01
1.0497195e-01
7.5432838e-02
3.5858827e-02
-9.4686522e-03
-5.6907960e-02
-1.0371461e-01
-1.4747920e-01
-1.8532016e-01
-2.1352768e-01
-2.2802098e-01
-2.2541038e-01
-2.0405688e-01
-1.6456424e-01
-1.0955951e-01
-4.3078178e-02
2.9982249e-02
1.0410682e-01
1.7322148e-01
2.3087234e-01
2.7080084e-01
2.8799705e-01
2.8002187e-01
2.4809723e-01
1.9736223e-01
1.3595006e-01
7.3062247e-02
1.6667007e-02
-2.8429438e-02
-6.1570279e-02
-8.6033747e-02
-1.0767450e-01
-1.3277328e-01
-1.6566848e-01
-2.0680493e-01
-2.5172602e-01
-2.9134943e-01
-3.1366686e-01
-3.0671794e-01
-2.6223616e-01
-1.7890411e-01
-6.4030324e-02
6.7118844e-02
1.9431253e-01
2.9690319e-01
3.5870590e-01
3.7187819e-01
3.3870114e-01
2.7072156e-01
1.8547071e-01
1.0170525e-01
3.4604161e-02
-7.5929992e-03
-2.4548687e-02
-2.2402242e-02
-1.0858220e-02
8.5366773e-06
2.3087008e-03
-8.2056787e-03
-3.1886748e-02
-6.5969309e-02
-1.0597070e-01
-1.4715093e-01
-1.8552213e-01
-2.1815624e-01
-2.4289248e-01
-2.5781521e-01
-2.6092325e-01
-2.5024030e-01
-2.2433542e-01
-1.8297329e-01
-1.2750501e-01
-6.0733611e-02
1.3680439e-02
9.1912049e-02
1.7039922e-01
2.4591622e-01
3.1549767e-01
3.7652405e-01
4.2713258e-01
4.6676249e-01
4.9627098e-01
5.1699562e-01
5.2860349e-01
5.2637385e-01
4.9922442e-01
4.2991925e-01
2.9839072e-01
8.8126554e-02
-2.0559039e-01
-5.6783680e-01
-9.5951356e-01
-1.3190512e+00
-1.5722212e+00
-1.6494905e+00
-1.5070075e+00
-1.1443593e+00
-6.1149623e-01
-3.0726512e-06
5.8005368e-01
1.0298480e+00
1.2870421e+00
1.3378799e+00
1.2136163e+00
9.7491937e-01
6.9125620e-01
4.2235764e-01
2.0660696e-01
5.8020101e-02
-2.9436953e-02
-7.3344324e-02
-9.3807404e-02
-1.0679715e-01
-1.2113297e-01
-1.3877596e-01
-1.5714050e-01
-1.7200123e-01
-1.7995690e-01
-1.7989506e-01
-1.7330013e-01
-1.6358493e-01
-1.5488889e-01
-1.5085583e-01
-1.5374315e-01
-1.6397288e-01
-1.8009912e-01
-1.9914942e-01
-2.1728038e-01
-2.3061411e-01
-2.3605543e-01
-2.3190061e-01
-2.1809480e-01
-1.9598537e-01
-1.6738910e-01
-1.3294431e-01
-9.0164620e-02
-3.2148082e-02
5.1882500e-02
1.7341194e-01
3.3900835e-01
5.4367541e-01
7.6570972e-01
9.6597495e-01
1.0937079e+00
1.0988890e+00
9.4834514e-01
6.4022644e-01
2.1071219e-01
-2.7119974e-01
-7.2037374e-01
-1.0580954e+00
-1.2322603e+00
-1.2283802e+00
-1.0688476e+00
-8.0231217e-01
-4.8783597e-01
-1.7931448e-01
8.5298746e-02
2.8764204e-01
4.2576842e-01
5.0655930e-01
5.3726893e-01
5.1976907e-01
4.4996685e-01
3.2272042e-01
1.4001738e-01
-8.1604888e-02
-3.0847956e-01
-4.9444102e-01
-5.9226938e-01
-5.6869220e-01
-4.1763013e-01
-1.6601059e-01
1.3143070e-01
4.0752739e-01
6.0260329e-01
6.8108621e-01
6.3886406e-01
5.0000501e-01
3.0578429e-01
1.0105370e-01
-7.7339345e-02
-2.0722325e-01
-2.8223336e-01
-3.0854143e-01
-2.9924060e-01
-2.6852755e-01
-2.2734127e-01
-1.8136938e-01
-1.3151385e-01
-7.6158659e-02
-1.4075184e-02
5.3280601e-02
1.2092335e-01
1.8108241e-01
2.2504042e-01
2.4533499e-01
2.3770703e-01
2.0235547e-01
1.4414940e-01
7.1599792e-02
-5.2602731e-03
-7.7519690e-02
-1.3974930e-01
-1.9131059e-01
-2.3610524e-01
-2.8064187e-01
-3.3074208e-01
-3.8766509e-01
-4.4482734e-01
-4.8648379e-01
-4.8950359e-01
-4.2861807e-01
-2.8441321e-01
-5.2190519e-02
2.5106407e-01
5.8460430e-01
8.8891153e-01
1.0979304e+00
1.1561391e+00
1.0357810e+00
7.4851494e-01
3.4646912e-01
-8.9417886e-02
-4.7113091e-01
-7.2802801e-01
-8.2492050e-01
-7.6750291e-01
-5.9456003e-01
-3.6160551e-01
-1.2295407e-01
8.1597190e-02
2.3215669e-01
3.2622854e-01
3.7098306e-01
3.7428056e-01
3.3824061e-01
2.5776474e-01
1.2439172e-01
-6.6125093e-02
-3.0551988e-01
-5.6749235e-01
-8.0794240e-01
-9.7239202e-01
-1.0096337e+00
-8.8799519e-01
-6.0867479e-01
-2.1047865e-01
2.3727471e-01
6.5234364e-01
9.6162930e-01
1.1196908e+00
1.1175978e+00
9.8042492e-01
7.5592863e-01
4.9924743e-01
2.5861799e-01
6.5721691e-02
-6.7782302e-02
-1.4794151e-01
-1.9215852e-01
-2.2116256e-01
-2.5168608e-01
-2.9174839e-01
-3.3949269e-01
-3.8532341e-01
-4.1611675e-01
-4.1990642e-01
-3.8968550e-01
-3.2551715e-01
-2.3469281e-01
-1.3009555e-01
-2.7248091e-02
5.9235260e-02
1.1895988e-01
1.4801081e-01
1.4948710e-01
1.3197291e-01
1.0624135e-01
8.1286364e-02
6.1280418e-02
4.4810675e-02
2.6769629e-02
2.0899565e-03
-3.0260426e-02
-6.4670245e-02
-8.8788836e-02
-8.6274464e-02
-4.1900003e-02
5.2197689e-02
1.9089399e-01
3.5310601e-01
5.0327026e-01
5.9815257e-01
5.9824292e-01
4.8093818e-01
2.5103102e-01
-5.6198450e-02
-3.8194299e-01
-6.5950452e-01
-8.3309151e-01
-8.7261977e-01
-7.7938562e-01
-5.8175192e-01
-3.2387509e-01
-5.2326914e-02
1.9486721e-01
3.9396963e-01
5.3546883e-01
6.1961171e-01
6.5011837e-01
6.2886797e-01
5.5370352e-01
4.2030492e-01
2.2754821e-01
-1.5793425e-02
-2.8617431e-01
-5.4523196e-01
-7.4602176e-01
-8.4453790e-01
-8.1315995e-01
-6.5128564e-01
-3.8865752e-01
-7.9048537e-02
2.1433757e-01
4.3665860e-01
5.5573695e-01
5.6791670e-01
4.9445428e-01
3.7117854e-01
2.3602675e-01
1.1878967e-01
3.5679703e-02
-1.0847635e-02
-2.8382140e-02
-2.9205884e-02
-2.5409486e-02
-2.5716469e-02
-3.4212022e-02
-5.0504053e-02
-7.0748398e-02
-8.9204690e-02
-1.0013310e-01
-9.9705852e-02
-8.7393712e-02
-6.6316540e-02
-4.2383261e-02
-2.2485337e-02
-1.2339213e-02
-1.4700698e-02
-2.8555297e-02
-4.9541952e-02
-7.1420871e-02
-8.8029400e-02
-9.5025541e-02
-9.0853195e-02
-7.6703092e-02
-5.5610162e-02
-3.1082944e-02
-5.7781250e-03
1.9291177e-02
4.4721863e-02
7.1902466e-02
1.0177343e-01
1.3369864e-01
1.6494517e-01
1.9105989e-01
2.0709925e-01
2.0927667e-01
1.9631223e-01
1.6984473e-01
1.3372206e-01
9.2520182e-02
4.9917977e-02
7.5238846e-03
-3.5444291e-02
-8.1481619e-02
-1.3328791e-01
-1.9193912e-01
-2.5547272e-01
-3.1851830e-01
-3.7313551e-01
-4.1045497e-01
-4.2242156e-01
-4.0303718e-01
-3.4885039e-01
-2.5886549e-01
-1.3438979e-01
2.0585397e-02
1.9820748e-01
3.8517605e-01
5.6176939e-01
7.0273493e-01
7.8088946e-01
7.7331216e-01
6.6879849e-01
4.7414645e-01
2.1634677e-01
-6.1490540e-02
-3.1029509e-01
-4.8808675e-01
-5.7099698e-01
-5.5819218e-01
-4.6945134e-01
-3.3716001e-01
-1.9623047e-01
-7.5475670e-02
7.3761118e-03
4.6665422e-02
4.6813023e-02
1.8864718e-02
-2.3175781e-02
-6.5469425e-02
-9.6619825e-02
-1.0915973e-01
-1.0044019e-01
-7.2934751e-02
-3.3652105e-02
7.6833287e-03
4.1569743e-02
6.1971825e-02
6.8582614e-02
6.6954980e-02
6.6195901e-02
7.5121184e-02
9.8637469e-02
1.3602180e-01
1.8170379e-01
2.2784079e-01
2.6725906e-01
2.9548876e-01
3.1126597e-01
3.1549155e-01
3.0905681e-01
2.9028864e-01
2.5307743e-01
1.8684908e-01
7.9174638e-02
-7.9091927e-02
-2.8741755e-01
-5.3012742e-01
-7.7436323e-01
-9.7344005e-01
-1.0762078e+00
-1.0409238e+00
-8.4986719e-01
-5.1944844e-01
-1.0093533e-01
3.3030897e-01
6.9456486e-01
9.2959233e-01
1.0063126e+00
9.3288114e-01
7.4697262e-01
5.0071887e-01
2.4461946e-01
1.5786370e-02
-1.6670661e-01
-2.9945186e-01
-3.8761032e-01
-4.3657525e-01
-4.4593138e-01
-4.0817709e-01
-3.1277672e-01
-1.5399563e-01
6.0621729e-02
3.0483037e-01
5.3438455e-01
6.9517237e-01
7.3753300e-01
6.3278193e-01
3.8610820e-01
4.0101844e-02
-3.3410196e-01
-6.5615834e-01
-8.5948594e-01
-9.0912891e-01
-8.0829752e-01
-5.9265113e-01
-3.1617718e-01
-3.4703646e-02
2.0750798e-01
3.8492576e-01
4.9112807e-01
5.3389461e-01
5.2762488e-01
4.8596655e-01
4.1705063e-01
3.2262717e-01
2.0095117e-01
5.1918688e-02
-1.1786604e-01
-2.9242080e-01
-4.4759573e-01
-5.5619753e-01
-5.9550502e-01
-5.5455905e-01
-4.3842848e-01
-2.6760374e-01
-7.2566870e-02
1.1437057e-01
2.6684489e-01
3.6930841e-01
4.1811146e-01
4.1949355e-01
3.8594927e-01
3.3235366e-01
2.7267482e-01
2.1754999e-01
1.7273374e-01
1.3840473e-01
1.0938843e-01
7.6443360e-02
2.8799016e-02
-4.2089176e-02
-1.3823190e-01
-2.5168084e-01
-3.6375520e-01
-4.4818217e-01
-4.7812267e-01
-4.3537128e-01
-3.1855543e-01
-1.4670424e-01
4.4205974e-02
2.1126951e-01
3.1761039e-01
3.4313636e-01
2.8906765e-01
1.7516919e-01
3.1612235e-02
-1.1087735e-01
-2.2887769e-01
-3.0980643e-01
-3.5085989e-01
-3.5487904e-01
-3.2552585e-01
-2.6395696e-01
-1.6826899e-01
-3.5837794e-02
1.3236983e-01
3.2719370e-01
5.2841229e-01
7.0540198e-01
8.2221200e-01
8.4646105e-01
7.5974128e-01
5.6585920e-01
2.9307165e-01
-1.1813922e-02
-2.9618043e-01
-5.1639471e-01
-6.4864894e-01
-6.9187419e-01
-6.6260890e-01
-5.8505169e-01
-4.8095699e-01
-3.6340002e-01
-2.3632167e-01
-9.9114531e-02
4.6567765e-02
1.9125927e-01
3.1599848e-01
3.9538942e-01
4.0458897e-01
3.2821094e-01
1.6843799e-01
-5.0574934e-02
-2.8438239e-01
-4.7687937e-01
-5.7446979e-01
-5.4202932e-01
-3.7543799e-01
-1.0564084e-01
2.0844129e-01
4.9659074e-01
6.9767469e-01
7.7606415e-01
7.2848815e-01
5.8022320e-01
3.7369893e-01
1.5459502e-01
-3.9861647e-02
-1.8752506e-01
-2.8221895e-01
-3.3005482e-01
-3.4343338e-01
-3.3516414e-01
-3.1447212e-01
-2.8555590e-01
-2.4838040e-01
-2.0084401e-01
-1.4131430e-01
-7.0640840e-02
6.9423814e-03
8.4184164e-02
1.5220072e-01
2.0238383e-01
2.2831150e-01
2.2723449e-01
2.0080058e-01
1.5476068e-01
9.7594890e-02
3.8342419e-02
-1.5747213e-02
-6.1028907e-02
-9.8211502e-02
-1.3178851e-01
-1.6811245e-01
-2.1231764e-01
-2.6473959e-01
-3.1802084e-01
-3.5632960e-01
-3.5775416e-01
-3.0003340e-01
-1.6860666e-01
3.5200192e-02
2.8882333e-01
5.4883614e-01
7.5862253e-01
8.6247599e-01
8.2246566e-01
6.3245180e-01
3.2358536e-01
-4.1919823e-02
-3.8746575e-01
-6.4338158e-01
-7.6510384e-01
-7.4225146e-01
-5.9676455e-01
-3.7236709e-01
-1.2007668e-01
1.1511989e-01
3.0270145e-01
4.2879435e-01
4.9297084e-01
5.0191724e-01
4.6274828e-01
3.7864928e-01
2.4872645e-01
7.2263584e-02
-1.4451431e-01
-3.8251979e-01
-6.0810069e-01
-7.7757760e-01
-8.4780002e-01
-7.8992547e-01
-6.0150767e-01
-3.1148199e-01
2.5283444e-02
3.4286032e-01
5.8303353e-01
7.1055946e-01
7.1944613e-01
6.2918528e-01
4.7404107e-01
2.9057405e-01
1.0816098e-01
-5.4901591e-02
-1.8979137e-01
-2.9216737e-01
-3.5677831e-01
-3.7443446e-01
-3.3304590e-01
-2.2278931e-01
-4.3645326e-02
1.8779983e-01
4.3566324e-01
6.4854726e-01
7.7014574e-01
7.5458960e-01
5.8224202e-01
2.7037226e-01
-1.2640783e-01
-5.2816639e-01
-8.5135684e-01
-1.0325821e+00
-1.0453309e+00
-9.0386031e-01
-6.5429278e-01
-3.5791756e-01
-7.3487374e-02
1.5593036e-01
3.0888242e-01
3.8455904e-01
3.9720230e-01
3.6874644e-01
3.2203238e-01
2.7592472e-01
2.4266022e-01
2.2709517e-01
2.2730120e-01
2.3608975e-01
2.4323614e-01
2.3814106e-01
2.1245235e-01
1.6209293e-01
8.8333872e-02
-2.2258762e-03
-9.8845789e-02
-1.8895397e-01
-2.6112521e-01
-3.0778599e-01
-3.2664314e-01
-3.2032737e-01
-2.9448261e-01
-2.5516077e-01
-2.0666716e-01
-1.5078255e-01
-8.7596397e-02
-1.7390679e-02
5.7412843e-02
1.3112872e-01
1.9500965e-01
2.3888798e-01
2.5398638e-01
2.3614913e-01
1.8832210e-01
1.2109161e-01
5.0645269e-02
-5.5630571e-03
-3.4249301e-02
-3.1035471e-02
-2.6053229e-03
3.4959128e-02
6.1520463e-02
6.0122732e-02
2.3320240e-02
-4.3919994e-02
-1.2580907e-01
-2.0104685e-01
-2.4970105e-01
-2.5911132e-01
-2.2690977e-01
-1.6053040e-01
-7.3923545e-02
1.6941259e-02
9.8095391e-02
1.5998767e-01
1.9802779e-01
2.1173806e-01
2.0335131e-01
1.7657123e-01
1.3581093e-01
8.5888923e-02
3.2064985e-02
