-4.2833240e-04
2.6943326e-03
3.7472383e-03
2.2958527e-03
5.2216906e-05
-1.2422652e-03
-1.4678073e-03
-1.6448756e-03
-2.3141670e-03
-2.5915939e-03
-2.4303191e-03
-2.0857739e-03
-1.0700045e-03
-2.6837641e-04
-5.2445975e-04
-5.9790731e-04
7.7613623e-04
1.4272379e-03
2.2691152e-04
-3.9682780e-04
1.6070026e-04
1.8115924e-03
4.4629246e-03
6.6972737e-03
8.5441349e-03
1.0360390e-02
1.0329985e-02
6.7423275e-03
9.3123512e-04
-4.3620501e-03
-7.4138816e-03
-8.2192889e-03
-8.9413227e-03
-1.0888355e-02
-1.3021680e-02
-1.3423572e-02
-1.1548654e-02
-8.3913296e-03
-3.3653604e-03
4.0664134e-03
1.1465397e-02
1.6093191e-02
1.8152836e-02
1.9517603e-02
2.1246891e-02
2.0870266e-02
1.3420423e-02
-2.9327457e-03
-2.3915916e-02
-4.0893441e-02
-4.8878034e-02
-4.8854467e-02
-4.2677042e-02
-3.2814643e-02
-2.1458138e-02
-1.0026313e-02
-4.1603615e-04
5.3506703e-03
5.7543392e-03
3.1815502e-04
-1.1875490e-02
-3.1831369e-02
-5.7237148e-02
-8.2881768e-02
-1.0552437e-01
-1.2608124e-01
-1.4696671e-01
-1.6893168e-01
-1.9183358e-01
-2.1399956e-01
-2.3170443e-01
-2.3998751e-01
-2.2784454e-01
-1.7282875e-01
-3.6105043e-02
1.5141393e-01
2.7907892e-01
3.1741373e-01
3.0844365e-01
2.7617302e-01
2.3312699e-01
1.8781415e-01
1.4459058e-01
1.0439699e-01
7.0642912e-02
4.6669036e-02
3.1624975e-02
2.5506541e-02
2.9713054e-02
4.2093790e-02
6.0503539e-02
8.4034918e-02
1.1156175e-01
1.4418505e-01
1.8144503e-01
2.1774639e-01
2.4485746e-01
2.5168491e-01
2.1684957e-01
1.0266947e-01
-6.2615701e-02
-1.7670031e-01
-2.1304800e-01
-2.1031275e-01
-1.9046391e-01
-1.6496444e-01
-1.3862481e-01
-1.1338577e-01
-9.1595821e-02
-7.5532779e-02
-6.5927764e-02
-6.2507708e-02
-6.3497103e-02
-6.6589701e-02
-7.2832214e-02
-8.3904179e-02
-9.9705626e-02
-1.2039521e-01
-1.4760523e-01
-1.8094532e-01
-2.1334907e-01
-2.3695587e-01
-2.4178517e-01
-2.0550941e-01
-8.8786198e-02
7.9769579e-02
1.9582274e-01
2.3280420e-01
2.2930715e-01
2.0714538e-01
1.7817126e-01
1.4734468e-01
1.1711061e-01
9.0615814e-02
6.9309710e-02
5.1487545e-02
3.7202172e-02
2.8109230e-02
2.2870803e-02
1.7933894e-02
1.1262180e-02
5.7852874e-03
3.1192482e-03
-4.3320630e-04
-5.5035187e-03
-9.3686318e-03
-1.0961855e-02
-1.0343879e-02
-9.5658053e-03
-9.0371669e-03
-5.7724825e-03
-6.2898131e-04
3.3795569e-03
6.4281901e-03
9.5888412e-03
1.1778602e-02
1.1606491e-02
1.0487903e-02
9.9645299e-03
9.1631690e-03
8.1439523e-03
7.7819688e-03
7.0546221e-03
4.2911239e-03
1.0608099e-03
1.0121287e-03
3.1936654e-03
3.3096820e-03
1.7522250e-03
2.5031546e-03
5.4841818e-03
7.8083505e-03
8.3351204e-03
7.4412136e-03
4.6335539e-03
3.6548970e-04
-3.2147714e-03
-5.7391265e-03
-7.2346173e-03
-6.9301766e-03
-4.9809753e-03
-3.2069424e-03
-2.9899869e-03
-4.1312424e-03
-5.5855693e-03
-6.1536310e-03
-5.2554429e-03
-2.9530472e-03
-8.8153462e-04
-1.5208125e-03
-3.9716950e-03
-4.4637658e-03
-3.0659267e-03
-2.6181290e-03
-2.6207711e-03
-2.0230832e-03
-1.9361996e-03
-1.6544325e-03
-1.0230098e-03
-4.9287390e-05
2.4902737e-03
3.9354733e-03
3.3463277e-03
2.7521498e-03
1.4107402e-03
-3.8753308e-04
4.1003009e-04
4.2902375e-03
8.7658839e-03
1.3259001e-02
1.8552638e-02
2.5377479e-02
3.5102388e-02
4.8382463e-02
6.3993970e-02
8.2834219e-02
1.0642643e-01
1.3222663e-01
1.5947420e-01
1.8933030e-01
2.1866175e-01
2.3997406e-01
2.4261470e-01
2.0551706e-01
8.5987087e-02
-8.9332015e-02
-2.1050073e-01
-2.4859044e-01
-2.4429470e-01
-2.1958456e-01
-1.8707010e-01
-1.5418247e-01
-1.2566031e-01
-1.0360324e-01
-8.7049154e-02
-7.4407254e-02
-6.5675364e-02
-6.3363484e-02
-6.8245706e-02
-7.7771172e-02
-9.0427952e-02
-1.0661245e-01
-1.2882352e-01
-1.5873519e-01
-1.9308562e-01
-2.2508728e-01
-2.4753499e-01
-2.5043728e-01
-2.1128025e-01
-8.7859497e-02
9.0119330e-02
2.1208692e-01
2.5051639e-01
2.4611054e-01
2.2008945e-01
1.8638299e-01
1.5400216e-01
1.2469812e-01
9.8794670e-02
7.9011221e-02
6.6465353e-02
6.0218036e-02
5.9548434e-02
6.4074520e-02
7.2833842e-02
8.5131422e-02
1.0238524e-01
1.2692417e-01
1.5702868e-01
1.8828848e-01
2.1908137e-01
2.4489775e-01
2.5232001e-01
2.1659372e-01
9.7397315e-02
-7.5706905e-02
-1.9535981e-01
-2.3367626e-01
-2.3149273e-01
-2.1123067e-01
-1.8300205e-01
-1.5221305e-01
-1.2375808e-01
-1.0065293e-01
-8.2888011e-02
-7.1000533e-02
-6.6304082e-02
-6.7275358e-02
-7.0971322e-02
-7.6345199e-02
-8.5694098e-02
-1.0368350e-01
-1.3173222e-01
-1.6572780e-01
-2.0170953e-01
-2.3592736e-01
-2.6060735e-01
-2.6434763e-01
-2.2500031e-01
-9.9969364e-02
8.1641063e-02
2.0706254e-01
2.4618088e-01
2.4305691e-01
2.2193922e-01
1.9241967e-01
1.5937983e-01
1.2691673e-01
9.9495919e-02
7.8860934e-02
6.2345370e-02
4.7462029e-02
3.4903459e-02
2.5954838e-02
1.9774752e-02
1.5349884e-02
1.2380800e-02
1.0460864e-02
7.8902711e-03
5.1008184e-03
3.9475107e-03
2.9854546e-03
1.6382098e-03
1.4206644e-03
1.9769152e-03
2.3604104e-03
2.5709774e-03
1.4836132e-03
-1.3612548e-04
1.3406551e-04
2.2989968e-03
3.8853194e-03
3.0708793e-03
2.6149734e-03
5.1797968e-03
6.6575670e-03
3.9130739e-03
1.4506478e-04
-2.0237579e-03
-2.7083438e-03
-4.2124090e-03
-7.0158270e-03
-7.7427897e-03
-6.4011655e-03
-5.3658619e-03
-4.4040196e-03
-3.4301662e-03
-2.6649654e-03
-2.1303168e-03
-2.3649570e-03
-2.8267825e-03
-1.9632172e-03
1.9341842e-05
1.1927567e-03
-2.3964427e-04
-3.7044685e-03
-5.2908087e-03
-3.9830666e-03
-2.3321946e-03
-9.1638240e-05
2.2165921e-03
1.1926743e-03
-1.9842078e-03
-3.9106121e-03
-4.8608406e-03
-4.5773979e-03
-1.4667832e-03
2.0443394e-03
2.8168139e-03
8.2140639e-04
-3.7769046e-03
-9.1456664e-03
-1.2532805e-02
-1.1835032e-02
-6.0013331e-03
1.4294377e-05
2.6244249e-03
4.5375626e-03
5.1973878e-03
4.2093211e-03
4.3677226e-03
6.6689881e-03
1.0953583e-02
1.6557004e-02
2.2469628e-02
2.7597028e-02
3.2690491e-02
4.0718426e-02
5.3174013e-02
6.8329345e-02
8.5309240e-02
1.0629971e-01
1.3263191e-01
1.6243647e-01
1.9289337e-01
2.2405610e-01
2.5160010e-01
2.5846914e-01
2.1863542e-01
9.1465703e-02
-9.3119061e-02
-2.2152126e-01
-2.6213403e-01
-2.5578090e-01
-2.2810526e-01
-1.9434479e-01
-1.5952012e-01
-1.2575657e-01
-9.6419585e-02
-7.4252352e-02
-5.9056470e-02
-4.7766143e-02
-3.7788359e-02
-2.9680146e-02
-2.5276824e-02
-2.2306034e-02
-1.7089938e-02
-1.0953338e-02
-7.1710788e-03
-6.3165529e-03
-6.0988487e-03
-4.7270856e-03
-3.1603331e-03
-2.2744505e-03
-2.1080255e-03
-1.5647226e-03
2.4490250e-04
1.8457156e-03
1.9844359e-03
3.3072988e-04
-2.5673506e-03
-5.0992344e-03
-6.6054030e-03
-7.0486124e-03
-6.8495744e-03
-7.0047588e-03
-5.8880365e-03
-2.0005048e-03
1.4025540e-03
1.7972646e-03
1.7092943e-03
3.5208842e-03
7.0494657e-03
1.1507798e-02
1.4221521e-02
1.3474087e-02
1.1948567e-02
1.1030030e-02
9.1278712e-03
5.8638257e-03
2.4233996e-03
6.4319302e-04
-2.2280283e-04
-1.9208780e-03
-3.2992381e-03
-3.3855796e-03
-3.8857948e-03
-6.3143026e-03
-9.6915652e-03
-1.3401942e-02
-1.8124851e-02
-2.4248565e-02
-3.2085083e-02
-4.3165466e-02
-5.8647946e-02
-7.7504824e-02
-9.8641754e-02
-1.2372744e-01
-1.5485612e-01
-1.8915289e-01
-2.2075918e-01
-2.4437580e-01
-2.4929562e-01
-2.1198750e-01
-9.2486599e-02
8.1901984e-02
2.0484182e-01
2.4572030e-01
2.4227075e-01
2.1655191e-01
1.8326599e-01
1.5141042e-01
1.2423332e-01
1.0279786e-01
8.6389339e-02
7.5250015e-02
7.0764470e-02
7.0804968e-02
7.2956498e-02
7.8026727e-02
8.7821944e-02
1.0247134e-01
1.2111042e-01
1.4480223e-01
1.7356672e-01
2.0381554e-01
2.2909627e-01
2.3606957e-01
2.0265547e-01
9.0443990e-02
-7.6462446e-02
-1.9378165e-01
-2.3102130e-01
-2.2667940e-01
-2.0335641e-01
-1.7366316e-01
-1.4386612e-01
-1.1778940e-01
-9.7192212e-02
-8.1651297e-02
-7.1087218e-02
-6.4916348e-02
-6.2526504e-02
-6.4062439e-02
-7.0560478e-02
-8.3253850e-02
-1.0243998e-01
-1.2768381e-01
-1.5646464e-01
-1.8608533e-01
-2.1586346e-01
-2.4130039e-01
-2.4870788e-01
-2.1290661e-01
-9.3114708e-02
8.1217720e-02
2.0280756e-01
2.4262596e-01
2.3852114e-01
2.1345391e-01
1.8138057e-01
1.4810994e-01
1.1568520e-01
8.7889333e-02
6.6203210e-02
4.8339148e-02
3.4747516e-02
2.6711614e-02
2.2655521e-02
1.9273453e-02
1.4526698e-02
9.7666380e-03
6.1142404e-03
3.3352817e-03
1.5442716e-03
2.6189936e-04
-1.2738719e-03
-3.5019421e-03
-5.8720241e-03
-6.2214267e-03
-4.5832348e-03
-2.9645398e-03
-8.9438566e-04
2.2587664e-03
5.8883148e-03
1.0542173e-02
1.5829651e-02
1.8991309e-02
2.0470867e-02
2.3803173e-02
2.9141322e-02
3.4564919e-02
4.0669672e-02
4.9823080e-02
6.2830376e-02
7.9092074e-02
9.7650353e-02
1.1932306e-01
1.4734997e-01
1.8137422e-01
2.1532355e-01
2.4068004e-01
2.4542859e-01
2.0634452e-01
8.3900427e-02
-9.1036409e-02
-2.1070088e-01
-2.4755389e-01
-2.4247408e-01
-2.1981467e-01
-1.9192385e-01
-1.6234627e-01
-1.3400192e-01
-1.1093987e-01
-9.4015208e-02
-8.1799071e-02
-7.2433375e-02
-6.6239763e-02
-6.5714313e-02
-7.1540491e-02
-8.3623443e-02
-1.0198149e-01
-1.2587733e-01
-1.5594208e-01
-1.9113135e-01
-2.2462031e-01
-2.4758272e-01
-2.4874777e-01
-2.0673387e-01
-8.2534582e-02
9.5030526e-02
2.1669260e-01
2.5342277e-01
2.4805529e-01
2.2335574e-01
1.9052685e-01
1.5755529e-01
1.2749102e-01
1.0115144e-01
8.1058298e-02
6.8041009e-02
6.1719085e-02
6.1327128e-02
6.5102749e-02
7.3381641e-02
8.5249907e-02
1.0113526e-01
1.2655471e-01
1.6111212e-01
1.9705519e-01
2.2825647e-01
2.5027015e-01
2.5302902e-01
2.1371398e-01
9.2066979e-02
-8.3835835e-02
-2.0569163e-01
-2.4330334e-01
-2.3847065e-01
-2.1512439e-01
-1.8469621e-01
-1.5442255e-01
-1.2794147e-01
-1.0601704e-01
-8.8514863e-02
-7.5407197e-02
-6.7600895e-02
-6.5507563e-02
-6.8454478e-02
-7.5299733e-02
-8.6689725e-02
-1.0405645e-01
-1.2702409e-01
-1.5506635e-01
-1.8526901e-01
-2.1327794e-01
-2.3518115e-01
-2.3992729e-01
-2.0366821e-01
-8.6525235e-02
8.3401621e-02
2.0034407e-01
2.3645234e-01
2.3121674e-01
2.0769824e-01
1.7831967e-01
1.4855479e-01
1.2110859e-01
9.8538872e-02
8.2419999e-02
7.1037312e-02
6.3204743e-02
6.0592215e-02
6.4401109e-02
7.3925193e-02
8.7589855e-02
1.0437116e-01
1.2499094e-01
1.5110953e-01
1.8219803e-01
2.1358854e-01
2.3759169e-01
2.4285677e-01
2.0751370e-01
9.2166356e-02
-7.5166089e-02
-1.9039950e-01
-2.2717153e-01
-2.2390035e-01
-2.0174763e-01
-1.7351655e-01
-1.4675166e-01
-1.2382560e-01
-1.0281692e-01
-8.4159910e-02
-7.1477624e-02
-6.5095660e-02
-6.3206034e-02
-6.4413528e-02
-6.9642257e-02
-8.1755504e-02
-9.9816358e-02
-1.2151627e-01
-1.4764879e-01
-1.7751721e-01
-2.0715507e-01
-2.3051057e-01
-2.3521008e-01
-1.9831271e-01
-8.0760620e-02
9.0210510e-02
2.1010220e-01
2.5129071e-01
2.5001122e-01
2.2551490e-01
1.9215453e-01
1.5781888e-01
1.2586913e-01
9.9395203e-02
7.8375205e-02
6.0807791e-02
4.5851878e-02
3.4460829e-02
2.7018509e-02
2.1968273e-02
1.7898772e-02
1.3373847e-02
6.5248238e-03
-2.0772859e-03
-7.7579975e-03
-7.9426154e-03
-5.0840459e-03
-2.0421720e-03
-3.5028829e-04
-1.3927623e-03
-4.6513140e-03
-7.0213925e-03
-6.9355165e-03
-3.7112614e-03
2.9621371e-03
1.0730341e-02
1.8624357e-02
2.8979822e-02
4.0606550e-02
5.0039288e-02
5.8411031e-02
6.7888990e-02
7.8462007e-02
8.8387448e-02
9.3550505e-02
9.4782583e-02
1.0003424e-01
1.1174926e-01
1.2490457e-01
1.3739762e-01
1.5055678e-01
1.6131218e-01
1.5795664e-01
1.2050084e-01
1.6895827e-02
-1.2892158e-01
-2.2746513e-01
-2.5422808e-01
-2.4389884e-01
-2.1755769e-01
-1.8515311e-01
-1.5141452e-01
-1.2109977e-01
-9.8090862e-02
-8.1361382e-02
-6.7586281e-02
-5.6193104e-02
-4.7004453e-02
-3.8527178e-02
-3.0539783e-02
-2.2823963e-02
-1.4156534e-02
-5.6140606e-03
1.0141014e-04
2.1232309e-03
1.1564809e-03
-7.4937889e-04
-5.2686076e-04
1.3516996e-03
2.6464474e-03
3.3689065e-03
3.0784784e-03
1.2249918e-03
-1.1340589e-03
-1.9822350e-03
-3.3597190e-04
1.8805470e-03
1.8555983e-03
-1.2457497e-03
-6.6852524e-03
-1.2786765e-02
-1.7197346e-02
-1.9742319e-02
-2.4158112e-02
-3.3808651e-02
-4.8254222e-02
-6.6448196e-02
-8.9228916e-02
-1.1771875e-01
-1.5078501e-01
-1.8378043e-01
-2.0821420e-01
-2.1195111e-01
-1.7756966e-01
-7.3858100e-02
7.4361563e-02
1.7587525e-01
2.0594800e-01
1.9884365e-01
1.7676315e-01
1.5210940e-01
1.2776154e-01
1.0378574e-01
8.1664195e-02
6.1885545e-02
4.4963179e-02
3.2195653e-02
2.4776535e-02
2.1275938e-02
1.6632296e-02
8.4306337e-03
-2.3399590e-04
-3.4911718e-03
6.8604609e-04
6.5447863e-03
8.0491102e-03
3.7772776e-03
-4.4426756e-03
-1.0270865e-02
-8.4880734e-03
-2.3213356e-03
8.1458342e-04
-1.4274212e-03
-4.4382173e-03
-2.2210516e-03
5.2893331e-03
1.0486549e-02
9.3004822e-03
5.8191290e-03
6.2996890e-03
1.3824747e-02
2.5443932e-02
3.5769022e-02
4.1968475e-02
4.8045712e-02
6.0958929e-02
8.3194858e-02
1.1104578e-01
1.3867116e-01
1.6456729e-01
1.8971454e-01
2.1110930e-01
2.1815743e-01
1.8942646e-01
8.7930175e-02
-6.2690358e-02
-1.6930009e-01
-2.0570240e-01
-2.0408223e-01
-1.8393109e-01
-1.5749037e-01
-1.3084477e-01
-1.0644499e-01
-8.4856124e-02
-6.5736403e-02
-5.0494547e-02
-4.0579185e-02
-3.4274252e-02
-2.8531556e-02
-2.2242881e-02
-1.5499771e-02
-1.0276055e-02
-8.2457530e-03
-7.4510734e-03
-6.4432613e-03
-5.7005223e-03
-4.9677733e-03
-3.4575704e-03
-1.9127057e-03
-9.2078381e-04
-1.0845053e-04
5.0860431e-04
1.1834041e-03
8.1810682e-04
-1.4571791e-03
-4.5434238e-03
-7.3814985e-03
-9.8786645e-03
-1.2828440e-02
-1.6463696e-02
-2.1027482e-02
-2.6860651e-02
-3.4015858e-02
-4.2799092e-02
-5.3539545e-02
-6.7558158e-02
-8.6377776e-02
-1.0983067e-01
-1.3721187e-01
-1.6677314e-01
-1.9542213e-01
-2.1850030e-01
-2.2439382e-01
-1.9066804e-01
-8.0572439e-02
8.0313264e-02
1.9459708e-01
2.3385921e-01
2.3037661e-01
2.0574410e-01
1.7582992e-01
1.4749556e-01
1.2208650e-01
1.0021031e-01
8.2750217e-02
6.9859960e-02
6.0166503e-02
5.5012907e-02
5.7623041e-02
6.7653146e-02
8.2472604e-02
1.0001783e-01
1.1990587e-01
1.4323979e-01
1.7186828e-01
2.0246403e-01
2.2445270e-01
2.2647518e-01
1.8969802e-01
7.8096696e-02
-8.1985287e-02
-1.9301504e-01
-2.2822536e-01
-2.2346277e-01
-2.0008952e-01
-1.7026243e-01
-1.4068637e-01
-1.1314431e-01
-8.8374424e-02
-6.8085534e-02
-5.1948465e-02
-3.8564571e-02
-2.8270787e-02
-2.1460776e-02
-1.6814181e-02
-1.2984169e-02
-1.0903356e-02
-1.0100210e-02
-8.7203839e-03
-8.0418769e-03
-8.5586209e-03
-8.4201184e-03
-6.6890758e-03
-4.2532159e-03
-2.8498481e-03
-1.9430493e-03
-7.2995010e-05
1.3508470e-03
1.0917787e-03
-2.3191349e-04
-1.0028743e-03
-5.0321663e-04
-3.0983721e-04
-1.1620549e-04
8.8452055e-04
1.5010855e-03
1.8406845e-03
3.5974758e-03
7.1124579e-03
9.9189106e-03
1.0102799e-02
8.8134378e-03
7.7771601e-03
6.8391999e-03
4.7406702e-03
1.8657488e-03
2.1160002e-04
-3.0480934e-04
-6.9902863e-04
-1.0043841e-03
-1.3698289e-03
-1.1835463e-03
-1.1514729e-03
-2.9729991e-03
-5.2925905e-03
-5.9376532e-03
-5.5294837e-03
-4.8391826e-03
-3.9567273e-03
-3.0590888e-03
-2.0970409e-03
-1.3291731e-03
-7.6751869e-04
4.1665568e-04
2.2147827e-03
3.0431023e-03
2.7991683e-03
2.0330511e-03
4.7878301e-04
-1.1851381e-03
-1.8640205e-03
-1.8139529e-03
-2.2196455e-03
-3.5364163e-03
-4.2405720e-03
-3.3469362e-03
-2.3147180e-03
-2.1905281e-03
-2.8659127e-03
-3.1464539e-03
-1.8950518e-03
3.0735709e-04
1.7736691e-03
2.3393051e-03
3.0400556e-03
3.1079977e-03
1.9354563e-03
2.9434811e-04
-3.0560293e-04
-7.2741635e-05
-8.3743722e-05
7.4290527e-04
2.0579063e-03
2.7154201e-03
3.3798086e-03
4.0869425e-03
4.4967971e-03
4.8887960e-03
5.7348465e-03
7.4890127e-03
9.4697946e-03
1.0666301e-02
9.7381506e-03
5.7162045e-03
5.6676233e-04
-3.1514018e-03
-4.2825557e-03
-3.8443306e-03
-4.4180242e-03
-5.4776934e-03
-4.9937981e-03
-2.8877468e-03
-4.5399652e-04
6.2504227e-04
-1.2164968e-05
-1.1848841e-03
-1.7012113e-03
-2.0854255e-03
-3.5265518e-03
-5.1876180e-03
-5.4353928e-03
-3.3397568e-03
3.9221823e-04
3.2437095e-03
4.0837690e-03
2.4882106e-03
-7.0186852e-04
-3.4499393e-03
-5.4204338e-03
-6.9157097e-03
-7.2591423e-03
-5.9818681e-03
-5.7950683e-03
-9.3257635e-03
-1.5153409e-02
-2.1260296e-02
-2.7076203e-02
-3.3974393e-02
-4.4659077e-02
-5.7900311e-02
-7.2829695e-02
-9.2145431e-02
-1.1620759e-01
-1.4446258e-01
-1.7556158e-01
-2.0571858e-01
-2.2979718e-01
-2.3657063e-01
-2.0228032e-01
-8.6965897e-02
8.2244797e-02
2.0097831e-01
2.3991768e-01
2.3791588e-01
2.1766276e-01
1.9040631e-01
1.6171253e-01
1.3406923e-01
1.1021413e-01
9.0541616e-02
7.3424400e-02
6.1097159e-02
5.6057233e-02
5.7618843e-02
6.4817813e-02
7.8590597e-02
9.8682619e-02
1.2224156e-01
1.4892840e-01
1.7911391e-01
2.0986799e-01
2.3548794e-01
2.4279046e-01
2.0638063e-01
8.7217584e-02
-8.4966496e-02
-2.0373658e-01
-2.3982433e-01
-2.3315887e-01
-2.0717786e-01
-1.7427752e-01
-1.4277543e-01
-1.1574116e-01
-9.1695783e-02
-7.1094344e-02
-5.6252011e-02
-4.7006897e-02
-4.0157641e-02
-3.3343220e-02
-2.6426840e-02
-1.9956508e-02
-1.5357671e-02
-1.2472799e-02
-9.5006370e-03
-6.8891104e-03
-6.0490817e-03
-6.2930694e-03
-5.2400271e-03
-2.0375584e-03
1.2375966e-03
2.6046151e-03
2.2062632e-03
1.8399391e-03
2.5575876e-03
3.3470510e-03
2.9366091e-03
9.9577894e-04
-7.9031401e-04
1.1137849e-04
3.8569398e-03
8.5639028e-03
1.2207778e-02
1.3181503e-02
1.1180480e-02
7.9949968e-03
4.7567640e-03
1.9604240e-03
1.3180664e-03
2.0612542e-03
1.6519287e-03
9.6260129e-04
1.8093353e-03
2.6466027e-03
1.5946313e-03
-1.4585492e-03
-5.3597365e-03
-6.9961631e-03
-3.9213196e-03
9.4102583e-04
1.9594866e-03
-1.3172390e-03
-4.4424046e-03
-4.6262646e-03
-2.7151636e-03
-7.3094816e-04
-6.0912328e-04
-2.1376446e-03
-3.0045214e-03
-2.9493928e-03
-2.9011848e-03
-2.6247844e-03
-2.4908546e-03
-2.4357521e-03
-4.9743112e-04
3.2278667e-03
5.4524758e-03
5.0011882e-03
3.5998074e-03
2.0324120e-03
7.2300477e-04
2.3933274e-04
6.5337558e-04
1.2414813e-03
1.4170999e-03
1.2119406e-03
6.4476032e-04
7.3938549e-04
2.0113434e-03
3.7709641e-03
5.1073147e-03
5.7912043e-03
5.9698358e-03
6.0233555e-03
6.7232097e-03
7.4733129e-03
7.0917035e-03
6.1098352e-03
5.2835285e-03
3.1373356e-03
-1.0149677e-03
-5.2341744e-03
-8.9083726e-03
-1.1532937e-02
-1.1439725e-02
-1.0721105e-02
-1.3475590e-02
-1.9012479e-02
-2.3465509e-02
-2.6079815e-02
-2.9164962e-02
-3.3525986e-02
-3.7844564e-02
-4.0715620e-02
-4.1027241e-02
-3.9031343e-02
-3.5243729e-02
-2.9421538e-02
-2.1245909e-02
-1.1874480e-02
-3.9177569e-03
1.0431105e-03
3.2734258e-03
4.0046433e-03
3.6025675e-03
2.4852763e-03
2.9993371e-03
6.5458662e-03
1.0742930e-02
1.3512628e-02
1.5430719e-02
1.6275441e-02
1.5340228e-02
1.3468774e-02
1.1944068e-02
1.1028328e-02
1.0071963e-02
8.7551852e-03
5.3251938e-03
-1.1082655e-03
-6.8454714e-03
-9.7420494e-03
-1.0938103e-02
-1.0909870e-02
-1.0749673e-02
-1.1132948e-02
-1.1598827e-02
-1.1762947e-02
-1.0504559e-02
-7.9328368e-03
-5.7731740e-03
-3.6524897e-03
1.3351266e-03
8.5822913e-03
1.4400814e-02
1.8165728e-02
2.0983327e-02
2.4390637e-02
2.8613575e-02
3.0716417e-02
2.9021042e-02
2.5979815e-02
2.3663187e-02
2.0650369e-02
1.6979863e-02
1.3964827e-02
1.1893101e-02
1.0546266e-02
7.7575647e-03
2.9800199e-03
-7.8820069e-04
-1.7989138e-03
-1.4272086e-03
-9.3110777e-04
4.8007218e-04
2.5184429e-03
3.3005131e-03
3.1924409e-03
2.2133138e-03
-1.0903537e-03
-5.1955131e-03
-7.4594422e-03
-8.1972468e-03
-9.5346337e-03
-1.1535301e-02
-1.2399222e-02
-1.0834865e-02
-7.4729826e-03
-5.2829975e-03
-5.9176768e-03
-9.3821535e-03
-1.5571756e-02
-2.3542915e-02
-3.2879867e-02
-4.4895856e-02
-6.0982303e-02
-8.0985367e-02
-1.0536301e-01
-1.3450748e-01
-1.6715430e-01
-2.0144706e-01
-2.3431351e-01
-2.6063874e-01
-2.6787827e-01
-2.2837045e-01
-9.6831323e-02
9.3811989e-02
2.2514860e-01
2.6612800e-01
2.6003017e-01
2.3254130e-01
1.9889361e-01
1.6585614e-01
1.3509181e-01
1.0854596e-01
8.7859888e-02
7.1232232e-02
5.7010734e-02
4.5294166e-02
3.5632809e-02
2.7142866e-02
1.9880757e-02
1.5257945e-02
1.3765369e-02
1.3985197e-02
1.2962871e-02
9.8794628e-03
7.0123663e-03
5.3381685e-03
3.3977768e-03
-7.2869220e-04
-5.7641374e-03
-7.5190067e-03
-5.0012613e-03
-2.2615300e-03
-2.1704762e-03
-4.1628949e-03
-6.4439556e-03
-8.2707830e-03
-1.0631050e-02
-1.1523034e-02
-9.2671535e-03
-7.1414951e-03
-6.1102501e-03
-4.6012462e-03
-3.2380756e-03
-1.3568770e-03
2.1150098e-03
4.5376671e-03
4.7217146e-03
5.1944368e-03
5.2162113e-03
2.8891831e-03
3.3356518e-04
-9.0864948e-04
-1.4282527e-03
-1.9718367e-03
-1.9769786e-03
-7.8142001e-05
3.4945942e-03
6.6965330e-03
6.8189260e-03
4.6353175e-03
4.4751851e-03
7.1342625e-03
1.0061820e-02
1.4038517e-02
2.1409264e-02
3.2167275e-02
4.4850653e-02
5.9451608e-02
7.8247275e-02
1.0193766e-01
1.3039229e-01
1.6441388e-01
2.0168648e-01
2.3744403e-01
2.6480108e-01
2.6954503e-01
2.2698222e-01
9.5897353e-02
-9.1235843e-02
-2.1963098e-01
-2.6060456e-01
-2.5682753e-01
-2.3149831e-01
-1.9666651e-01
-1.5989266e-01
-1.2700312e-01
-9.9852312e-02
-7.6677677e-02
-5.6512367e-02
-4.1166028e-02
-3.1418692e-02
-2.5280777e-02
-2.0714219e-02
-1.6740261e-02
-1.3817425e-02
-1.2134965e-02
-1.1052447e-02
-1.1070293e-02
-1.1250081e-02
-9.6288177e-03
-6.5000411e-03
-3.5748357e-03
-1.5533711e-03
-3.2420293e-04
-7.0952497e-04
-3.0588976e-03
-5.7750954e-03
-7.5818132e-03
-9.0954856e-03
-1.2055191e-02
-1.6866225e-02
-2.1124020e-02
-2.3065131e-02
-2.4301399e-02
-2.6977963e-02
-3.2703424e-02
-4.3047735e-02
-5.6852844e-02
-7.3526171e-02
-9.5467974e-02
-1.2392294e-01
-1.5730547e-01
-1.9222575e-01
-2.2499147e-01
-2.5001499e-01
-2.5463143e-01
-2.1433423e-01
-8.6893237e-02
9.8150601e-02
2.2652539e-01
2.6624759e-01
2.6032858e-01
2.3364966e-01
1.9894538e-01
1.6520453e-01
1.3750440e-01
1.1630880e-01
9.9350632e-02
8.3211421e-02
6.9940622e-02
6.3932052e-02
6.5776531e-02
7.4884607e-02
9.0055592e-02
1.1091041e-01
1.3798472e-01
1.7101819e-01
2.0660218e-01
2.3988240e-01
2.6497638e-01
2.6858350e-01
2.2652780e-01
9.5200575e-02
-9.5827965e-02
-2.2869691e-01
-2.7013574e-01
-2.6275026e-01
-2.3345797e-01
-1.9745912e-01
-1.6082855e-01
-1.2768815e-01
-1.0114228e-01
-8.1514075e-02
-6.6778041e-02
-5.4019934e-02
-4.2389631e-02
-3.1810959e-02
-2.2692634e-02
-1.6752833e-02
-1.4267079e-02
-1.3786557e-02
-1.2680251e-02
-9.3509024e-03
-4.8830351e-03
-4.4131710e-04
3.4975684e-03
5.9740587e-03
6.1348193e-03
4.6606690e-03
2.8410897e-03
1.9155506e-03
1.4919749e-03
1.1600520e-03
2.0813098e-03
3.1428217e-03
3.9110121e-03
6.0607364e-03
8.3871273e-03
9.0577888e-03
8.1737905e-03
5.7610273e-03
3.1238137e-03
2.0867550e-03
1.6143174e-03
2.7583111e-04
-1.6635802e-03
-3.4464793e-03
-5.0128775e-03
-6.1699961e-03
-6.5761682e-03
-6.8312805e-03
-6.0285101e-03
-4.5334608e-03
-4.6276503e-03
-5.2586649e-03
-4.1137781e-03
-1.2264931e-03
1.5707206e-03
3.0500772e-03
2.9794070e-03
1.6851282e-03
1.0040745e-04
-1.7988279e-03
-3.8853174e-03
-5.0653038e-03
-4.4208469e-03
-2.1859350e-03
-2.2902146e-04
5.5664043e-04
3.8549082e-04
-7.7995267e-04
-2.2080409e-03
-3.5316668e-03
-4.9970964e-03
-6.8131672e-03
-8.4300493e-03
-8.5007925e-03
-6.8851069e-03
-5.3404095e-03
-5.7838314e-03
-6.8332582e-03
-6.1643975e-03
-4.3279169e-03
-2.6035847e-03
-1.3363383e-03
-3.8035077e-04
6.8608343e-04
2.8991297e-03
6.3705933e-03
9.6778208e-03
1.1827329e-02
1.2452008e-02
1.2357156e-02
1.2260904e-02
1.1500609e-02
9.6236232e-03
7.0602833e-03
5.2362924e-03
4.6811326e-03
3.5820196e-03
1.7306990e-03
1.7747549e-03
3.3937408e-03
3.8061476e-03
2.8321674e-03
1.3508070e-03
-3.8096822e-04
-2.5150479e-03
-5.4611340e-03
-8.5122739e-03
-1.1483668e-02
-1.4759388e-02
-1.7644141e-02
-1.9746658e-02
-2.2974734e-02
-3.0538304e-02
-4.3733995e-02
-6.2163634e-02
-8.4196348e-02
-1.0832927e-01
-1.3522203e-01
-1.6552919e-01
-1.9824560e-01
-2.2918804e-01
-2.5164442e-01
-2.5430070e-01
-2.1217442e-01
-8.3614283e-02
9.8663349e-02
2.2238656e-01
2.5907973e-01
2.5048791e-01
2.2153094e-01
1.8640454e-01
1.5120112e-01
1.1954145e-01
9.4647842e-02
7.5606309e-02
5.9176329e-02
4.5726830e-02
3.6240176e-02
2.8448241e-02
2.1919671e-02
1.7442747e-02
1.4381147e-02
1.4007723e-02
1.6596789e-02
1.9762211e-02
2.3131461e-02
2.7265162e-02
3.0732776e-02
3.0303464e-02
2.0841290e-02
4.9024302e-03
-7.4637563e-03
-1.3203343e-02
-1.5145098e-02
-1.5574936e-02
-1.3143666e-02
-6.5881038e-03
-4.7457998e-05
3.5117097e-03
6.0381834e-03
1.0097735e-02
1.7037977e-02
2.6195007e-02
3.6410965e-02
4.9225050e-02
6.6237820e-02
8.6242471e-02
1.0772012e-01
1.3189176e-01
1.6042620e-01
1.9216350e-01
2.2004018e-01
2.2823149e-01
1.9374086e-01
8.0451319e-02
-8.4008227e-02
-1.9675745e-01
-2.3128384e-01
-2.2732053e-01
-2.0571656e-01
-1.7755780e-01
-1.4865249e-01
-1.2179214e-01
-9.8805389e-02
-8.0546895e-02
-6.9227122e-02
-6.5075335e-02
-6.5175964e-02
-6.8389834e-02
-7.4508034e-02
-8.3982477e-02
-9.7893465e-02
-1.1677392e-01
-1.4100312e-01
-1.6981610e-01
-2.0017122e-01
-2.2462554e-01
-2.3062677e-01
-1.9696800e-01
-8.5589923e-02
7.7954067e-02
1.9291020e-01
2.3078577e-01
2.2753598e-01
2.0617124e-01
1.8031473e-01
1.5412112e-01
1.2625868e-01
9.8601750e-02
7.5836695e-02
5.6507090e-02
3.9128183e-02
2.5619073e-02
1.6224334e-02
9.8803868e-03
3.8739265e-03
-3.1858864e-03
-8.5612523e-03
-9.9842307e-03
-8.7351716e-03
-7.7833863e-03
-8.6256031e-03
-9.8198811e-03
-8.3775126e-03
-1.1947568e-03
8.8555737e-03
1.4666537e-02
1.5470850e-02
1.4520956e-02
1.3904354e-02
1.3111687e-02
1.1043854e-02
8.7880290e-03
5.3083378e-03
8.7471414e-04
-1.8397542e-03
-3.0508688e-03
-4.0624757e-03
-6.0618550e-03
-7.6409834e-03
-7.4723964e-03
-7.1333483e-03
-7.0149114e-03
-7.2317782e-03
-7.9725640e-03
-8.6924897e-03
-9.3367529e-03
-9.2816888e-03
-6.7991710e-03
-2.3847064e-04
7.0805232e-03
9.4603090e-03
8.9938715e-03
1.0034487e-02
1.1924409e-02
1.2916653e-02
1.3798707e-02
1.6313115e-02
2.0130323e-02
2.3753911e-02
2.5617606e-02
2.7644786e-02
3.4266969e-02
4.6143410e-02
6.0982210e-02
7.8250546e-02
9.9345960e-02
1.2501448e-01
1.5483935e-01
1.8673280e-01
2.1728925e-01
2.4033932e-01
2.4399620e-01
2.0597667e-01
8.4750654e-02
-9.2499113e-02
-2.1584819e-01
-2.5362220e-01
-2.4520659e-01
-2.1560429e-01
-1.8070794e-01
-1.4832740e-01
-1.1971678e-01
-9.4303747e-02
-7.2800208e-02
-5.5169499e-02
-3.9954625e-02
-2.7306188e-02
-1.8435067e-02
-1.2530650e-02
-8.3766763e-03
-6.3765945e-03
-5.9619251e-03
-5.9119029e-03
-5.9870985e-03
-5.9347041e-03
-5.5802155e-03
-5.3362883e-03
-5.8357271e-03
-6.7083371e-03
-6.8748544e-03
-7.5562520e-03
-9.8781393e-03
-1.2160103e-02
-1.3457081e-02
-1.2817450e-02
-9.8378373e-03
-6.4583544e-03
-3.3978570e-03
4.8029599e-04
3.7873354e-03
4.7527724e-03
4.6655247e-03
4.3563087e-03
3.5359478e-03
2.2401958e-03
2.1872201e-03
5.2800465e-03
1.0440262e-02
1.4814482e-02
1.6571334e-02
1.5882742e-02
1.3936436e-02
1.1653190e-02
9.8520231e-03
8.3811660e-03
5.4661642e-03
7.9339896e-04
-3.0319691e-03
-4.3642017e-03
-5.1575830e-03
-7.2039487e-03
-1.0210729e-02
-1.4424912e-02
-1.9937138e-02
-2.5365498e-02
-3.0269694e-02
-3.6205279e-02
-4.5326319e-02
-5.9578829e-02
-7.8957640e-02
-1.0171684e-01
-1.2790154e-01
-1.5776547e-01
-1.8897325e-01
-2.1898627e-01
-2.4325160e-01
-2.4823905e-01
-2.0960249e-01
-8.8695083e-02
8.6200320e-02
2.0825421e-01
2.4804252e-01
2.4523549e-01
2.2080873e-01
1.8663873e-01
1.5124880e-01
1.1859332e-01
9.0442544e-02
6.7572823e-02
5.0808221e-02
4.0455224e-02
3.4314896e-02
2.8608226e-02
2.3095113e-02
2.0572780e-02
1.8977446e-02
1.6324337e-02
1.3317147e-02
1.0038837e-02
8.7027755e-03
1.0479204e-02
1.2392593e-02
1.0592874e-02
4.3118767e-03
-3.0152525e-03
-6.1900185e-03
-4.8932197e-03
-2.9667599e-03
-2.1602102e-03
-2.7642419e-04
3.7360622e-03
5.5362846e-03
3.6705240e-03
5.7492874e-04
-2.0576909e-03
-2.6706241e-03
-3.0314767e-03
-5.3905327e-03
-7.4147054e-03
-6.7835639e-03
-5.0111922e-03
-4.9627765e-03
-6.9474719e-03
-9.4292153e-03
-1.1733634e-02
-1.3719969e-02
-1.5339478e-02
-1.5961691e-02
-1.2418701e-02
-4.6026017e-03
2.4284096e-03
7.0207040e-03
1.0319327e-02
1.2955464e-02
1.4748125e-02
1.4665684e-02
1.2844201e-02
8.9395126e-03
3.6886714e-03
-6.4759031e-04
-4.6962918e-03
-1.0237986e-02
-1.5041830e-02
-1.5386655e-02
-1.3600315e-02
-1.3100862e-02
-1.3344671e-02
-1.2443936e-02
-8.7126397e-03
-3.2976012e-03
7.3523385e-04
1.8092511e-03
1.9105310e-03
3.5615583e-03
5.5293764e-03
5.7277200e-03
4.2759723e-03
3.0878073e-03
3.7137602e-03
4.9349981e-03
5.8796753e-03
7.3819649e-03
8.7694513e-03
8.9034784e-03
9.3146941e-03
1.0526050e-02
9.9467165e-03
8.4766974e-03
9.8902602e-03
1.2849999e-02
1.3843179e-02
1.3042741e-02
1.2232354e-02
1.3466846e-02
1.5980814e-02
1.6092700e-02
1.3401852e-02
9.3514846e-03
2.5585774e-03
-6.6644834e-03
-1.3406477e-02
-1.4987043e-02
-1.2979321e-02
-1.0983398e-02
-1.2182266e-02
-1.4862451e-02
-1.5702237e-02
-1.5348816e-02
-1.6338033e-02
-1.7721646e-02
-1.6954256e-02
-1.5219757e-02
-1.3410132e-02
-1.1129522e-02
-8.5377690e-03
-5.3082483e-03
-2.0093229e-03
2.7407920e-04
2.3216370e-03
3.9465889e-03
2.5328765e-03
-4.3395918e-04
-1.8996220e-03
-1.7292505e-03
-3.6943486e-04
1.0208580e-03
1.3953791e-03
1.2611464e-03
1.5992606e-03
3.6354998e-03
6.8442323e-03
1.0041478e-02
1.4709146e-02
2.0018712e-02
2.3633740e-02
2.7980757e-02
3.5913963e-02
4.6815771e-02
5.9718654e-02
7.5585079e-02
9.5850858e-02
1.2021308e-01
1.4766553e-01
1.7741428e-01
2.0796959e-01
2.3349500e-01
2.3970570e-01
2.0295848e-01
8.6629676e-02
-8.0310548e-02
-1.9598000e-01
-2.3255572e-01
-2.2699381e-01
-2.0268919e-01
-1.7409701e-01
-1.4858354e-01
-1.2622934e-01
-1.0478451e-01
-8.5922737e-02
-7.3346025e-02
-6.7902527e-02
-6.8505295e-02
-7.3549248e-02
-8.2465614e-02
-9.7281802e-02
-1.1752978e-01
-1.4074547e-01
-1.6743245e-01
-1.9862675e-01
-2.3093226e-01
-2.5623598e-01
-2.6050141e-01
-2.1946932e-01
-9.2198745e-02
9.2260121e-02
2.2122334e-01
2.6349703e-01
2.6160674e-01
2.3822507e-01
2.0573333e-01
1.7128191e-01
1.3813773e-01
1.1042259e-01
8.9365344e-02
7.4821379e-02
6.6910336e-02
6.4160187e-02
6.5777843e-02
7.1435367e-02
8.3697001e-02
1.0327516e-01
1.2754250e-01
1.5687427e-01
1.9074538e-01
2.2589657e-01
2.5509711e-01
2.6219820e-01
2.2259765e-01
9.7798392e-02
-8.1504990e-02
-2.0507697e-01
-2.4372475e-01
-2.3860656e-01
-2.1384736e-01
-1.8226649e-01
-1.4930134e-01
-1.1867895e-01
-9.4047648e-02
-7.5331281e-02
-6.0004533e-02
-4.7189087e-02
-3.7313325e-02
-3.0783502e-02
-2.7183576e-02
-2.4870771e-02
-2.1905641e-02
-1.7983164e-02
-1.4947246e-02
-1.3133559e-02
-1.0419174e-02
-7.3457472e-03
-6.0109540e-03
-5.5380110e-03
-4.6350382e-03
-3.1150987e-03
-9.3336153e-04
7.6250947e-04
1.8257383e-04
-2.0850284e-03
-4.6234163e-03
-6.5082891e-03
-7.1707955e-03
-8.8714263e-03
-1.2818809e-02
-1.7400089e-02
-2.2833603e-02
-3.1116233e-02
-4.2940158e-02
-5.7558082e-02
-7.4734407e-02
-9.5426797e-02
-1.2105250e-01
-1.5103160e-01
-1.8292627e-01
-2.1401486e-01
-2.3727007e-01
-2.3956131e-01
-2.0013772e-01
-8.0503681e-02
9.1014682e-02
2.0789387e-01
2.4340421e-01
2.3722706e-01
2.1167370e-01
1.8073203e-01
1.5076587e-01
1.2304373e-01
9.8152187e-02
7.7157572e-02
6.0264630e-02
4.6094357e-02
3.3678960e-02
2.3222870e-02
1.6433722e-02
1.3728306e-02
1.1248960e-02
6.5795005e-03
4.0822536e-04
-5.8186624e-03
-9.2981007e-03
-9.0951432e-03
-6.4900633e-03
-3.6377282e-03
-1.8495025e-03
1.6905629e-04
2.9702211e-03
4.8644298e-03
5.6967689e-03
7.0767342e-03
8.1366926e-03
6.6657136e-03
2.8010264e-03
-1.3063551e-04
-1.5915106e-04
9.2658676e-04
1.3279759e-03
1.0676309e-03
6.5286475e-04
8.9677251e-04
2.7888170e-03
4.9035718e-03
5.7846239e-03
5.8395194e-03
6.5771778e-03
8.6096779e-03
9.1107310e-03
8.3531292e-03
7.7459929e-03
3.3381893e-03
-5.1139551e-03
-1.2072697e-02
-1.5097874e-02
-1.4595300e-02
-1.2051131e-02
-9.3073748e-03
-6.7327091e-03
-4.8863568e-03
-4.1586676e-03
-4.0508428e-03
-3.5207357e-03
-2.3804349e-03
-1.2216112e-03
1.4107818e-03
5.9200831e-03
8.7510504e-03
8.3736981e-03
7.5764547e-03
8.3124594e-03
1.0286105e-02
1.2261598e-02
1.2426463e-02
1.1393744e-02
1.0136906e-02
5.5944971e-03
-9.8663406e-04
-4.6152085e-03
-6.4447764e-03
-8.0690474e-03
-8.1830883e-03
-6.1219957e-03
-2.5632494e-03
1.0772908e-03
4.7141595e-03
8.9962337e-03
1.3029809e-02
1.6434332e-02
2.3470376e-02
3.6212621e-02
5.0949944e-02
6.6751059e-02
8.5413726e-02
1.0857827e-01
1.3783086e-01
1.7096080e-01
2.0233469e-01
2.2539306e-01
2.2946401e-01
1.9429850e-01
8.1838746e-02
-8.2284820e-02
-1.9619525e-01
-2.3225338e-01
-2.2788962e-01
-2.0579033e-01
-1.7877854e-01
-1.5116368e-01
-1.2527859e-01
-1.0349221e-01
-8.5709476e-02
-7.2568142e-02
-6.5187927e-02
-6.2666040e-02
-6.3971658e-02
-6.9041280e-02
-7.8995395e-02
-9.4519574e-02
-1.1534967e-01
-1.4053783e-01
-1.6823164e-01
-1.9556384e-01
-2.1606492e-01
-2.1823963e-01
-1.8201945e-01
-7.0251028e-02
9.0705756e-02
2.0071379e-01
2.3441017e-01
2.2836724e-01
2.0256235e-01
1.7103296e-01
1.4187590e-01
1.1565914e-01
9.0136675e-02
6.6769336e-02
4.9181329e-02
3.6463238e-02
2.6580931e-02
1.8560515e-02
1.0233421e-02
2.0181755e-03
-3.5402581e-03
-6.4859807e-03
-1.0031751e-02
-1.5701139e-02
-2.0835925e-02
-2.3064819e-02
-2.2818020e-02
-1.9893870e-02
-1.0067264e-02
3.6843328e-03
1.2485845e-02
1.6557373e-02
1.8041719e-02
1.6465275e-02
1.3378823e-02
1.1552075e-02
1.1617502e-02
1.0681802e-02
8.6246004e-03
7.3281249e-03
5.9004629e-03
4.1264480e-03
2.1378786e-03
6.1837582e-04
1.7138196e-03
5.7420333e-03
1.0141411e-02
1.3841282e-02
1.7022651e-02
1.8649187e-02
1.9655375e-02
1.9003767e-02
1.4238598e-02
3.9497636e-03
-9.1416079e-03
-1.6712147e-02
-1.7895900e-02
-1.6323146e-02
-1.2516424e-02
-8.2666263e-03
-4.5760766e-03
-1.1730136e-03
8.3700357e-04
6.7551172e-04
4.5426745e-04
2.8927939e-03
6.2060950e-03
6.1275086e-03
3.4489156e-03
1.4374871e-03
-2.3749489e-04
-2.2637920e-03
-3.4651048e-03
-2.9190062e-03
-1.3629272e-03
-1.0402654e-03
-2.7776293e-03
-4.3509176e-03
-4.2084849e-03
-4.0009962e-03
-5.1524796e-03
-5.9714113e-03
-5.1221910e-03
-3.7971875e-03
-2.6943279e-03
-9.2322520e-04
2.0887206e-04
-1.6549481e-03
-2.8919499e-03
-6.6047320e-04
2.4356897e-03
4.5837491e-03
4.6801112e-03
1.6710803e-03
-3.0609407e-03
-5.3241654e-03
-4.9802455e-03
-4.6094663e-03
-3.7136846e-03
-2.3107813e-03
-2.4700985e-04
2.2992017e-03
2.6508458e-03
-1.8988291e-04
-3.1887170e-03
-2.6101149e-03
8.7446881e-04
3.5080507e-03
3.6610608e-03
2.7398155e-03
2.2402632e-03
1.8829363e-03
1.4696449e-03
1.8546336e-03
3.3549906e-03
3.5779303e-03
6.7644688e-04
-3.0152152e-03
-4.9339073e-03
-4.7073571e-03
-4.1772712e-03
-5.9021492e-03
-9.3373514e-03
-1.1466024e-02
-1.1913059e-02
-1.2213498e-02
-1.2170364e-02
-1.1108513e-02
-6.8698108e-03
8.2745167e-04
8.4179719e-03
1.4213201e-02
1.6513375e-02
1.4951970e-02
1.3034157e-02
1.1377242e-02
8.9060234e-03
5.8190248e-03
3.0279247e-03
1.4259224e-03
-1.2586211e-04
-8.5243929e-04
5.7579185e-04
2.6841305e-03
4.4892894e-03
6.0366813e-03
7.6023511e-03
8.6020170e-03
7.7811099e-03
6.8773783e-03
7.7949797e-03
7.6851824e-03
3.5932046e-03
-2.6288497e-03
-7.4668560e-03
-9.0505165e-03
-7.1886941e-03
-3.6329916e-03
-7.3058253e-04
3.3271895e-04
-2.0725498e-04
-2.3333467e-05
2.9032636e-03
7.3001217e-03
1.2244234e-02
1.8761676e-02
2.6507103e-02
3.5502151e-02
4.8434818e-02
6.7265848e-02
9.0946661e-02
1.1748770e-01
1.4682333e-01
1.7885290e-01
2.1060883e-01
2.3617845e-01
2.4342788e-01
2.0934142e-01
9.4561396e-02
-7.3787063e-02
-1.9120721e-01
-2.2920328e-01
-2.2620696e-01
-2.0412675e-01
-1.7528147e-01
-1.4596029e-01
-1.1822028e-01
-9.3594620e-02
-7.4115929e-02
-5.9410638e-02
-4.6835673e-02
-3.4425245e-02
-2.2788972e-02
-1.4990890e-02
-1.1252651e-02
-8.9379909e-03
-7.1054530e-03
-5.3368669e-03
-3.8940185e-03
-3.5573413e-03
-3.6219655e-03
-2.7521314e-03
-8.6847504e-04
1.8630989e-04
-3.3287839e-04
-1.6453365e-03
-3.1376547e-03
-3.9311171e-03
-4.4449372e-03
-6.1272293e-03
-8.7335465e-03
-1.0750781e-02
-1.2528707e-02
-1.5637150e-02
-2.0182200e-02
-2.6318048e-02
-3.4425179e-02
-4.4780508e-02
-5.8075242e-02
-7.4248496e-02
-9.3433212e-02
-1.1644488e-01
-1.4314886e-01
-1.7192310e-01
-2.0030384e-01
-2.2264444e-01
-2.2648474e-01
-1.9009788e-01
-7.6256045e-02
8.8587487e-02
2.0359257e-01
2.4123877e-01
2.3906007e-01
2.1766800e-01
1.8611466e-01
1.5174172e-01
1.2243038e-01
9.9760086e-02
8.2112695e-02
6.9951949e-02
6.3730934e-02
6.4074307e-02
6.8281374e-02
7.2927541e-02
8.0002689e-02
9.2485594e-02
1.1138590e-01
1.3698756e-01
1.6729190e-01
1.9771650e-01
2.2233490e-01
2.2982637e-01
1.9692453e-01
8.4137011e-02
-8.0867612e-02
-1.9513141e-01
-2.3041044e-01
-2.2379470e-01
-1.9792329e-01
-1.6616374e-01
-1.3559946e-01
-1.0831209e-01
-8.5246718e-02
-6.7313947e-02
-5.2924236e-02
-4.1196085e-02
-3.2547294e-02
-2.6086659e-02
-2.0686543e-02
-1.6084656e-02
-1.3131438e-02
-1.1845489e-02
-1.1232814e-02
-1.1428317e-02
-1.1267710e-02
-9.1023615e-03
-7.0712501e-03
-7.1746821e-03
-8.0627717e-03
-7.7569619e-03
-5.9020029e-03
-3.6910305e-03
-1.5783025e-03
1.6196514e-04
3.0131827e-04
-7.1020282e-04
-1.1670452e-03
-1.0384837e-03
-2.7838939e-03
-7.8951753e-03
-1.4176925e-02
-2.1120550e-02
-3.1372176e-02
-4.5555712e-02
-6.1732901e-02
-8.1216281e-02
-1.0846383e-01
-1.4380248e-01
-1.8264135e-01
-2.1864601e-01
-2.4547847e-01
-2.5239676e-01
-2.1582789e-01
-9.4473004e-02
8.2961298e-02
2.0714375e-01
2.4704563e-01
2.4060948e-01
2.1182264e-01
1.7723897e-01
1.4553376e-01
1.1962842e-01
9.9430697e-02
8.3401216e-02
7.1107030e-02
6.3606367e-02
6.1005506e-02
6.3072009e-02
7.1566610e-02
8.7464403e-02
1.0856237e-01
1.3329706e-01
1.6184156e-01
1.9385588e-01
2.2660206e-01
2.5240613e-01
2.5709856e-01
2.1543008e-01
8.7893618e-02
-9.3394568e-02
-2.1822626e-01
-2.5655745e-01
-2.5050220e-01
-2.2580469e-01
-1.9402899e-01
-1.6099702e-01
-1.3045622e-01
-1.0360809e-01
-8.0424196e-02
-6.0318902e-02
-4.4425717e-02
-3.3588733e-02
-2.5337201e-02
-1.7343637e-02
-9.0135753e-03
-8.7332517e-04
5.2171130e-03
7.5304678e-03
7.0180233e-03
5.9700954e-03
4.4626861e-03
2.6905645e-03
1.9843079e-03
1.4099318e-03
4.0748146e-04
-7.9327468e-04
-2.9022596e-03
-3.9944372e-03
-3.0475416e-03
-2.4116169e-03
-3.1888833e-03
-6.2293897e-03
-1.0196929e-02
-1.2897869e-02
-1.6467518e-02
-2.2391298e-02
-3.0570634e-02
-4.2264973e-02
-5.7912265e-02
-7.6328081e-02
-9.7932411e-02
-1.2386136e-01
-1.5310055e-01
-1.8492010e-01
-2.1757132e-01
-2.4358866e-01
-2.4893715e-01
-2.1027724e-01
-8.7200889e-02
8.9927721e-02
2.1082204e-01
2.4736271e-01
2.4054271e-01
2.1471722e-01
1.8342742e-01
1.5109436e-01
1.2106190e-01
9.7106188e-02
7.9449645e-02
6.7940882e-02
6.2757702e-02
6.3367855e-02
6.8846887e-02
7.7871544e-02
9.0351102e-02
1.0738439e-01
1.3063007e-01
1.5992550e-01
1.9171813e-01
2.2191400e-01
2.4404501e-01
2.4571476e-01
2.0700056e-01
9.0060664e-02
-7.9854806e-02
-1.9869540e-01
-2.3701419e-01
-2.3303054e-01
-2.0937614e-01
-1.7760029e-01
-1.4426297e-01
-1.1452821e-01
-9.0238823e-02
-7.0820608e-02
-5.4639401e-02
-4.0766106e-02
-3.0024871e-02
-2.2331497e-02
-1.7758871e-02
-1.5623916e-02
-1.3482324e-02
-1.0209434e-02
-5.9497901e-03
-2.7271449e-03
-1.7991223e-03
-9.7836518e-04
-7.4977666e-05
-7.8019143e-04
-2.1611181e-03
-2.9095289e-03
-3.2613888e-03
-3.7311839e-03
-3.4831050e-03
-1.9723026e-03
-9.5948793e-04
-1.1626616e-03
-9.2015536e-04
-1.5243003e-04
-7.6289650e-04
-2.2870395e-03
-3.0136441e-03
-3.5003829e-03
-3.4333436e-03
-2.9007696e-03
-3.5154143e-03
-4.3632150e-03
-4.7352153e-03
-5.4908712e-03
-5.7868780e-03
-3.3114280e-03
4.3312367e-04
1.4892762e-03
-9.6139605e-06
-1.1946760e-03
-3.5879848e-04
1.4111593e-03
2.1158359e-03
1.6474121e-03
4.1202996e-04
-8.0418700e-04
-6.3929810e-04
-3.8180902e-04
-2.6009312e-03
-6.6665579e-03
-1.1956300e-02
-1.9990142e-02
-3.0240116e-02
-4.2109532e-02
-5.6848818e-02
-7.5595766e-02
-9.9306231e-02
-1.2760773e-01
-1.5969541e-01
-1.9409302e-01
-2.2601228e-01
-2.5055080e-01
-2.5766341e-01
-2.2094171e-01
-9.6674544e-02
8.4809201e-02
2.1112550e-01
2.5105679e-01
2.4452568e-01
2.1645224e-01
1.8180487e-01
1.4708105e-01
1.1637229e-01
9.2487493e-02
7.2438064e-02
5.3699753e-02
3.9528848e-02
3.1033252e-02
2.5231018e-02
1.9209325e-02
1.3636999e-02
1.0521059e-02
8.0120930e-03
4.3181970e-03
-1.0358103e-04
-4.8516593e-03
-9.3539062e-03
-1.1492820e-02
-9.2099613e-03
-2.3209643e-03
5.2579720e-03
8.3178122e-03
7.2811947e-03
5.2790472e-03
5.0259516e-03
8.5556658e-03
1.3083668e-02
1.4914783e-02
1.6254707e-02
1.9082552e-02
2.3607154e-02
3.1100796e-02
4.0494213e-02
5.0508319e-02
6.4303738e-02
8.3851285e-02
1.0656525e-01
1.3263594e-01
1.6348064e-01
1.9834583e-01
2.3358277e-01
2.6053674e-01
2.6546991e-01
2.2391042e-01
9.3554350e-02
-9.4247781e-02
-2.2495968e-01
-2.6679872e-01
-2.6062747e-01
-2.3321358e-01
-2.0076977e-01
-1.6921644e-01
-1.3983574e-01
-1.1448762e-01
-9.5213733e-02
-8.2486016e-02
-7.5742685e-02
-7.2948041e-02
-7.3416631e-02
-7.9522168e-02
-9.2545808e-02
-1.1196003e-01
-1.3719027e-01
-1.6793981e-01
-2.0261474e-01
-2.3669106e-01
-2.6198338e-01
-2.6512165e-01
-2.2264617e-01
-9.2144271e-02
9.5587283e-02
2.2422207e-01
2.6246396e-01
2.5427622e-01
2.2534807e-01
1.9018099e-01
1.5681401e-01
1.2704227e-01
1.0007770e-01
7.6563138e-02
5.7466465e-02
4.3717029e-02
3.5366360e-02
2.9851633e-02
2.5499808e-02
2.1921887e-02
1.8673523e-02
1.7608895e-02
1.9563885e-02
2.2801186e-02
2.6592583e-02
2.9394631e-02
2.9971656e-02
2.7668777e-02
1.8528012e-02
3.7460899e-03
-8.0071995e-03
-1.3477653e-02
-1.5720465e-02
-1.5752928e-02
-1.3461336e-02
-1.0695106e-02
-6.4506195e-03
-3.1381561e-04
5.8500699e-03
1.2146020e-02
1.8873378e-02
2.7492874e-02
3.9575066e-02
5.3944683e-02
6.8785124e-02
8.6231038e-02
1.0904142e-01
1.3675919e-01
1.6706124e-01
1.9727319e-01
2.2283722e-01
2.3002693e-01
1.9453509e-01
7.8203735e-02
-9.0638406e-02
-2.0615155e-01
-2.3997820e-01
-2.3217272e-01
-2.0545685e-01
-1.7227107e-01
-1.3992628e-01
-1.1276702e-01
-9.2708937e-02
-7.9246329e-02
-7.0810285e-02
-6.6248373e-02
-6.6074866e-02
-7.0967885e-02
-7.9660172e-02
-9.1251015e-02
-1.0691104e-01
-1.2842719e-01
-1.5565563e-01
-1.8616192e-01
-2.1629155e-01
-2.3970298e-01
-2.4427563e-01
-2.0660380e-01
-8.6594119e-02
8.6401698e-02
2.0493128e-01
2.4206034e-01
2.3857469e-01
2.1579697e-01
1.8658040e-01
1.5866163e-01
1.3381018e-01
1.1359840e-01
9.8886968e-02
8.6801031e-02
7.6416644e-02
6.9575292e-02
6.7812651e-02
7.1975698e-02
8.1543154e-02
9.6034329e-02
1.1590609e-01
1.4225432e-01
1.7534744e-01
2.1097477e-01
2.3968067e-01
2.4747813e-01
2.1042386e-01
8.9098011e-02
-8.5834794e-02
-2.0623213e-01
-2.4295279e-01
-2.3636398e-01
-2.1047210e-01
-1.7868065e-01
-1.4830278e-01
-1.2058826e-01
-9.4584299e-02
-7.2309551e-02
-5.5838225e-02
-4.3233515e-02
-3.2121680e-02
-2.3161675e-02
-1.7427323e-02
-1.3838521e-02
-1.1039268e-02
-9.4748527e-03
-9.5892784e-03
-1.0365687e-02
-1.1009222e-02
-1.1156344e-02
-1.0202785e-02
-7.8421514e-03
-5.4049488e-03
-4.2956110e-03
-3.8156022e-03
-2.7589085e-03
-9.9873588e-04
3.8372352e-05
-7.1331750e-04
-1.8508972e-03
-1.9444757e-03
-2.7676408e-03
-6.7129287e-03
-1.2400018e-02
-1.7151335e-02
-2.2579467e-02
-3.1993755e-02
-4.5426268e-02
-6.2395363e-02
-8.2813445e-02
-1.0668892e-01
-1.3572865e-01
-1.6867578e-01
-2.0036419e-01
-2.2535336e-01
-2.3212306e-01
-1.9743260e-01
-8.3136762e-02
8.2082962e-02
1.9621893e-01
2.3460287e-01
2.3358632e-01
2.1281693e-01
1.8359477e-01
1.5166760e-01
1.2324664e-01
1.0084802e-01
8.1212144e-02
6.3886709e-02
5.4171881e-02
5.4648071e-02
6.0244536e-02
6.6087230e-02
7.5589173e-02
9.3634215e-02
1.1895508e-01
1.4759920e-01
1.7718663e-01
2.0666510e-01
2.3139715e-01
2.3733304e-01
2.0030911e-01
8.3977954e-02
-8.3012187e-02
-1.9883346e-01
-2.3667356e-01
-2.3405241e-01
-2.1165791e-01
-1.8194555e-01
-1.5280796e-01
-1.2718955e-01
-1.0518260e-01
-8.6445865e-02
-7.1347930e-02
-6.1925376e-02
-5.8172702e-02
-5.8221958e-02
-6.2643420e-02
-7.2991741e-02
-8.9894760e-02
-1.1280822e-01
-1.3969630e-01
-1.6721118e-01
-1.9309450e-01
-2.1403005e-01
-2.1801704e-01
-1.8182277e-01
-6.8973385e-02
9.2106930e-02
2.0034942e-01
2.3037907e-01
2.2237280e-01
1.9795238e-01
1.6774945e-01
1.3755294e-01
1.0972122e-01
8.4824979e-02
6.3229194e-02
4.5692708e-02
3.1710900e-02
2.0205019e-02
1.1276916e-02
4.1550387e-03
-2.1135961e-03
-5.5711934e-03
-6.6859115e-03
-8.8379062e-03
-1.1831068e-02
-1.3478573e-02
-1.2988723e-02
-1.1918994e-02
-1.1781884e-02
-8.5358158e-03
-2.2789134e-04
6.9729059e-03
1.0319167e-02
1.1666824e-02
1.2077168e-02
1.1652754e-02
1.0078602e-02
9.3115810e-03
1.0232752e-02
1.1082244e-02
1.0268505e-02
7.4778323e-03
4.8135647e-03
3.6329235e-03
2.2491104e-03
-1.6174662e-04
-1.7639332e-03
-1.7211995e-03
-9.0129547e-04
6.6574603e-04
2.9644249e-03
4.8372748e-03
5.8455573e-03
6.0674176e-03
4.2188859e-03
-4.9001405e-04
-5.6390643e-03
-7.8485527e-03
-6.2725948e-03
-1.8131963e-03
2.5245045e-03
3.2124012e-03
1.3498058e-03
3.0092044e-04
-2.8255241e-04
-6.0301673e-04
5.4563930e-04
1.4806962e-03
2.4869753e-03
3.4978221e-03
1.1779970e-03
-3.5630590e-03
-5.9652346e-03
-4.8991844e-03
-2.7889397e-03
-9.2802323e-04
2.5300541e-04
