1.2014296e-04
-1.4810600e-03
-1.9479877e-03
-1.0667412e-03
2.1574319e-04
9.0264370e-04
9.7905891e-04
1.0739104e-03
1.4684855e-03
1.6930916e-03
1.6403198e-03
1.3626973e-03
7.5469991e-04
3.9368341e-04
6.2095051e-04
7.8490379e-04
3.6234442e-04
3.4632113e-04
1.1505876e-03
1.6416003e-03
1.5291283e-03
8.5548978e-04
-2.7049318e-04
-1.1989202e-03
-2.0104668e-03
-2.8594339e-03
-2.7746886e-03
-8.9834443e-04
1.9192781e-03
4.2021012e-03
5.3655863e-03
5.6219873e-03
5.8703002e-03
6.5262535e-03
7.0304167e-03
6.6284069e-03
5.2672524e-03
3.5060796e-03
1.0259345e-03
-2.5829643e-03
-6.2179765e-03
-8.5279485e-03
-9.5050265e-03
-9.9347685e-03
-1.0368132e-02
-9.8061490e-03
-6.0483220e-03
2.0301004e-03
1.2937903e-02
2.2428277e-02
2.7237917e-02
2.7188386e-02
2.3111064e-02
1.6341995e-02
8.2266480e-03
-3.4998469e-05
-7.0478661e-03
-1.1640047e-02
-1.3235980e-02
-1.1850392e-02
-6.9399417e-03
2.1991570e-03
1.4281160e-02
2.6476247e-02
3.7086777e-02
4.6432827e-02
5.5594110e-02
6.4907682e-02
7.4150002e-02
8.2426132e-02
8.8199715e-02
8.9849625e-02
8.3767661e-02
6.2061878e-02
1.0622523e-02
-5.9169658e-02
-1.0660077e-01
-1.2075570e-01
-1.1721110e-01
-1.0490027e-01
-8.8249083e-02
-7.0094176e-02
-5.1742358e-02
-3.3692814e-02
-1.8184855e-02
-7.4026089e-03
-1.2637806e-03
3.3657841e-04
-2.9234502e-03
-9.8418884e-03
-1.9087763e-02
-2.9755585e-02
-4.1230764e-02
-5.4354013e-02
-6.9306999e-02
-8.3787679e-02
-9.4506951e-02
-9.7568299e-02
-8.5170527e-02
-4.3363965e-02
1.7448008e-02
5.9700565e-02
7.3721124e-02
7.3615795e-02
6.7324430e-02
5.9082121e-02
5.0377983e-02
4.1578009e-02
3.3715503e-02
2.8003993e-02
2.4873025e-02
2.4226658e-02
2.5231847e-02
2.6713704e-02
2.9073604e-02
3.3073291e-02
3.8569904e-02
4.5620876e-02
5.5269704e-02
6.7728692e-02
8.0005734e-02
8.8774570e-02
9.0347081e-02
7.6596418e-02
3.3104037e-02
-2.9400296e-02
-7.2364984e-02
-8.6222168e-02
-8.5171880e-02
-7.7033061e-02
-6.6241447e-02
-5.4564535e-02
-4.2795832e-02
-3.2388646e-02
-2.4070699e-02
-1.7102293e-02
-1.1491168e-02
-7.9904009e-03
-6.0409448e-03
-4.0051188e-03
-9.9286265e-04
1.5413842e-03
2.7791727e-03
4.3268678e-03
6.3153163e-03
7.6175430e-03
8.0524005e-03
7.4991906e-03
6.5231041e-03
5.0427073e-03
1.8857137e-03
-1.9082842e-03
-4.7551602e-03
-6.7701888e-03
-8.5689496e-03
-9.9296971e-03
-1.0205786e-02
-9.9771710e-03
-9.9337263e-03
-9.5256871e-03
-8.6575801e-03
-7.7996170e-03
-6.7234078e-03
-4.7827835e-03
-2.6099153e-03
-1.9688922e-03
-2.5628646e-03
-2.3920287e-03
-1.5465657e-03
-1.8798362e-03
-3.3953194e-03
-4.6592450e-03
-5.0484941e-03
-4.4557238e-03
-2.2146516e-03
1.1182238e-03
3.7399702e-03
5.4536182e-03
6.3647479e-03
5.9324992e-03
4.4151029e-03
3.0653017e-03
2.7553965e-03
3.2861637e-03
3.8637039e-03
3.8318005e-03
3.1727990e-03
2.0637774e-03
1.1816746e-03
1.6773326e-03
3.1384557e-03
3.6900930e-03
3.3060835e-03
3.4277836e-03
3.8690948e-03
4.0619453e-03
4.5193316e-03
4.8495456e-03
4.6574652e-03
3.5917626e-03
1.2969252e-03
-4.0277455e-04
-9.3054993e-04
-1.2490413e-03
-9.0793990e-04
-9.5887033e-05
-3.7447104e-04
-2.1154370e-03
-4.2351319e-03
-6.4747744e-03
-9.1636050e-03
-1.2427240e-02
-1.6691050e-02
-2.2239433e-02
-2.8563826e-02
-3.6102295e-02
-4.5410000e-02
-5.5034610e-02
-6.4526606e-02
-7.4656089e-02
-8.4541333e-02
-9.1597901e-02
-9.1977487e-02
-7.7600678e-02
-3.1954689e-02
3.4780692e-02
8.0638208e-02
9.4956689e-02
9.3445483e-02
8.4195792e-02
7.1755340e-02
5.8993392e-02
4.7919593e-02
3.9470715e-02
3.3257107e-02
2.8538368e-02
2.5238468e-02
2.4400498e-02
2.6286548e-02
2.9756336e-02
3.4259223e-02
4.0064889e-02
4.8300937e-02
5.9688909e-02
7.2718901e-02
8.4534124e-02
9.2543970e-02
9.3412190e-02
7.8914764e-02
3.3194377e-02
-3.2744520e-02
-7.7799937e-02
-9.1940476e-02
-9.0181346e-02
-8.0084653e-02
-6.6999889e-02
-5.4616004e-02
-4.3432231e-02
-3.3457313e-02
-2.6077631e-02
-2.1928783e-02
-2.0563379e-02
-2.1495962e-02
-2.4222335e-02
-2.8102385e-02
-3.2929023e-02
-3.9586701e-02
-4.9272909e-02
-6.1163417e-02
-7.3202517e-02
-8.4833505e-02
-9.4630012e-02
-9.7715446e-02
-8.4743487e-02
-4.0376830e-02
2.4387132e-02
6.9365885e-02
8.4278519e-02
8.4470888e-02
7.8044415e-02
6.8314848e-02
5.7130210e-02
4.6600208e-02
3.8058945e-02
3.1447180e-02
2.7032307e-02
2.5528570e-02
2.6283152e-02
2.7813368e-02
2.9505042e-02
3.2403377e-02
3.8829912e-02
4.9652717e-02
6.3011919e-02
7.6962118e-02
8.9846648e-02
9.8832240e-02
1.0006910e-01
8.5324025e-02
3.8335427e-02
-2.9939644e-02
-7.6976884e-02
-9.1514656e-02
-9.0452776e-02
-8.2995834e-02
-7.2303580e-02
-5.9904735e-02
-4.7463129e-02
-3.6933504e-02
-2.9008170e-02
-2.2537031e-02
-1.6636405e-02
-1.1683710e-02
-8.0806468e-03
-5.4315277e-03
-3.5254730e-03
-2.4487915e-03
-2.0690670e-03
-1.4642515e-03
-6.8435767e-04
-6.5331561e-04
-7.3744826e-04
-5.6286071e-04
-8.9428862e-04
-1.7099681e-03
-2.5405625e-03
-3.3231017e-03
-3.4417483e-03
-3.1988738e-03
-3.7556186e-03
-5.0927248e-03
-5.9710887e-03
-5.3861577e-03
-4.6633956e-03
-5.2603333e-03
-5.2813099e-03
-3.2444697e-03
-8.0920017e-04
5.8608785e-04
9.6805444e-04
1.7753089e-03
3.4604392e-03
4.0643522e-03
3.3368517e-03
2.6730366e-03
2.2115856e-03
1.8228274e-03
1.4512957e-03
1.1047189e-03
1.2945227e-03
1.8881180e-03
1.7831692e-03
8.6881971e-04
2.3637430e-04
8.3893384e-04
2.4178776e-03
3.1174491e-03
2.3631423e-03
1.3988508e-03
3.0143311e-04
-6.7579912e-04
-6.9238788e-05
1.5548926e-03
2.6025370e-03
3.1698124e-03
3.2159099e-03
2.0193818e-03
6.1154012e-04
4.0590266e-04
1.4975530e-03
3.9928880e-03
7.0266941e-03
9.0275869e-03
8.7332121e-03
5.5256371e-03
1.9714106e-03
1.0954761e-04
-1.3553543e-03
-2.2626588e-03
-2.2831280e-03
-2.5744426e-03
-3.7187145e-03
-5.8355420e-03
-8.6499709e-03
-1.1636658e-02
-1.4138510e-02
-1.6385368e-02
-1.9731666e-02
-2.4753406e-02
-3.0508919e-02
-3.6491197e-02
-4.3704434e-02
-5.2955024e-02
-6.3477883e-02
-7.4038896e-02
-8.5055315e-02
-9.5210822e-02
-9.7690742e-02
-8.2366944e-02
-3.4042268e-02
3.5876407e-02
8.4564842e-02
9.9988818e-02
9.7397917e-02
8.6697434e-02
7.3908133e-02
6.0735654e-02
4.7753818e-02
3.6397941e-02
2.8006108e-02
2.2510122e-02
1.8509729e-02
1.4875747e-02
1.1974490e-02
1.0624737e-02
9.6166788e-03
7.2991826e-03
4.4673581e-03
2.7588489e-03
2.5584809e-03
2.7843517e-03
2.4140283e-03
1.8301710e-03
1.5569632e-03
1.6721606e-03
1.6572339e-03
1.0993283e-03
6.5296078e-04
8.6100118e-04
1.8940900e-03
3.4798051e-03
4.7256405e-03
5.2495258e-03
5.0791473e-03
4.4450473e-03
3.8578752e-03
2.6493051e-03
2.3390430e-04
-1.7452923e-03
-2.0675504e-03
-2.1368118e-03
-3.2612818e-03
-5.2583896e-03
-7.7005542e-03
-9.3236681e-03
-9.2055443e-03
-8.5683423e-03
-8.0763336e-03
-6.9236806e-03
-4.9464490e-03
-2.8304725e-03
-1.5858260e-03
-9.2430917e-04
2.5262263e-05
7.8634250e-04
8.7654572e-04
1.1297204e-03
2.3709790e-03
4.1078356e-03
5.8722549e-03
7.7165713e-03
9.7792430e-03
1.2449795e-02
1.6596307e-02
2.2684879e-02
2.9948707e-02
3.7638497e-02
4.6608271e-02
5.8079732e-02
7.0834655e-02
8.2374649e-02
9.0969790e-02
9.2879176e-02
7.9296072e-02
3.5376892e-02
-2.9072250e-02
-7.4895807e-02
-9.0441597e-02
-8.9263444e-02
-7.9373406e-02
-6.6622592e-02
-5.4676516e-02
-4.4572274e-02
-3.6573225e-02
-3.0394099e-02
-2.6172889e-02
-2.4495491e-02
-2.4501838e-02
-2.5247243e-02
-2.7149695e-02
-3.0899351e-02
-3.6411472e-02
-4.3421141e-02
-5.2532734e-02
-6.3856745e-02
-7.5961996e-02
-8.6206781e-02
-8.9426397e-02
-7.7651446e-02
-3.6692597e-02
2.4951628e-02
6.8465299e-02
8.2236330e-02
8.0591669e-02
7.1961857e-02
6.1084253e-02
5.0320483e-02
4.1234995e-02
3.4376349e-02
2.9238666e-02
2.5812080e-02
2.3950579e-02
2.3362674e-02
2.4072476e-02
2.6460150e-02
3.1095735e-02
3.8355346e-02
4.8149357e-02
5.9056298e-02
6.9779090e-02
8.0479006e-02
8.9911292e-02
9.3037556e-02
8.0209112e-02
3.5867051e-02
-2.9132993e-02
-7.4771722e-02
-8.9964292e-02
-8.8452807e-02
-7.8903040e-02
-6.6873731e-02
-5.4471935e-02
-4.2189342e-02
-3.1558775e-02
-2.3310492e-02
-1.6488144e-02
-1.1285517e-02
-8.3456304e-03
-7.0755574e-03
-5.8953076e-03
-3.8169190e-03
-1.5588151e-03
2.6616755e-04
1.6669108e-03
2.6762405e-03
3.6229507e-03
4.6226406e-03
5.5097842e-03
6.0174045e-03
5.2719733e-03
3.3373466e-03
1.4913005e-03
-1.8599332e-04
-2.0886465e-03
-4.1482193e-03
-6.7184228e-03
-9.5088538e-03
-1.1063184e-02
-1.1701237e-02
-1.3332667e-02
-1.5918406e-02
-1.8249262e-02
-2.0398213e-02
-2.3359979e-02
-2.7623180e-02
-3.3032343e-02
-3.9035012e-02
-4.6040585e-02
-5.5902592e-02
-6.8653177e-02
-8.1391907e-02
-9.0532274e-02
-9.1831475e-02
-7.6765361e-02
-3.0342780e-02
3.5757129e-02
8.0667337e-02
9.4100056e-02
9.1886108e-02
8.3406966e-02
7.3193727e-02
6.2211137e-02
5.1388777e-02
4.2384245e-02
3.5736808e-02
3.1065048e-02
2.7501572e-02
2.5114895e-02
2.5028503e-02
2.7453816e-02
3.2323337e-02
3.9649277e-02
4.9072740e-02
6.0971403e-02
7.4935594e-02
8.7880112e-02
9.6243473e-02
9.6125897e-02
7.9757033e-02
3.2435821e-02
-3.4972416e-02
-8.0962924e-02
-9.4457646e-02
-9.2068217e-02
-8.2692923e-02
-7.0445556e-02
-5.8167617e-02
-4.6916951e-02
-3.7181270e-02
-3.0077727e-02
-2.5684506e-02
-2.3728982e-02
-2.4079957e-02
-2.6162793e-02
-3.0033104e-02
-3.5019983e-02
-4.1323866e-02
-5.1643694e-02
-6.5921072e-02
-8.0554016e-02
-9.2556710e-02
-1.0021623e-01
-1.0017744e-01
-8.4058809e-02
-3.6610617e-02
3.1423703e-02
7.8527332e-02
9.3032059e-02
9.1229661e-02
8.2465310e-02
7.1006087e-02
5.9621295e-02
4.9744732e-02
4.1548937e-02
3.4730846e-02
2.9295114e-02
2.5948733e-02
2.5030436e-02
2.6174389e-02
2.8751080e-02
3.2995451e-02
3.9521492e-02
4.8144370e-02
5.8723188e-02
7.0050544e-02
8.0451490e-02
8.8771901e-02
9.0966966e-02
7.8006868e-02
3.5021638e-02
-2.7565053e-02
-7.0536202e-02
-8.4015912e-02
-8.3110630e-02
-7.5909128e-02
-6.6245334e-02
-5.5785927e-02
-4.5556005e-02
-3.6791107e-02
-3.0374703e-02
-2.5742648e-02
-2.2500376e-02
-2.1586472e-02
-2.3632965e-02
-2.8083875e-02
-3.3924795e-02
-4.0606323e-02
-4.8490230e-02
-5.8323049e-02
-6.9876061e-02
-8.1393552e-02
-9.0233329e-02
-9.2306603e-02
-7.9360566e-02
-3.6582613e-02
2.5580009e-02
6.8273350e-02
8.1773956e-02
8.0472548e-02
7.2223872e-02
6.1969873e-02
5.2688947e-02
4.4994296e-02
3.7647936e-02
3.0787875e-02
2.6155109e-02
2.3975467e-02
2.3552488e-02
2.4350207e-02
2.6680560e-02
3.1650006e-02
3.8745125e-02
4.6921545e-02
5.6582655e-02
6.7580536e-02
7.8448851e-02
8.6985238e-02
8.8494564e-02
7.4304784e-02
2.9866772e-02
-3.4623665e-02
-7.9969962e-02
-9.5782517e-02
-9.5428951e-02
-8.5801037e-02
-7.2540387e-02
-5.8930956e-02
-4.6339091e-02
-3.5995902e-02
-2.7811752e-02
-2.1034209e-02
-1.5366530e-02
-1.1241455e-02
-8.8437297e-03
-7.3142843e-03
-5.8707542e-03
-3.9521153e-03
-9.6725660e-04
2.6580395e-03
4.7440023e-03
4.1324730e-03
2.1045561e-03
1.4754436e-04
-1.0532247e-03
-7.9075168e-04
7.9523340e-04
2.0052533e-03
1.8386654e-03
-2.2651731e-04
-4.3314079e-03
-9.0050697e-03
-1.3546244e-02
-1.9039677e-02
-2.4813792e-02
-2.9016855e-02
-3.2071474e-02
-3.5025062e-02
-3.7864039e-02
-3.9658780e-02
-3.8434797e-02
-3.4780444e-02
-3.2855262e-02
-3.4146536e-02
-3.6336776e-02
-3.8480979e-02
-4.1623551e-02
-4.5137096e-02
-4.4732956e-02
-3.2969357e-02
1.6654567e-03
5.1116134e-02
8.4340936e-02
9.2717110e-02
8.8460280e-02
7.9070621e-02
6.7585962e-02
5.5229535e-02
4.4004549e-02
3.5870673e-02
3.0314567e-02
2.5540312e-02
2.1205437e-02
1.7429061e-02
1.3876581e-02
1.0713275e-02
7.8495686e-03
4.5981900e-03
1.4074723e-03
-4.2080594e-04
-4.3179209e-04
1.1127026e-03
3.1519667e-03
3.9480823e-03
3.5883297e-03
3.1413198e-03
2.6421661e-03
2.4423363e-03
2.9160966e-03
3.4935405e-03
3.1011599e-03
1.2964435e-03
-8.3457484e-04
-1.8415969e-03
-1.2642555e-03
7.0152164e-04
3.2336675e-03
4.8618500e-03
5.1784214e-03
5.7834310e-03
8.1497023e-03
1.2153133e-02
1.7552418e-02
2.5016649e-02
3.5259355e-02
4.7722746e-02
6.0234211e-02
6.9285085e-02
7.0607161e-02
5.8770012e-02
2.3490932e-02
-2.6653878e-02
-6.0395254e-02
-6.9433267e-02
-6.6016575e-02
-5.8402842e-02
-5.0730566e-02
-4.3109627e-02
-3.5127262e-02
-2.7403431e-02
-2.0224416e-02
-1.4187794e-02
-1.0132306e-02
-8.2444443e-03
-7.4316351e-03
-5.4379236e-03
-1.5733882e-03
2.2269373e-03
3.1057215e-03
5.7547011e-04
-2.3041293e-03
-2.7483717e-03
-2.6255360e-04
4.1020316e-03
7.0160301e-03
5.6607525e-03
1.9316317e-03
1.8085874e-04
1.6046307e-03
3.4199925e-03
2.3569319e-03
-1.5008197e-03
-3.9702569e-03
-2.6188385e-03
3.7487678e-04
1.1298826e-03
-2.3576608e-03
-8.0836711e-03
-1.2455306e-02
-1.3892619e-02
-1.4905146e-02
-1.9360385e-02
-2.8425127e-02
-3.9865787e-02
-5.0351009e-02
-5.9185243e-02
-6.7632526e-02
-7.5449616e-02
-7.9045984e-02
-7.0401111e-02
-3.6051049e-02
1.6040375e-02
5.3613857e-02
6.7312876e-02
6.7825019e-02
6.1732118e-02
5.3370217e-02
4.4813153e-02
3.6853462e-02
2.9720014e-02
2.3236577e-02
1.8051633e-02
1.4980343e-02
1.3320823e-02
1.1621815e-02
9.3574413e-03
6.6299036e-03
4.4311512e-03
3.5287476e-03
3.1438619e-03
2.8539376e-03
2.8173671e-03
2.6663193e-03
1.8694445e-03
8.7419353e-04
3.1897329e-04
1.6908622e-04
1.3604861e-04
-1.8773306e-04
-2.2602910e-04
6.4615844e-04
2.0022481e-03
3.3458369e-03
4.5637491e-03
5.8206055e-03
7.1486079e-03
8.7695159e-03
1.0876309e-02
1.3468910e-02
1.6622453e-02
2.0330042e-02
2.5108569e-02
3.1593605e-02
3.9584828e-02
4.8754441e-02
5.8449650e-02
6.7572848e-02
7.4723863e-02
7.6115484e-02
6.4140560e-02
2.6275540e-02
-2.8904815e-02
-6.8470322e-02
-8.2685388e-02
-8.2021536e-02
-7.3709889e-02
-6.3602697e-02
-5.4133143e-02
-4.5674089e-02
-3.8309929e-02
-3.2096455e-02
-2.7005517e-02
-2.2554532e-02
-1.9505197e-02
-1.9522046e-02
-2.2737433e-02
-2.8043091e-02
-3.4153142e-02
-4.0642925e-02
-4.8161766e-02
-5.7761272e-02
-6.8173081e-02
-7.5234885e-02
-7.5328732e-02
-6.2576049e-02
-2.4804738e-02
2.9238569e-02
6.6737255e-02
7.8519856e-02
7.6641689e-02
6.8461817e-02
5.8208285e-02
4.8203694e-02
3.8883962e-02
3.0421239e-02
2.3542290e-02
1.8095331e-02
1.3509838e-02
1.0046100e-02
7.9196450e-03
6.5322907e-03
5.3483688e-03
4.8319699e-03
4.7755530e-03
4.4285032e-03
4.4279653e-03
4.9804178e-03
5.2065815e-03
4.6653567e-03
3.7783301e-03
3.3302890e-03
2.9625926e-03
1.8898775e-03
7.7579444e-04
2.7178845e-04
1.9510644e-04
-5.9169115e-05
-7.2849718e-04
-1.1180555e-03
-1.4122072e-03
-2.0291834e-03
-2.5241851e-03
-3.0776964e-03
-4.4484623e-03
-6.5680368e-03
-8.1094937e-03
-8.2062783e-03
-7.4333234e-03
-6.5015089e-03
-5.3943159e-03
-3.6788613e-03
-1.5885404e-03
-1.7752510e-04
5.2124438e-04
9.9765028e-04
1.1670973e-03
1.1088572e-03
8.5426787e-04
1.0065923e-03
2.1654696e-03
3.3416311e-03
3.5123097e-03
3.1118449e-03
2.5753534e-03
2.0672204e-03
1.7306367e-03
1.3835886e-03
9.9234469e-04
6.3580269e-04
1.4861906e-05
-8.8174085e-04
-1.2887559e-03
-1.1647071e-03
-7.6430798e-04
9.7825410e-05
1.0469076e-03
1.4928603e-03
1.5180601e-03
1.6979304e-03
2.3676849e-03
2.8337973e-03
2.5813529e-03
2.2525561e-03
2.2887096e-03
2.6735101e-03
2.9309888e-03
2.5496872e-03
1.6904584e-03
9.8848687e-04
5.1428843e-04
-1.5938253e-04
-6.1666746e-04
-4.8567579e-04
-1.0769412e-04
-1.8700909e-04
-5.6506817e-04
-7.2438445e-04
-1.2258809e-03
-1.9649541e-03
-2.4939124e-03
-3.1752159e-03
-3.9487619e-03
-4.5451202e-03
-4.9741638e-03
-5.3748441e-03
-6.0149126e-03
-6.5673125e-03
-6.5882298e-03
-5.6199077e-03
-3.2747925e-03
-4.6692061e-04
1.5744027e-03
2.2132113e-03
1.9641255e-03
2.2222982e-03
2.8427503e-03
2.8462988e-03
2.0836366e-03
1.0307721e-03
3.7147396e-04
3.8230761e-04
7.7925536e-04
1.0710953e-03
1.3651048e-03
2.0554145e-03
2.6795835e-03
2.6161345e-03
1.5908134e-03
-8.3066047e-05
-1.2755071e-03
-1.5365242e-03
-7.6715706e-04
7.2612587e-04
2.1036540e-03
3.1186781e-03
3.7538535e-03
3.6626924e-03
2.8037730e-03
2.5949850e-03
4.1555698e-03
6.5900506e-03
8.8842824e-03
1.0893847e-02
1.3320558e-02
1.7293000e-02
2.1948156e-02
2.6665150e-02
3.2760845e-02
4.0529229e-02
4.9698608e-02
5.9728086e-02
6.9299625e-02
7.6981531e-02
7.9251626e-02
6.7844681e-02
2.8838232e-02
-2.8833632e-02
-6.9766634e-02
-8.3732294e-02
-8.3860913e-02
-7.7832722e-02
-6.9248409e-02
-5.9751872e-02
-5.0001936e-02
-4.1198914e-02
-3.3635332e-02
-2.6618028e-02
-2.1328635e-02
-1.9037807e-02
-1.9219522e-02
-2.1253103e-02
-2.5696991e-02
-3.2544519e-02
-4.0413426e-02
-4.9056894e-02
-5.8804282e-02
-6.8879282e-02
-7.7667821e-02
-8.0649147e-02
-6.8685134e-02
-2.8486040e-02
2.9580709e-02
6.9482644e-02
8.1301461e-02
7.8631977e-02
6.9533041e-02
5.8175043e-02
4.7605000e-02
3.8903936e-02
3.1125058e-02
2.4280599e-02
1.9506915e-02
1.6907032e-02
1.5028848e-02
1.2778887e-02
1.0219995e-02
7.8093341e-03
6.2836191e-03
5.4731783e-03
4.5323191e-03
3.7351184e-03
3.7315596e-03
4.1741418e-03
3.8690559e-03
2.3509390e-03
6.7531113e-04
-1.7257011e-04
-3.0305860e-04
-5.6656638e-04
-1.3934327e-03
-2.1659474e-03
-2.2089604e-03
-1.4694496e-03
-8.7884827e-04
-1.6774615e-03
-3.9210114e-03
-6.5553305e-03
-8.4251770e-03
-8.8593324e-03
-7.8034171e-03
-6.0018582e-03
-3.9174457e-03
-1.9060931e-03
-1.0572956e-03
-1.0807117e-03
-5.6245453e-04
1.9695964e-04
1.7847384e-04
-8.0617496e-05
2.7154609e-04
1.4432081e-03
3.1702099e-03
4.0924464e-03
2.8336111e-03
5.2886492e-04
-1.5636681e-04
1.2149662e-03
2.6712317e-03
2.7284990e-03
1.6159490e-03
3.9955547e-04
2.2247263e-04
1.0315010e-03
1.5828289e-03
1.6084258e-03
1.5106235e-03
1.2490891e-03
1.1368064e-03
1.1579215e-03
3.5829582e-04
-1.1973054e-03
-2.0370409e-03
-1.7342457e-03
-1.0966394e-03
-3.4218554e-04
4.2206469e-04
9.2126733e-04
1.0498569e-03
1.0594326e-03
1.2284054e-03
1.5559160e-03
1.9097430e-03
1.5911925e-03
3.4295437e-04
-1.2753324e-03
-2.6305818e-03
-3.5530277e-03
-4.1117898e-03
-4.5364523e-03
-5.2495078e-03
-5.7646751e-03
-5.3095448e-03
-4.3093459e-03
-3.4029678e-03
-2.0414568e-03
6.1912190e-05
2.0697038e-03
3.7529673e-03
4.8395851e-03
4.6019360e-03
4.0994415e-03
5.2033104e-03
7.4392233e-03
8.9839676e-03
9.7513438e-03
1.0973927e-02
1.2874725e-02
1.4700253e-02
1.5886616e-02
1.6211514e-02
1.6070065e-02
1.5521760e-02
1.3996569e-02
1.1190010e-02
7.6766069e-03
4.5623289e-03
2.3987792e-03
9.8302685e-04
-2.9913810e-05
-3.1582559e-04
1.7478381e-04
1.9001123e-04
-1.1678542e-03
-2.9515347e-03
-4.2794842e-03
-5.3760048e-03
-5.9991841e-03
-5.7655392e-03
-5.0917949e-03
-4.6225391e-03
-4.5242772e-03
-4.4647136e-03
-4.2082028e-03
-2.8266305e-03
2.0903436e-04
3.0920367e-03
4.6341672e-03
5.3116122e-03
5.3190945e-03
5.2421590e-03
5.4481818e-03
5.5990502e-03
5.4002996e-03
4.3176026e-03
2.6329745e-03
1.4147417e-03
4.9166846e-04
-1.6620365e-03
-4.9231965e-03
-7.6887769e-03
-9.7178239e-03
-1.1442217e-02
-1.3531887e-02
-1.6028024e-02
-1.7320203e-02
-1.6412054e-02
-1.4476026e-02
-1.2698351e-02
-1.0573833e-02
-8.1700913e-03
-6.2368892e-03
-4.9956637e-03
-4.3019914e-03
-3.0651611e-03
-8.6748324e-04
9.4442401e-04
1.4521610e-03
1.1979164e-03
8.3268061e-04
1.4059588e-04
-7.4911824e-04
-1.0446856e-03
-9.8181380e-04
-5.3400240e-04
1.0402722e-03
2.9760929e-03
3.9543640e-03
4.1399688e-03
4.6683684e-03
5.6465211e-03
6.0635978e-03
5.0474127e-03
2.9423114e-03
1.4712589e-03
1.5325262e-03
2.9761026e-03
5.5460289e-03
8.7006811e-03
1.2296857e-02
1.6963547e-02
2.3139207e-02
3.0582449e-02
3.9635571e-02
5.0594738e-02
6.2745650e-02
7.5128632e-02
8.6631537e-02
9.5805168e-02
9.8407520e-02
8.4110291e-02
3.6254100e-02
-3.3136204e-02
-8.1054291e-02
-9.6189504e-02
-9.4282385e-02
-8.4744760e-02
-7.3227517e-02
-6.2115243e-02
-5.1774410e-02
-4.2936529e-02
-3.6247085e-02
-3.0789130e-02
-2.5726268e-02
-2.1088401e-02
-1.6898179e-02
-1.3083865e-02
-9.7027200e-03
-7.4191320e-03
-6.7722885e-03
-7.1360951e-03
-6.8234725e-03
-5.3548275e-03
-3.9074242e-03
-3.0568020e-03
-1.9770013e-03
7.2611046e-04
4.3306410e-03
5.9619563e-03
4.8227621e-03
3.2182830e-03
2.8488698e-03
3.5596345e-03
4.4129394e-03
4.9555614e-03
5.7800645e-03
6.0612737e-03
4.9658705e-03
3.9845050e-03
3.4934496e-03
2.6969661e-03
1.9023902e-03
8.6911409e-04
-7.5905041e-04
-1.6189632e-03
-1.2518601e-03
-1.1006400e-03
-9.0588194e-04
3.3452255e-04
1.7136305e-03
2.4320823e-03
2.5822579e-03
2.6555417e-03
2.7455197e-03
2.0793179e-03
4.6939545e-04
-1.0936947e-03
-1.2338394e-03
-2.6427889e-04
-2.9856203e-04
-1.7679500e-03
-3.3724897e-03
-5.3658025e-03
-8.6953618e-03
-1.3179368e-02
-1.8081444e-02
-2.3539967e-02
-3.0745380e-02
-3.9881111e-02
-5.0589389e-02
-6.3090893e-02
-7.6471811e-02
-8.9000493e-02
-9.8244408e-02
-9.8990264e-02
-8.2585409e-02
-3.4822468e-02
3.2402871e-02
7.8295149e-02
9.2991078e-02
9.1895184e-02
8.3185890e-02
7.0900511e-02
5.7748239e-02
4.6015061e-02
3.6329647e-02
2.7875761e-02
2.0396193e-02
1.4905376e-02
1.1768641e-02
9.9539327e-03
8.4281972e-03
6.7915046e-03
5.5119806e-03
4.9007773e-03
4.6024072e-03
4.7368680e-03
4.8777837e-03
4.1412062e-03
2.6677466e-03
1.3567683e-03
5.9563033e-04
1.7876282e-04
4.2597017e-04
1.6194681e-03
3.0428487e-03
3.9928788e-03
4.6847897e-03
6.1121301e-03
8.6655746e-03
1.0980270e-02
1.1827835e-02
1.1831535e-02
1.2063933e-02
1.3388008e-02
1.6605029e-02
2.1096709e-02
2.6495119e-02
3.3968726e-02
4.4128031e-02
5.6208355e-02
6.8710483e-02
8.0198936e-02
8.8789948e-02
8.9960942e-02
7.4779932e-02
2.8037437e-02
-3.9463042e-02
-8.6160979e-02
-1.0033822e-01
-9.7713384e-02
-8.7358451e-02
-7.3865705e-02
-6.0817191e-02
-5.0521480e-02
-4.3159339e-02
-3.7251809e-02
-3.0914663e-02
-2.5205410e-02
-2.2455388e-02
-2.3014392e-02
-2.6337043e-02
-3.1773449e-02
-3.9303884e-02
-4.9284217e-02
-6.1589781e-02
-7.4624074e-02
-8.6498675e-02
-9.5413955e-02
-9.6736080e-02
-8.1692018e-02
-3.4048265e-02
3.5726594e-02
8.4437007e-02
9.9612050e-02
9.6599165e-02
8.5373123e-02
7.1789909e-02
5.8162608e-02
4.6088777e-02
3.6710654e-02
3.0066000e-02
2.5306229e-02
2.1104864e-02
1.7045764e-02
1.3094820e-02
9.5757340e-03
7.5214303e-03
7.1078095e-03
7.5177610e-03
7.2701447e-03
5.5404372e-03
3.0877210e-03
6.9215735e-04
-1.3994662e-03
-2.8261287e-03
-3.2026149e-03
-2.7688970e-03
-2.0694615e-03
-1.7859004e-03
-1.8880930e-03
-2.1382138e-03
-2.9689708e-03
-3.8258498e-03
-4.4954817e-03
-5.7052882e-03
-6.8018841e-03
-6.8794536e-03
-6.0670315e-03
-4.5016468e-03
-2.8511671e-03
-2.0626178e-03
-1.5802824e-03
-6.1563636e-04
5.7148001e-04
1.5029116e-03
2.2613390e-03
2.9679662e-03
3.4676977e-03
3.7932027e-03
3.2814383e-03
2.1930209e-03
1.9778898e-03
2.3739139e-03
2.1746422e-03
1.1508153e-03
3.8480169e-05
-5.3119102e-04
-4.2724676e-04
1.1203031e-04
6.8118298e-04
1.4432257e-03
2.4137522e-03
2.9438736e-03
2.4559590e-03
1.1908409e-03
2.8128056e-04
1.5367878e-04
5.4911729e-04
1.3560386e-03
2.0966269e-03
2.6360214e-03
3.3270189e-03
4.3354136e-03
5.2609391e-03
5.4403448e-03
4.8451067e-03
4.2222598e-03
4.3434120e-03
4.4710078e-03
3.6142791e-03
2.2792665e-03
1.1618338e-03
3.5689711e-04
-3.0150322e-04
-1.0213588e-03
-2.2028491e-03
-3.8907888e-03
-5.5667595e-03
-6.9036780e-03
-7.6907661e-03
-8.1354913e-03
-8.3931327e-03
-8.0985400e-03
-7.1024601e-03
-5.6476164e-03
-4.3663029e-03
-3.4959931e-03
-2.3682942e-03
-1.0965174e-03
-9.0196929e-04
-1.5138479e-03
-1.6611819e-03
-1.3785931e-03
-9.1792781e-04
-1.5362745e-04
9.6525938e-04
2.4671440e-03
3.8238803e-03
4.8836947e-03
5.9728507e-03
6.9800248e-03
7.6910253e-03
8.6446859e-03
1.1126883e-02
1.5872113e-02
2.2932681e-02
3.1599764e-02
4.0858046e-02
5.0712390e-02
6.1524912e-02
7.3075588e-02
8.3883075e-02
9.1616407e-02
9.2381929e-02
7.7063535e-02
3.0576260e-02
-3.5066873e-02
-7.9411499e-02
-9.2377690e-02
-8.9008176e-02
-7.8219082e-02
-6.5088295e-02
-5.1780034e-02
-3.9957254e-02
-3.1285852e-02
-2.5196129e-02
-1.9885245e-02
-1.5539279e-02
-1.2759387e-02
-1.0418110e-02
-8.3444241e-03
-7.1155138e-03
-6.6214647e-03
-7.5163000e-03
-9.7102194e-03
-1.1834757e-02
-1.3866203e-02
-1.6419498e-02
-1.8715426e-02
-1.8797614e-02
-1.3915019e-02
-5.4269612e-03
1.2993275e-03
4.7310301e-03
6.5055012e-03
7.6186204e-03
7.1485582e-03
4.3825421e-03
1.4470673e-03
-3.0804285e-05
-9.0920816e-04
-2.3906618e-03
-4.9147931e-03
-8.0167868e-03
-1.1290955e-02
-1.5712647e-02
-2.2151014e-02
-2.9678566e-02
-3.6989093e-02
-4.4586595e-02
-5.3866273e-02
-6.5063054e-02
-7.5521839e-02
-7.8893955e-02
-6.6918898e-02
-2.7455696e-02
2.9671825e-02
6.8631993e-02
8.0452632e-02
7.9261865e-02
7.2090002e-02
6.2611571e-02
5.2837695e-02
4.3691136e-02
3.5813530e-02
2.9513887e-02
2.5758351e-02
2.4703920e-02
2.5161966e-02
2.6682406e-02
2.8997574e-02
3.2088725e-02
3.6481837e-02
4.2595330e-02
5.0664748e-02
6.0388020e-02
7.0639825e-02
7.8774674e-02
8.0544796e-02
6.8685344e-02
2.9763209e-02
-2.7668921e-02
-6.8526159e-02
-8.2575667e-02
-8.2250198e-02
-7.5777084e-02
-6.8009853e-02
-5.9972817e-02
-5.0408563e-02
-3.9968326e-02
-3.1055008e-02
-2.3178615e-02
-1.5581207e-02
-9.2897818e-03
-4.8948799e-03
-2.1196768e-03
5.0364452e-04
3.8775994e-03
6.6414983e-03
7.4218328e-03
6.8128858e-03
6.4471547e-03
7.1461981e-03
7.9998690e-03
7.0823672e-03
2.6516971e-03
-3.3811591e-03
-6.8790328e-03
-7.5693051e-03
-7.3530131e-03
-7.2091048e-03
-6.7118052e-03
-5.4229090e-03
-4.2271372e-03
-2.6567971e-03
-6.5261717e-04
5.7277067e-04
1.1928159e-03
1.8576815e-03
2.9781533e-03
3.8037769e-03
3.8572790e-03
3.9949466e-03
4.3389367e-03
4.8722910e-03
5.6867123e-03
6.6241767e-03
7.6071163e-03
7.9463754e-03
6.5508447e-03
2.7224336e-03
-1.5848873e-03
-3.2059156e-03
-3.2035206e-03
-3.9937769e-03
-5.2260762e-03
-5.8725506e-03
-6.3625824e-03
-7.6426098e-03
-9.5277593e-03
-1.1366105e-02
-1.2468941e-02
-1.3607710e-02
-1.6729497e-02
-2.2006557e-02
-2.8100202e-02
-3.4510415e-02
-4.1862994e-02
-5.0688085e-02
-6.1026200e-02
-7.2108129e-02
-8.2681866e-02
-9.0516451e-02
-9.1229277e-02
-7.6617550e-02
-3.1153837e-02
3.5202042e-02
8.1459662e-02
9.5647149e-02
9.2389479e-02
8.1142008e-02
6.8114091e-02
5.6432720e-02
4.6273470e-02
3.6944261e-02
2.8782704e-02
2.2035845e-02
1.6170164e-02
1.1208077e-02
7.6438411e-03
5.2655911e-03
3.7120862e-03
3.1388667e-03
3.0915818e-03
2.9203867e-03
2.7283081e-03
2.6869099e-03
2.6982325e-03
2.7483650e-03
3.0585943e-03
3.4965703e-03
3.6502370e-03
4.1581657e-03
5.5053567e-03
6.8670876e-03
7.7175432e-03
7.4782327e-03
5.9481528e-03
4.1437173e-03
2.5380568e-03
6.4116320e-04
-9.8986804e-04
-1.6130579e-03
-1.7723709e-03
-1.7853826e-03
-1.4877739e-03
-8.4249401e-04
-8.1582472e-04
-2.5750991e-03
-5.5527371e-03
-8.1513525e-03
-9.4689612e-03
-9.6645354e-03
-9.1957181e-03
-8.3083484e-03
-7.3483011e-03
-6.3646676e-03
-4.6841042e-03
-2.2523922e-03
-2.6239399e-04
5.2933429e-04
9.3187274e-04
1.7671645e-03
3.0473602e-03
4.9692400e-03
7.4977521e-03
9.7986066e-03
1.1492683e-02
1.3366121e-02
1.6593518e-02
2.2129736e-02
2.9849640e-02
3.8583276e-02
4.8121045e-02
5.8812102e-02
6.9907990e-02
8.0531491e-02
8.9213932e-02
9.1011497e-02
7.7007149e-02
3.3290336e-02
-3.0038101e-02
-7.4412700e-02
-8.9084064e-02
-8.8350232e-02
-7.9497850e-02
-6.6828232e-02
-5.3882623e-02
-4.2109399e-02
-3.1832363e-02
-2.3165516e-02
-1.6675264e-02
-1.2940448e-02
-1.1123693e-02
-9.3366558e-03
-7.4864430e-03
-7.1087577e-03
-7.2690510e-03
-6.8067938e-03
-5.8780557e-03
-4.6273278e-03
-4.3679513e-03
-5.6867938e-03
-6.9542002e-03
-6.2230717e-03
-3.2319349e-03
1.7567566e-04
1.4255412e-03
4.2402964e-04
-8.9155117e-04
-1.5841795e-03
-2.5744233e-03
-4.3109603e-03
-4.7611632e-03
-3.1990051e-03
-9.4206217e-04
8.2132495e-04
1.1712209e-03
1.1450357e-03
2.1730157e-03
3.1956150e-03
2.8562924e-03
1.8952784e-03
1.9638254e-03
3.2799558e-03
4.8547616e-03
6.1238120e-03
7.0986373e-03
7.9509482e-03
8.4063831e-03
6.6882868e-03
2.6241493e-03
-1.0172749e-03
-3.1212563e-03
-4.2374997e-03
-5.0014576e-03
-5.6771097e-03
-5.7398438e-03
-5.0223647e-03
-3.3152045e-03
-1.0510532e-03
7.6808793e-04
2.6238206e-03
5.4676204e-03
8.1538352e-03
8.6562901e-03
7.9492393e-03
7.8719358e-03
8.4015844e-03
8.5816783e-03
7.3745472e-03
5.1846471e-03
3.4815254e-03
2.9868395e-03
2.5720844e-03
6.6170006e-04
-1.9790532e-03
-3.5246188e-03
-3.7311938e-03
-3.8168002e-03
-4.6869206e-03
-5.6057150e-03
-6.1097124e-03
-6.6648625e-03
-7.2144212e-03
-7.5382419e-03
-8.1749894e-03
-9.0701178e-03
-8.8757191e-03
-7.9568420e-03
-8.1540937e-03
-8.8476499e-03
-8.3189981e-03
-6.9918395e-03
-6.2882157e-03
-7.1966065e-03
-8.7854620e-03
-8.8415083e-03
-7.2696386e-03
-5.0672149e-03
-1.2478686e-03
4.3364983e-03
8.7398985e-03
1.0125979e-02
9.0972700e-03
7.5911570e-03
7.6819759e-03
8.7553296e-03
8.8980449e-03
8.1480616e-03
7.9981708e-03
8.4141740e-03
8.1138003e-03
7.2992891e-03
6.2244688e-03
4.8325443e-03
3.4223877e-03
1.8960568e-03
4.6604890e-04
-3.6221652e-04
-1.0153272e-03
-1.4118990e-03
-2.3057609e-04
1.6745463e-03
2.6494033e-03
2.7580903e-03
2.4748340e-03
2.3085563e-03
2.4894257e-03
2.6435004e-03
2.3780246e-03
1.2456979e-03
-4.8776901e-04
-2.3168147e-03
-4.8967151e-03
-7.6260241e-03
-9.3264630e-03
-1.1306189e-02
-1.4887075e-02
-1.9585634e-02
-2.4774501e-02
-3.0825851e-02
-3.8550958e-02
-4.7897266e-02
-5.8176749e-02
-6.8857238e-02
-7.9567854e-02
-8.8319417e-02
-8.9820302e-02
-7.5453262e-02
-3.2152900e-02
2.9233659e-02
7.1765241e-02
8.5288580e-02
8.3092606e-02
7.3953342e-02
6.3495542e-02
5.4528949e-02
4.6786019e-02
3.9062079e-02
3.1958814e-02
2.7131463e-02
2.5094513e-02
2.5561112e-02
2.7913681e-02
3.1748267e-02
3.7702912e-02
4.5421960e-02
5.3911170e-02
6.3675232e-02
7.5379710e-02
8.7641291e-02
9.7206233e-02
9.8739948e-02
8.3248336e-02
3.5408714e-02
-3.4017285e-02
-8.2621345e-02
-9.8543232e-02
-9.7807362e-02
-8.8836730e-02
-7.6319039e-02
-6.3046560e-02
-5.0143186e-02
-3.9176167e-02
-3.0690680e-02
-2.4952449e-02
-2.2258523e-02
-2.1807783e-02
-2.2984472e-02
-2.5522007e-02
-3.0651634e-02
-3.8717510e-02
-4.8442784e-02
-6.0042050e-02
-7.3500823e-02
-8.7657641e-02
-9.9684328e-02
-1.0300117e-01
-8.8134761e-02
-4.0851069e-02
2.7087028e-02
7.3959521e-02
8.8770113e-02
8.7196453e-02
7.8382442e-02
6.7051933e-02
5.5088202e-02
4.4004269e-02
3.5330267e-02
2.8832507e-02
2.3266743e-02
1.8337077e-02
1.4513510e-02
1.2157249e-02
1.1094745e-02
1.0525084e-02
9.4669056e-03
7.7442463e-03
6.2800784e-03
5.4057880e-03
4.2520483e-03
3.0738725e-03
2.7862643e-03
2.8505325e-03
2.5648615e-03
1.8004525e-03
6.6643562e-04
-1.1110769e-04
2.2974419e-04
1.2122315e-03
2.1488832e-03
2.7718037e-03
2.9090226e-03
3.5140972e-03
5.0487114e-03
6.7847529e-03
8.8874427e-03
1.2216357e-02
1.6959371e-02
2.2669443e-02
2.9147145e-02
3.6866074e-02
4.6518204e-02
5.7753998e-02
6.9372751e-02
8.0381836e-02
8.8321498e-02
8.8424514e-02
7.3361924e-02
2.9260469e-02
-3.3534098e-02
-7.6264403e-02
-8.9505222e-02
-8.7677463e-02
-7.8752540e-02
-6.8024658e-02
-5.7762091e-02
-4.8252311e-02
-3.9678112e-02
-3.2490121e-02
-2.6661645e-02
-2.1321290e-02
-1.6084734e-02
-1.1266800e-02
-7.7106847e-03
-5.7914534e-03
-4.1230308e-03
-1.7076488e-03
1.3248199e-03
4.4470389e-03
6.3450861e-03
6.3838119e-03
5.0890648e-03
3.5315728e-03
2.0724859e-03
1.1667131e-04
-1.9837664e-03
-3.1550288e-03
-3.5529711e-03
-4.1081678e-03
-4.4413893e-03
-3.5302144e-03
-1.4894574e-03
1.1757491e-04
3.6263826e-04
-2.0495726e-05
-2.0869057e-04
-8.1710326e-05
2.0403088e-04
1.8523027e-04
-6.6946224e-04
-1.6858495e-03
-2.1624251e-03
-2.2640793e-03
-2.7310328e-03
-3.8040507e-03
-4.0362940e-03
-3.4948901e-03
-2.8200779e-03
-6.6040371e-05
4.8101140e-03
8.7629471e-03
1.0328669e-02
9.7700844e-03
8.0792190e-03
6.3320046e-03
4.6305127e-03
3.1902206e-03
2.3571903e-03
1.9368279e-03
1.2600794e-03
2.0238356e-04
-8.4546317e-04
-2.6108509e-03
-5.3605447e-03
-7.4096160e-03
-7.9977562e-03
-8.2572428e-03
-8.8739467e-03
-9.6550761e-03
-1.0086870e-02
-9.3556457e-03
-7.9248232e-03
-6.5026270e-03
-3.5381113e-03
4.3904516e-04
2.7916761e-03
4.0348659e-03
4.8922740e-03
4.7510325e-03
3.7163744e-03
2.3046932e-03
8.8284668e-04
-7.7445736e-04
-2.8091003e-03
-4.3573536e-03
-5.0172782e-03
-7.0679748e-03
-1.1813546e-02
-1.7395619e-02
-2.3049672e-02
-2.9550369e-02
-3.7786572e-02
-4.8568541e-02
-6.0870319e-02
-7.2302536e-02
-8.0592227e-02
-8.2054211e-02
-6.9450964e-02
-2.9001735e-02
3.0188323e-02
7.1364821e-02
8.4533081e-02
8.3182961e-02
7.5608102e-02
6.6490186e-02
5.7073911e-02
4.8061408e-02
4.0369950e-02
3.3878919e-02
2.8918805e-02
2.6011922e-02
2.4682913e-02
2.4525703e-02
2.5669835e-02
2.8715313e-02
3.4018592e-02
4.1438334e-02
5.0491132e-02
6.0375097e-02
6.9957644e-02
7.6732409e-02
7.6639296e-02
6.2662808e-02
2.1145492e-02
-3.8248854e-02
-7.8506226e-02
-9.0406800e-02
-8.7519200e-02
-7.7014195e-02
-6.4318390e-02
-5.2915646e-02
-4.2943532e-02
-3.3104523e-02
-2.3869581e-02
-1.6967693e-02
-1.2222994e-02
-8.6787239e-03
-5.5762775e-03
-1.9266947e-03
1.7038440e-03
3.9398561e-03
4.9463560e-03
6.4287982e-03
9.0664614e-03
1.1358891e-02
1.2151184e-02
1.1848416e-02
1.0383899e-02
5.4921725e-03
-1.4881710e-03
-5.9918549e-03
-8.0202482e-03
-8.7572621e-03
-7.9537659e-03
-6.3643585e-03
-5.4136144e-03
-5.3461859e-03
-4.7087250e-03
-3.4813958e-03
-2.5685988e-03
-1.5268295e-03
-4.2434423e-04
5.9249652e-04
1.4088397e-03
1.0135384e-03
-9.2593980e-04
-3.2965223e-03
-5.5396707e-03
-7.6148310e-03
-8.9844893e-03
-1.0101901e-02
-1.0385873e-02
-8.3276176e-03
-2.9275108e-03
4.1512083e-03
8.1242918e-03
8.4392682e-03
7.2277044e-03
4.8979170e-03
2.0815995e-03
-7.1764657e-04
-3.1120001e-03
-4.2902056e-03
-3.9596838e-03
-3.3752677e-03
-4.0130004e-03
-4.8916652e-03
-4.0052139e-03
-2.1270805e-03
-9.3697174e-04
3.8623539e-06
1.1871099e-03
1.9085134e-03
1.5758222e-03
7.0474564e-04
5.7079406e-04
1.5547648e-03
2.5273306e-03
2.7661701e-03
3.0618194e-03
3.8778267e-03
4.2968510e-03
3.8105996e-03
3.0484978e-03
2.4438266e-03
1.6558024e-03
1.1830136e-03
2.0089204e-03
2.4404507e-03
1.2265692e-03
-3.6899523e-04
-1.4526484e-03
-1.4705305e-03
5.7119841e-05
2.4282225e-03
3.6241216e-03
3.6806679e-03
3.8866843e-03
3.9003964e-03
3.6525058e-03
3.0540083e-03
2.1766131e-03
2.2043116e-03
3.2628103e-03
3.8789469e-03
2.8847370e-03
8.6179610e-04
-7.3177279e-04
-1.3629217e-03
-1.6075767e-03
-1.9516468e-03
-2.1495897e-03
-2.2515031e-03
-2.8056810e-03
-3.9017776e-03
-4.4470950e-03
-3.6222611e-03
-2.4400817e-03
-2.0360135e-03
-2.4248036e-03
-2.5299444e-03
-1.1815658e-03
1.1327893e-03
2.9033255e-03
4.0545412e-03
5.1578265e-03
5.7746626e-03
5.5582705e-03
3.7591288e-03
3.6854858e-04
-3.1452705e-03
-6.0615873e-03
-7.1861513e-03
-6.1727484e-03
-5.0449435e-03
-4.3327028e-03
-3.3451105e-03
-1.9118894e-03
-5.0715259e-04
2.2808104e-04
7.7153788e-04
9.0665496e-04
2.2278596e-04
-6.2557607e-04
-1.3377376e-03
-1.9223905e-03
-2.5620775e-03
-3.0740334e-03
-2.8177923e-03
-2.5121396e-03
-2.9383077e-03
-2.7162470e-03
-6.1300062e-04
2.2674865e-03
4.3818002e-03
5.2074899e-03
4.6819842e-03
3.3893521e-03
2.2657005e-03
1.9873331e-03
2.5754092e-03
2.7846329e-03
1.5618930e-03
-3.8564956e-04
-2.4637356e-03
-5.1308086e-03
-8.2749550e-03
-1.1965849e-02
-1.7484975e-02
-2.5553264e-02
-3.5370978e-02
-4.5848299e-02
-5.7115008e-02
-6.9515092e-02
-8.1963622e-02
-9.2091075e-02
-9.5216639e-02
-8.2623050e-02
-3.9587948e-02
2.3773683e-02
6.8372561e-02
8.3391202e-02
8.3005330e-02
7.5348649e-02
6.5126666e-02
5.4660267e-02
4.4558202e-02
3.5441859e-02
2.8299552e-02
2.3086264e-02
1.8662925e-02
1.4036874e-02
9.3756396e-03
6.1440791e-03
4.7382780e-03
4.0903726e-03
3.5380280e-03
2.7540795e-03
2.0385010e-03
1.9247551e-03
2.0711123e-03
1.7672370e-03
9.0177967e-04
4.0398104e-04
6.7864305e-04
1.2380902e-03
1.7840258e-03
2.0191809e-03
2.1955483e-03
2.9969682e-03
4.2096986e-03
4.9760326e-03
5.4513040e-03
6.5583273e-03
8.4777550e-03
1.1132309e-02
1.4484034e-02
1.8555587e-02
2.3622822e-02
2.9580197e-02
3.6349823e-02
4.4228565e-02
5.3314293e-02
6.3183988e-02
7.3035622e-02
8.0813681e-02
8.1825539e-02
6.8148231e-02
2.6361602e-02
-3.4048107e-02
-7.6466053e-02
-9.0858024e-02
-9.1038276e-02
-8.4183058e-02
-7.2898419e-02
-5.9810898e-02
-4.8386477e-02
-3.9520694e-02
-3.2425091e-02
-2.7102917e-02
-2.4081019e-02
-2.4119490e-02
-2.5702488e-02
-2.6741782e-02
-2.8197438e-02
-3.1835182e-02
-3.8299954e-02
-4.7483382e-02
-5.8310835e-02
-6.9099158e-02
-7.8027575e-02
-8.1177767e-02
-6.9834030e-02
-2.9384596e-02
3.0023512e-02
7.1033444e-02
8.3469326e-02
8.0816034e-02
7.1397573e-02
6.0080735e-02
4.9361436e-02
3.9779778e-02
3.1583143e-02
2.5193222e-02
1.9971416e-02
1.5666996e-02
1.2647021e-02
1.0531849e-02
8.7539970e-03
7.1373366e-03
6.0153489e-03
5.5238941e-03
5.4927389e-03
6.0469075e-03
6.3734338e-03
5.4908603e-03
4.4433054e-03
4.3019750e-03
4.5083023e-03
4.0331205e-03
2.6368056e-03
1.0720461e-03
-2.9697898e-04
-1.4539307e-03
-1.9623884e-03
-1.9609177e-03
-2.1686813e-03
-2.6430266e-03
-2.3059967e-03
-5.8492823e-04
1.4605744e-03
3.6665582e-03
7.3680841e-03
1.2831369e-02
1.9017927e-02
2.6504787e-02
3.7291279e-02
5.1420857e-02
6.6721305e-02
8.0376115e-02
9.0159037e-02
9.2696701e-02
7.9515121e-02
3.5323690e-02
-2.9519535e-02
-7.4946659e-02
-8.9352019e-02
-8.6581286e-02
-7.5674066e-02
-6.2959143e-02
-5.1560628e-02
-4.2351575e-02
-3.5165909e-02
-2.9438402e-02
-2.5058541e-02
-2.2369325e-02
-2.1323352e-02
-2.1910312e-02
-2.5050918e-02
-3.1173508e-02
-3.9161200e-02
-4.8304180e-02
-5.8756271e-02
-7.0371452e-02
-8.2211073e-02
-9.1511831e-02
-9.2990342e-02
-7.7361706e-02
-3.0554223e-02
3.5574638e-02
8.1225579e-02
9.5476903e-02
9.3600060e-02
8.4931924e-02
7.3433941e-02
6.1158934e-02
4.9609878e-02
3.9367816e-02
3.0392179e-02
2.2357983e-02
1.5989580e-02
1.1878970e-02
8.7292310e-03
5.2764409e-03
1.3859068e-03
-2.4423604e-03
-5.2864822e-03
-6.4416565e-03
-6.3530218e-03
-6.0048831e-03
-5.2849332e-03
-4.1238657e-03
-3.2483143e-03
-2.4158130e-03
-1.3670000e-03
-1.9094901e-04
1.3158280e-03
1.9664972e-03
1.2359999e-03
6.0221222e-04
8.4054407e-04
2.3291902e-03
4.3278648e-03
5.5468300e-03
6.7389398e-03
8.6700096e-03
1.1426450e-02
1.5533447e-02
2.1182537e-02
2.7838144e-02
3.5588828e-02
4.4811759e-02
5.4978072e-02
6.6025779e-02
7.7672241e-02
8.7120809e-02
8.9115509e-02
7.5241583e-02
3.0982088e-02
-3.2552411e-02
-7.5615853e-02
-8.8291396e-02
-8.5387079e-02
-7.5780654e-02
-6.4411709e-02
-5.2518832e-02
-4.1287028e-02
-3.2407957e-02
-2.5872074e-02
-2.1487598e-02
-1.9434087e-02
-1.9792558e-02
-2.2296090e-02
-2.6062222e-02
-3.0772542e-02
-3.7007193e-02
-4.5818589e-02
-5.7253436e-02
-6.9541954e-02
-8.0921179e-02
-8.9157327e-02
-8.9921164e-02
-7.6466132e-02
-3.5404767e-02
2.4754830e-02
6.7036658e-02
8.0710942e-02
7.9396598e-02
7.1240467e-02
6.0338084e-02
4.8997326e-02
3.9041694e-02
3.1052100e-02
2.4831342e-02
1.9685034e-02
1.5046179e-02
1.1204485e-02
8.3143477e-03
6.7492349e-03
6.3891209e-03
6.0497860e-03
4.9562628e-03
3.0488813e-03
1.5008865e-03
1.1461861e-03
9.4970104e-04
6.8600731e-04
1.0977313e-03
1.8181562e-03
2.1761211e-03
2.1818174e-03
2.1588187e-03
1.7977153e-03
9.5243044e-04
4.7926100e-04
5.6868761e-04
4.5663691e-04
1.9804697e-04
6.2187797e-04
1.4525048e-03
1.8614580e-03
2.1345809e-03
2.2281769e-03
2.1641296e-03
2.5886558e-03
3.0233048e-03
3.2620141e-03
3.8846801e-03
4.4113503e-03
3.4812414e-03
1.6416035e-03
8.3141492e-04
1.0841006e-03
1.1612872e-03
3.9321316e-04
-7.9048996e-04
-1.5179351e-03
-1.6070676e-03
-1.2950221e-03
-1.2418174e-03
-2.1019941e-03
-3.0273181e-03
-2.7167038e-03
-1.5525702e-03
9.3255149e-05
3.0702455e-03
7.2444192e-03
1.2157097e-02
1.8107340e-02
2.5384290e-02
3.4314392e-02
4.4817582e-02
5.6591543e-02
6.8879671e-02
7.9739202e-02
8.7967866e-02
9.0696744e-02
7.8332153e-02
3.4967309e-02
-2.8824548e-02
-7.3371813e-02
-8.7543018e-02
-8.5169653e-02
-7.4915953e-02
-6.2289904e-02
-4.9844394e-02
-3.9144549e-02
-3.1131874e-02
-2.4276818e-02
-1.7452867e-02
-1.2380213e-02
-9.7162828e-03
-8.0352756e-03
-5.9798664e-03
-4.0476773e-03
-3.3566428e-03
-2.8717744e-03
-1.5259882e-03
4.2998564e-04
2.7338822e-03
5.0389710e-03
6.2377648e-03
5.2968868e-03
2.0373740e-03
-1.6524823e-03
-3.0617021e-03
-2.3016616e-03
-1.0619535e-03
-8.5190278e-04
-2.5208660e-03
-4.5429776e-03
-5.2421236e-03
-5.7437480e-03
-6.9575008e-03
-8.9402508e-03
-1.2218651e-02
-1.6186462e-02
-2.0145239e-02
-2.5532380e-02
-3.3257278e-02
-4.2043206e-02
-5.1761120e-02
-6.2995586e-02
-7.5619047e-02
-8.8287842e-02
-9.7659056e-02
-9.8738602e-02
-8.2797806e-02
-3.4752437e-02
3.3866611e-02
8.1627087e-02
9.6887464e-02
9.4365249e-02
8.4231733e-02
7.2726030e-02
6.1772347e-02
5.1433220e-02
4.2243960e-02
3.5129770e-02
3.0523152e-02
2.8261425e-02
2.7303987e-02
2.7274127e-02
2.9345838e-02
3.4179996e-02
4.1447994e-02
5.0741644e-02
6.1953760e-02
7.4641207e-02
8.7135512e-02
9.6318643e-02
9.7340290e-02
8.1752680e-02
3.3956508e-02
-3.4731949e-02
-8.1505021e-02
-9.5012040e-02
-9.1544856e-02
-8.0547453e-02
-6.7484353e-02
-5.5417724e-02
-4.4748745e-02
-3.4875312e-02
-2.6169911e-02
-1.9253137e-02
-1.4583626e-02
-1.2152786e-02
-1.0746575e-02
-9.7275698e-03
-9.0932305e-03
-8.5853326e-03
-9.0056845e-03
-1.0797772e-02
-1.3151691e-02
-1.5698104e-02
-1.7689182e-02
-1.8426760e-02
-1.7406303e-02
-1.2450877e-02
-4.2929838e-03
2.1607662e-03
5.2262641e-03
6.7252221e-03
7.2090867e-03
6.6383086e-03
5.9716520e-03
4.6809951e-03
2.3402164e-03
-2.0337700e-04
-2.7739072e-03
-5.2947684e-03
-8.5178912e-03
-1.3244021e-02
-1.8604318e-02
-2.3570012e-02
-2.9217492e-02
-3.6855278e-02
-4.6269266e-02
-5.6536205e-02
-6.6913004e-02
-7.6094285e-02
-7.9041560e-02
-6.7005452e-02
-2.6681101e-02
3.2096753e-02
7.2224072e-02
8.3801084e-02
8.1007026e-02
7.1551774e-02
5.9670884e-02
4.8240793e-02
3.9038011e-02
3.2634356e-02
2.8538867e-02
2.6008976e-02
2.4646304e-02
2.4843003e-02
2.7023815e-02
3.0631313e-02
3.5151208e-02
4.0918451e-02
4.8620719e-02
5.8167979e-02
6.8613961e-02
7.8816824e-02
8.6720167e-02
8.8052555e-02
7.4340167e-02
3.1177053e-02
-3.0774080e-02
-7.3046090e-02
-8.6528949e-02
-8.6112946e-02
-7.8992056e-02
-6.9470291e-02
-6.0369295e-02
-5.2348282e-02
-4.6003157e-02
-4.1382357e-02
-3.6820412e-02
-3.1886682e-02
-2.7944922e-02
-2.6196797e-02
-2.6870951e-02
-2.9462299e-02
-3.3820919e-02
-4.0323097e-02
-4.9595834e-02
-6.1622269e-02
-7.4509034e-02
-8.4840943e-02
-8.7838542e-02
-7.4781892e-02
-3.1298169e-02
3.1540001e-02
7.4788930e-02
8.7877445e-02
8.5346031e-02
7.5946452e-02
6.4602967e-02
5.3941243e-02
4.4130939e-02
3.4645287e-02
2.6535688e-02
2.0797577e-02
1.6367440e-02
1.2136083e-02
8.6637871e-03
6.6430372e-03
5.5796016e-03
4.7474942e-03
4.3250448e-03
4.6321539e-03
5.2907590e-03
5.9599668e-03
6.3751266e-03
6.1607981e-03
5.2982876e-03
4.4530582e-03
4.0649033e-03
3.6258920e-03
2.6707436e-03
1.3754554e-03
5.3119445e-04
5.8921342e-04
7.0621630e-04
1.2669480e-04
-2.1698945e-04
9.2418870e-04
2.9050025e-03
4.2704937e-03
5.6723950e-03
8.6860553e-03
1.3254722e-02
1.9133803e-02
2.6257750e-02
3.4657761e-02
4.5385211e-02
5.7995734e-02
7.0173956e-02
7.9864673e-02
8.2888333e-02
7.0795426e-02
2.9856234e-02
-2.9386337e-02
-7.0134263e-02
-8.4081720e-02
-8.4257581e-02
-7.7056284e-02
-6.6353718e-02
-5.4448860e-02
-4.4038672e-02
-3.5985451e-02
-2.8517637e-02
-2.1461157e-02
-1.7573701e-02
-1.8269681e-02
-2.0978000e-02
-2.3012548e-02
-2.5969018e-02
-3.2432430e-02
-4.1835989e-02
-5.2173543e-02
-6.2547753e-02
-7.3132913e-02
-8.2417945e-02
-8.4880370e-02
-7.1500046e-02
-2.9463082e-02
3.0643786e-02
7.2359984e-02
8.6238669e-02
8.5659208e-02
7.7833737e-02
6.7331975e-02
5.7200983e-02
4.8377745e-02
4.0583389e-02
3.3434502e-02
2.7221280e-02
2.3216936e-02
2.1425528e-02
2.0827974e-02
2.1729399e-02
2.4990227e-02
3.0949547e-02
3.9306222e-02
4.9055553e-02
5.8629544e-02
6.7258596e-02
7.4195179e-02
7.5227364e-02
6.1719136e-02
2.0326248e-02
-3.8357593e-02
-7.7119105e-02
-8.6770197e-02
-8.2526583e-02
-7.2578974e-02
-6.0854365e-02
-4.9501852e-02
-3.9308042e-02
-3.0243084e-02
-2.2194641e-02
-1.5527688e-02
-1.0196783e-02
-5.8270305e-03
-2.5650540e-03
-1.5995549e-05
2.2534055e-03
3.3167408e-03
3.6633624e-03
4.9598346e-03
6.6974594e-03
7.4700745e-03
7.0275152e-03
6.4447264e-03
6.5359153e-03
5.1523035e-03
1.1079499e-03
-2.5370150e-03
-4.2780683e-03
-5.0700884e-03
-5.3711030e-03
-5.0256220e-03
-3.9556907e-03
-3.3613255e-03
-3.7175798e-03
-4.0729923e-03
-3.5077911e-03
-1.8592900e-03
-4.1199351e-04
9.9325449e-05
6.6908245e-04
1.8154344e-03
2.6500342e-03
2.4885191e-03
1.6266500e-03
3.8048782e-04
-1.1611763e-03
-2.5910289e-03
-3.6973564e-03
-4.3007837e-03
-3.3465599e-03
-6.2339585e-04
1.9218023e-03
2.6574462e-03
1.5062893e-03
-1.1162180e-03
-3.7502590e-03
-4.7035774e-03
-4.3236804e-03
-3.8367920e-03
-3.0457048e-03
-2.1673334e-03
-1.9739638e-03
-1.7277846e-03
-1.6216443e-03
-1.7767889e-03
-7.1681988e-04
1.3933081e-03
2.5987641e-03
2.2611020e-03
1.3250277e-03
4.3615771e-04
-6.4799419e-05
