-1.8877664e-04
-2.1402585e-04
-2.4160502e-04
-2.7247845e-04
-3.0621487e-04
-3.4067653e-04
-3.7201991e-04
-3.9502526e-04
-4.0371290e-04
-3.9215680e-04
-3.5537537e-04
-2.9016816e-04
-1.9577650e-04
-7.4272018e-05
6.9383990e-05
2.2762263e-04
3.9085897e-04
5.4832380e-04
6.8904077e-04
8.0284113e-04
8.8130858e-04
9.1855633e-04
9.1175798e-04
8.6138131e-04
7.7110852e-04
6.4746207e-04
4.9918697e-04
3.3646273e-04
1.7003052e-04
1.0323735e-05
-1.3331866e-04
-2.5329558e-04
-3.4420807e-04
-4.0313078e-04
-4.2969191e-04
-4.2597286e-04
-3.9624869e-04
-3.4660047e-04
-2.8443743e-04
-2.1796720e-04
-1.5565137e-04
-1.0565391e-04
-7.5226859e-05
-7.0043574e-05
-9.3627625e-05
-1.4699261e-04
-2.2852200e-04
-3.3409414e-04
-4.5743401e-04
-5.9064566e-04
-7.2485566e-04
-8.5089090e-04
-9.5992644e-04
-1.0440577e-03
-1.0967659e-03
-1.1132523e-03
-1.0906279e-03
-1.0279605e-03
-9.2620484e-04
-7.8804655e-04
-6.1769153e-04
-4.2061797e-04
-2.0330604e-04
2.7039423e-05
2.6275832e-04
4.9598978e-04
7.1891518e-04
9.2399858e-04
1.1042318e-03
1.2533861e-03
1.3662688e-03
1.4389752e-03
1.4691169e-03
1.4559952e-03
1.4006850e-03
1.3060074e-03
1.1763874e-03
1.0176093e-03
8.3649001e-04
6.4049915e-04
4.3734816e-04
2.3454728e-04
3.8988735e-05
-1.4331798e-04
-3.0737309e-04
-4.4926842e-04
-5.6624967e-04
-6.5675030e-04
-7.2038174e-04
-7.5787022e-04
-7.7093909e-04
-7.6214201e-04
-7.3465692e-04
-6.9205592e-04
-6.3807063e-04
-5.7637184e-04
-5.1037406e-04
-4.4306677e-04
-3.7687337e-04
-3.1354571e-04
-2.5410803e-04
-1.9886344e-04
-1.4747042e-04
-9.9089666e-05
-5.2593055e-05
-6.8162503e-06
3.9173832e-05
8.5834696e-05
1.3296943e-04
1.7965217e-04
2.2428299e-04
2.6477470e-04
2.9884683e-04
3.2437709e-04
3.3974389e-04
3.4409217e-04
3.3746737e-04
3.2078815e-04
2.9565757e-04
2.6404137e-04
2.2786742e-04
1.8871276e-04
1.4777337e-04
1.0606010e-04
6.4635190e-05
2.4810050e-05
-1.1728314e-05
-4.2898742e-05
-6.6337448e-05
-7.9639032e-05
-8.0697930e-05
-6.8095795e-05
-4.1467204e-05
-1.7780284e-06
4.8535905e-05
1.0560266e-04
1.6432992e-04
2.1878651e-04
2.6270922e-04
2.9007655e-04
2.9568463e-04
2.7566497e-04
2.2789417e-04
1.5225671e-04
5.0734920e-05
-7.2681776e-05
-2.1225412e-04
-3.6088340e-04
-5.1059041e-04
-6.5303493e-04
-7.8002788e-04
-8.8399214e-04
-9.5833842e-04
-9.9774109e-04
-9.9831939e-04
-9.5774465e-04
-8.7529944e-04
-7.5191430e-04
-5.9020152e-04
-3.9449086e-04
-1.7085706e-04
7.3029110e-05
3.2833412e-04
5.8551565e-04
8.3464707e-04
1.0657336e-03
1.2690792e-03
1.4356989e-03
1.5577558e-03
1.6289898e-03
1.6450968e-03
1.6040229e-03
1.5061474e-03
1.3543395e-03
1.1538787e-03
9.1223730e-04
6.3873820e-04
3.4411726e-04
4.0023426e-05
-2.6151415e-04
-5.4863203e-04
-8.1017477e-04
-1.0362151e-03
-1.2185313e-03
-1.3510194e-03
-1.4300185e-03
-1.4545218e-03
-1.4262444e-03
-1.3495195e-03
-1.2310097e-03
-1.0792372e-03
-9.0396011e-04
-7.1543460e-04
-5.2362611e-04
-3.3744514e-04
-1.6409824e-04
-8.6415495e-06
1.2619747e-04
2.3990072e-04
3.3375397e-04
4.1021816e-04
4.7230029e-04
5.2315117e-04
5.6582840e-04
6.0308772e-04
6.3718283e-04
6.6968466e-04
7.0133179e-04
7.3192237e-04
7.6025495e-04
7.8412459e-04
8.0038275e-04
8.0507659e-04
7.9368484e-04
7.6145974e-04
7.0386842e-04
6.1711127e-04
4.9868186e-04
3.4792012e-04
1.6649478e-04
-4.1261061e-05
-2.6823885e-04
-5.0472847e-04
-7.3890638e-04
-9.5762679e-04
-1.1474611e-03
-1.2958872e-03
-1.3924936e-03
-1.4300435e-03
-1.4052536e-03
-1.3191759e-03
-1.1771245e-03
-9.8815686e-04
-7.6417933e-04
-5.1880057e-04
-2.6608666e-04
-1.9375085e-05
2.0971215e-04
4.1195237e-04
5.8085046e-04
7.1263008e-04
8.0608644e-04
8.6238588e-04
8.8457862e-04
8.7683884e-04
8.4372366e-04
7.8962221e-04
7.1845807e-04
6.3364805e-04
5.3826487e-04
4.3531191e-04
3.2800414e-04
2.1996253e-04
1.1526063e-04
1.8300006e-05
-6.6472778e-05
-1.3496438e-04
-1.8388480e-04
-2.1117912e-04
-2.1637624e-04
-2.0080383e-04
-1.6763673e-04
-1.2176394e-04
-6.9476043e-05
-1.7992606e-05
2.5131331e-05
5.2665097e-05
5.8368530e-05
3.7608619e-05
-1.2122759e-05
-9.0834823e-05
-1.9584668e-04
-3.2180674e-04
-4.6093452e-04
-6.0348045e-04
-7.3838390e-04
-8.5408788e-04
-9.3944071e-04
-9.8458821e-04
-9.8174962e-04
-9.2579047e-04
-8.1453507e-04
-6.4896551e-04
-4.3351941e-04
-1.7629804e-04
1.1112090e-04
4.1431246e-04
7.1698888e-04
1.0022136e-03
1.2537044e-03
1.4570834e-03
1.6009435e-03
1.6776271e-03
1.6836580e-03
1.6198187e-03
1.4909071e-03
1.3052286e-03
1.0738945e-03
8.0999754e-04
5.2773413e-04
2.4152585e-04
-3.4820561e-05
-2.8888824e-04
-5.1033228e-04
-6.9143302e-04
-8.2748073e-04
-9.1695875e-04
-9.6150551e-04
-9.6564817e-04
-9.3631068e-04
-8.8211423e-04
-8.1251423e-04
-7.3684758e-04
-6.6338588e-04
-5.9849603e-04
-5.4600379e-04
-5.0684030e-04
-4.7902737e-04
-4.5801850e-04
-4.3736289e-04
-4.0960180e-04
-3.6724914e-04
-3.0382165e-04
-2.1496308e-04
-9.9471223e-05
4.0057991e-05
1.9710840e-04
3.6166738e-04
5.2113490e-04
6.6159696e-04
7.6930696e-04
8.3220030e-04
8.4126425e-04
7.9160191e-04
6.8306898e-04
5.2041824e-04
3.1294652e-04
7.3694647e-05
-1.8169904e-04
-4.3635151e-04
-6.7353465e-04
-8.7797308e-04
-1.0369276e-03
-1.1409956e-03
-1.1845970e-03
-1.1661348e-03
-1.0878423e-03
-9.5534419e-04
-7.7698303e-04
-5.6298426e-04
-3.2455099e-04
-7.2991068e-05
1.8102443e-04
4.2799645e-04
6.5989466e-04
8.7023163e-04
1.0539678e-03
1.2073176e-03
1.3275253e-03
1.4126686e-03
1.4615489e-03
1.4736290e-03
1.4488150e-03
1.3870661e-03
1.2880963e-03
1.1513639e-03
9.7638359e-04
7.6332025e-04
5.1376450e-04
2.3154752e-04
-7.6565355e-05
-4.0045911e-04
-7.2666301e-04
-1.0388401e-03
-1.3187928e-03
-1.5479234e-03
-1.7090008e-03
-1.7880150e-03
-1.7758675e-03
-1.6696617e-03
-1.4734135e-03
-1.1980759e-03
-8.6086358e-04
-4.8393928e-04
-9.2601660e-05
2.8683573e-04
6.2925065e-04
9.1277072e-04
1.1204689e-03
1.2415275e-03
1.2717761e-03
1.2135913e-03
1.0752272e-03
8.6969810e-04
6.1337913e-04
3.2450006e-04
2.1705712e-05
-2.7717758e-04
-5.5607742e-04
-8.0127516e-04
-1.0016715e-03
-1.1488719e-03
-1.2373193e-03
-1.2644344e-03
-1.2306023e-03
-1.1389921e-03
-9.9524332e-04
-8.0704657e-04
-5.8364626e-04
-3.3530421e-04
-7.2757424e-05
1.9330272e-04
4.5270572e-04
6.9620310e-04
9.1576560e-04
1.1047576e-03
1.2579920e-03
1.3716882e-03
1.4433648e-03
1.4716983e-03
1.4563818e-03
1.3980185e-03
1.2980788e-03
1.1589328e-03
9.8394273e-04
7.7758856e-04
5.4559053e-04
2.9498504e-04
3.4100547e-05
-2.2762112e-04
-4.7999360e-04
-7.1264296e-04
-9.1570866e-04
-1.0806117e-03
-1.2007964e-03
-1.2723461e-03
-1.2943787e-03
-1.2691447e-03
-1.2017841e-03
-1.0997507e-03
-9.7198473e-04
-8.2805079e-04
-6.7742665e-04
-5.2888740e-04
-3.8991891e-04
-2.6621815e-04
-1.6134752e-04
-7.6587283e-05
-1.1010287e-05
3.8218405e-05
7.5341944e-05
1.0537103e-04
1.3338918e-04
1.6389867e-04
2.0028723e-04
2.4447019e-04
2.9673680e-04
3.5580303e-04
4.1904351e-04
4.8284751e-04
5.4303000e-04
5.9523826e-04
6.3531948e-04
6.5963843e-04
6.6534450e-04
6.5058706e-04
6.1467606e-04
5.5818413e-04
4.8298472e-04
3.9221334e-04
2.9012983e-04
1.8185989e-04
7.3010391e-05
-3.0818597e-05
-1.2457228e-04
-2.0425356e-04
-2.6732077e-04
-3.1288727e-04
-3.4166703e-04
-3.5565983e-04
-3.5763420e-04
-3.5062790e-04
-3.3761485e-04
-3.2117694e-04
-3.0313118e-04
-2.8427891e-04
-2.6436851e-04
-2.4227387e-04
-2.1634527e-04
-1.8485944e-04
-1.4648451e-04
-1.0068035e-04
-4.7967918e-05
9.9777129e-06
7.0427161e-05
1.2987249e-04
1.8443340e-04
2.3032921e-04
2.6434329e-04
2.8420873e-04
2.8885869e-04
2.7851094e-04
2.5458750e-04
2.1949686e-04
1.7632207e-04
1.2846192e-04
7.9269774e-05
3.1728135e-05
-1.1809625e-05
-4.9785017e-05
-8.1490645e-05
-1.0701207e-04
-1.2706630e-04
-1.4276316e-04
-1.5532700e-04
-1.6582268e-04
-1.7492989e-04
-1.8280266e-04
-1.8903853e-04
-1.9276935e-04
-1.9286927e-04
-1.8829203e-04
-1.7843773e-04
-1.6332795e-04
-1.4357486e-04
-1.2027897e-04
-9.4908539e-05
-6.9170740e-05
-4.4880834e-05
-2.3830995e-05
-7.6596707e-06
2.2764457e-06
5.0249551e-06
1.5108368e-07
-1.2166245e-05
-3.1071863e-05
-5.5027476e-05
-8.1878840e-05
-1.0900177e-04
-1.3351536e-04
-1.5253868e-04
-1.6345978e-04
-1.6418084e-04
-1.5330106e-04
-1.3020700e-04
-9.5058660e-05
-4.8684380e-05
7.5837898e-06
7.2093210e-05
1.4303109e-04
2.1852734e-04
2.9667821e-04
3.7548780e-04
4.5274730e-04
5.2589129e-04
5.9188137e-04
6.4716553e-04
6.8775084e-04
7.0941141e-04
7.0803095e-04
6.8004708e-04
6.2287555e-04
5.3527643e-04
4.1776816e-04
2.7300153e-04
1.0589254e-04
-7.6562564e-05
-2.6578360e-04
-4.5234676e-04
-6.2685550e-04
-7.8080700e-04
-9.0732797e-04
-1.0016844e-03
-1.0615125e-03
-1.0867630e-03
-1.0793896e-03
-1.0428507e-03
-9.8151379e-04
-9.0006141e-04
-8.0298010e-04
-6.9418956e-04
-5.7683640e-04
-4.5325104e-04
-3.2504335e-04
-1.9329542e-04
-5.8799298e-05
7.7710327e-05
2.1536406e-04
3.5302184e-04
4.8919253e-04
6.2200124e-04
7.4919482e-04
8.6817457e-04
9.7604601e-04
1.0696824e-03
1.1458095e-03
1.2011278e-03
1.2324799e-03
1.2370623e-03
1.2126638e-03
1.1579114e-03
1.0724662e-03
9.5716856e-04
8.1422230e-04
6.4736340e-04
4.6187341e-04
2.6438721e-04
6.2507773e-05
-1.3573204e-04
-3.2249939e-04
-4.9080556e-04
-6.3507995e-04
-7.5159878e-04
-8.3871750e-04
-8.9688461e-04
-9.2843891e-04
-9.3721196e-04
-9.2797857e-04
-9.0582104e-04
-8.7548842e-04
-8.4083303e-04
-8.0439409e-04
-7.6717945e-04
-7.2867557e-04
-6.8708983e-04
-6.3979553e-04
-5.8391207e-04
-5.1692511e-04
-4.3724287e-04
-3.4460051e-04
-2.4025426e-04
-1.2694122e-04
-8.6136977e-06
1.1001159e-04
2.2401940e-04
3.2888682e-04
4.2100325e-04
4.9803737e-04
5.5909712e-04
6.0466968e-04
6.3638463e-04
6.5671572e-04
6.6863743e-04
6.7513250e-04
6.7863240e-04
6.8058353e-04
6.8122132e-04
6.7956534e-04
6.7361934e-04
6.6073186e-04
6.3804929e-04
6.0298209e-04
5.5360893e-04
4.8896386e-04
4.0917892e-04
3.1548335e-04
2.1008400e-04
9.5965619e-05
-2.3348338e-05
-1.4404082e-04
-2.6222985e-04
-3.7416706e-04
-4.7639833e-04
-5.6588392e-04
-6.4008044e-04
-6.9699279e-04
-7.3520762e-04
-7.5392019e-04
-7.5296054e-04
-7.3281379e-04
-6.9461743e-04
-6.4011297e-04
-5.7153652e-04
-4.9145219e-04
-4.0255407e-04
-3.0747551e-04
-2.0864180e-04
-1.0818738e-04
-7.9408334e-06
9.0532737e-05
1.8585275e-04
2.7678813e-04
3.6228305e-04
4.4140839e-04
5.1321554e-04
5.7658995e-04
6.3015087e-04
6.7221521e-04
7.0083552e-04
7.1390974e-04
7.0934783e-04
6.8527538e-04
6.4025765e-04
5.7352992e-04
4.8521819e-04
3.7652922e-04
2.4988865e-04
1.0900827e-04
-4.1135836e-05
-1.9443414e-04
-3.4390114e-04
-4.8206575e-04
-6.0148007e-04
-6.9531069e-04
-7.5796071e-04
-7.8566132e-04
-7.7696347e-04
-7.3305535e-04
-6.5783806e-04
-5.5771624e-04
-4.4109933e-04
-3.1764831e-04
-1.9733645e-04
-8.9419682e-05
-1.4374079e-06
6.1620278e-05
9.7849707e-05
1.0858400e-04
9.8126351e-05
7.3101684e-05
4.1532510e-05
1.1881128e-05
-7.7897586e-06
-1.0648695e-05
8.0961894e-06
5.0597737e-05
1.1608024e-04
2.0088456e-04
2.9883234e-04
4.0185948e-04
5.0084012e-04
5.8650210e-04
6.5032988e-04
6.8536313e-04
6.8682129e-04
6.5250771e-04
5.8296792e-04
4.8139840e-04
3.5332844e-04
2.0612296e-04
4.8367898e-05
-1.1080083e-04
-2.6237096e-04
-3.9808192e-04
-5.1096376e-04
-5.9575159e-04
-6.4915313e-04
-6.6996005e-04
-6.5900399e-04
-6.1896434e-04
-5.5404292e-04
-4.6953345e-04
-3.7132619e-04
-2.6539462e-04
-1.5731089e-04
-5.1836573e-05
4.7362893e-05
1.3783661e-04
2.1827672e-04
2.8827129e-04
3.4794073e-04
3.9756657e-04
4.3725069e-04
4.6655723e-04
4.8421621e-04
4.8803688e-04
4.7508650e-04
4.4211475e-04
3.8615571e-04
3.0520942e-04
1.9889306e-04
6.8954987e-05
-8.0438345e-05
-2.4270162e-04
-4.0913286e-04
-5.6949217e-04
-7.1279715e-04
-8.2825387e-04
-9.0623005e-04
-9.3917057e-04
-9.2235855e-04
-8.5444078e-04
-7.3766477e-04
-5.7780769e-04
-3.8380868e-04
-1.6714130e-04
5.9016592e-05
2.8074249e-04
4.8437725e-04
6.5750201e-04
7.8981354e-04
8.7383863e-04
9.0543965e-04
8.8407517e-04
8.1279613e-04
6.9797829e-04
5.4881376e-04
3.7660257e-04
1.9389915e-04
1.3579554e-05
-1.5208419e-04
-2.9230179e-04
-3.9862381e-04
-4.6569966e-04
-4.9174078e-04
-4.7857894e-04
-4.3131083e-04
-3.5757731e-04
-2.6657800e-04
-1.6795653e-04
-7.0705618e-05
1.7766763e-05
9.2295323e-05
1.5026552e-04
1.9155022e-04
2.1810972e-04
2.3334092e-04
2.4129674e-04
2.4590950e-04
2.5034037e-04
2.5654441e-04
2.6509406e-04
2.7525376e-04
2.8525573e-04
2.9270363e-04
2.9502652e-04
2.8991415e-04
2.7567650e-04
2.5148107e-04
2.1743599e-04
1.7451095e-04
1.2431930e-04
6.8812424e-05
9.9515297e-06
-5.0577092e-05
-1.1154592e-04
-1.7223014e-04
-2.3230383e-04
-2.9161970e-04
-3.4993538e-04
-4.0665681e-04
-4.6070767e-04
-5.1056956e-04
-5.5435730e-04
-5.8985774e-04
-6.1460216e-04
-6.2599993e-04
-6.2151276e-04
-5.9885246e-04
-5.5619413e-04
-4.9239919e-04
-4.0723523e-04
-3.0156881e-04
-1.7750369e-04
-3.8443750e-05
1.1092896e-04
2.6476158e-04
4.1621897e-04
5.5774689e-04
6.8140324e-04
7.7925363e-04
8.4383212e-04
8.6866719e-04
8.4886224e-04
7.8169621e-04
6.6718182e-04
5.0849890e-04
3.1221666e-04
8.8227634e-05
-1.5066325e-04
-3.8951421e-04
-6.1234955e-04
-8.0348999e-04
-9.4896425e-04
-1.0378407e-03
-1.0633283e-03
-1.0235186e-03
-9.2166786e-04
-7.6596217e-04
-5.6876948e-04
-3.4546940e-04
-1.1311806e-04
1.1087033e-04
3.1013147e-04
4.7081085e-04
5.8281524e-04
6.4066656e-04
6.4386643e-04
5.9675019e-04
5.0786613e-04
3.8895681e-04
2.5365602e-04
1.1605069e-04
-1.0721463e-05
-1.1567883e-04
-1.9088785e-04
-2.3197106e-04
-2.3820780e-04
-2.1224618e-04
-1.5948989e-04
-8.7264634e-05
-3.8882650e-06
8.2242289e-05
1.6346160e-04
2.3348394e-04
2.8784794e-04
3.2413600e-04
3.4197120e-04
3.4281690e-04
3.2961522e-04
3.0630357e-04
2.7725172e-04
2.4667225e-04
2.1806852e-04
1.9378617e-04
1.7472265e-04
1.6023065e-04
1.4823209e-04
1.3553796e-04
1.1833729e-04
9.2771569e-05
5.5425699e-05
3.7378928e-06
-6.3474663e-05
-1.4547326e-04
-2.3930493e-04
-3.3985732e-04
-4.4025630e-04
-5.3254681e-04
-6.0855290e-04
-6.6078904e-04
-6.8329585e-04
-6.7229390e-04
-6.2658179e-04
-5.4764480e-04
-4.3948368e-04
-3.0821016e-04
-1.6147616e-04
-7.8064814e-06
1.4409961e-04
2.8603691e-04
4.1087629e-04
5.1301449e-04
5.8866409e-04
6.3597800e-04
6.5501944e-04
6.4759856e-04
6.1700088e-04
5.6763412e-04
5.0461990e-04
4.3335530e-04
3.5906832e-04
2.8639492e-04
2.1901022e-04
1.5935049e-04
1.0845923e-04
6.5979821e-05
3.0298852e-05
-1.1771716e-06
-3.1649857e-05
-6.4521561e-05
-1.0304046e-04
-1.4992320e-04
-2.0678714e-04
-2.7354531e-04
-3.4805350e-04
-4.2612095e-04
-5.0188444e-04
-5.6848405e-04
-6.1893076e-04
-6.4703041e-04
-6.4822692e-04
-6.2024657e-04
-5.6345886e-04
-4.8091344e-04
-3.7806033e-04
-2.6220408e-04
-1.4177121e-04
-2.5481982e-05
7.8483005e-05
1.6323881e-04
2.2380573e-04
2.5752308e-04
2.6424226e-04
2.4629705e-04
2.0826563e-04
1.5654863e-04
9.8794757e-05
4.3214870e-05
-2.1647811e-06
-3.0249434e-05
-3.5556575e-05
-1.4764592e-05
3.2928313e-05
1.0567566e-04
1.9909979e-04
3.0663845e-04
4.2007726e-04
5.3020731e-04
6.2754199e-04
7.0301471e-04
7.4858651e-04
7.5786806e-04
7.2687359e-04
6.5468856e-04
5.4377550e-04
3.9984376e-04
2.3130500e-04
4.8393018e-05
-1.3792306e-04
-3.1707207e-04
-4.7989855e-04
-6.1943382e-04
-7.3133844e-04
-8.1398663e-04
-8.6821074e-04
-8.9676703e-04
-9.0361899e-04
-8.9315467e-04
-8.6945301e-04
-8.3569518e-04
-7.9378752e-04
-7.4423192e-04
-6.8624561e-04
-6.1809712e-04
-5.3759332e-04
-4.4263385e-04
-3.3174796e-04
-2.0453937e-04
-6.1983483e-05
9.3455904e-05
2.5789554e-04
4.2626480e-04
5.9265636e-04
7.5074237e-04
8.9420557e-04
1.0171430e-03
1.1144079e-03
1.1818635e-03
1.2165388e-03
1.2166892e-03
1.1817947e-03
1.1125880e-03
1.0111656e-03
8.8107441e-04
7.2725695e-04
5.5584070e-04
3.7378800e-04
1.8844130e-04
7.0105702e-06
-1.6393778e-04
-3.1892483e-04
-4.5387679e-04
-5.6627858e-04
-6.5515376e-04
-7.2088779e-04
-7.6492869e-04
-7.8940956e-04
-7.9674284e-04
-7.8923781e-04
-7.6878647e-04
-7.3665079e-04
-6.9337171e-04
-6.3881255e-04
-5.7233954e-04
-4.9312366e-04
-4.0052205e-04
-2.9447775e-04
-1.7587169e-04
-4.6767683e-05
8.9496645e-05
2.2840520e-04
3.6455128e-04
4.9208735e-04
6.0526865e-04
6.9899920e-04
7.6928797e-04
8.1353935e-04
8.3062921e-04
8.2075299e-04
7.8507655e-04
7.2537291e-04
6.4389711e-04
5.4347475e-04
4.2758724e-04
3.0035054e-04
1.6637855e-04
3.0542870e-05
-1.0233867e-04
-2.2784091e-04
-3.4224961e-04
-4.4281217e-04
-5.2787940e-04
-5.9691275e-04
-6.5035459e-04
-6.8938443e-04
-7.1560127e-04
-7.3068160e-04
-7.3606407e-04
-7.3270801e-04
-7.2095977e-04
-7.0054094e-04
-6.7065167e-04
-6.3016809e-04
-5.7790382e-04
-5.1289970e-04
-4.3470076e-04
-3.4358056e-04
-2.4068227e-04
-1.2805975e-04
-8.6137627e-06
1.1407290e-04
2.3598638e-04
3.5299043e-04
4.6115507e-04
5.5706555e-04
6.3807648e-04
7.0248050e-04
7.4956698e-04
7.7955967e-04
7.9344987e-04
7.9282695e-04
7.7975068e-04
7.5654668e-04
7.2551721e-04
6.8867813e-04
6.4757418e-04
6.0318592e-04
5.5592252e-04
5.0567775e-04
4.5192100e-04
3.9380250e-04
3.3026665e-04
2.6017725e-04
1.8246156e-04
9.6278180e-05
1.2104619e-06
-1.0252017e-04
-2.1384129e-04
-3.3065509e-04
-4.4975167e-04
-5.6685461e-04
-6.7682588e-04
-7.7403283e-04
-8.5285377e-04
-9.0827228e-04
-9.3648492e-04
-9.3542998e-04
-9.0514326e-04
-8.4786571e-04
-7.6786348e-04
-6.7096526e-04
-5.6386770e-04
-4.5330265e-04
-3.4519173e-04
-2.4392476e-04
-1.5188149e-04
-6.9274712e-05
5.6638135e-06
7.6192195e-05
1.4636101e-04
2.2033719e-04
3.0182099e-04
3.9334887e-04
4.9554688e-04
6.0662638e-04
7.2225779e-04
8.3584133e-04
9.3913122e-04
1.0231167e-03
1.0790269e-03
1.0993163e-03
1.0785052e-03
1.0137817e-03
9.0531672e-04
7.5627995e-04
5.7258579e-04
3.6242550e-04
1.3566293e-04
-9.6831085e-05
-3.2385039e-04
-5.3450189e-04
-7.1881813e-04
-8.6832534e-04
-9.7655183e-04
-1.0394531e-03
-1.0557201e-03
-1.0269297e-03
-9.5749145e-04
-8.5435763e-04
-7.2648799e-04
-5.8410010e-04
-4.3777013e-04
-2.9747266e-04
-1.7166241e-04
-6.6508228e-05
1.4612920e-05
7.1279579e-05
1.0581619e-04
1.2274541e-04
1.2800577e-04
1.2812446e-04
1.2942722e-04
1.3720663e-04
1.5495230e-04
1.8386451e-04
2.2273630e-04
2.6818921e-04
3.1520018e-04
3.5782763e-04
3.9002781e-04
4.0644630e-04
4.0307860e-04
3.7772040e-04
3.3016785e-04
2.6217019e-04
1.7717394e-04
7.9923628e-05
-2.4002808e-05
-1.2865118e-04
-2.2808953e-04
-3.1672748e-04
-3.8956428e-04
-4.4238928e-04
-4.7196233e-04
-4.7619286e-04
-4.5431990e-04
-4.0707315e-04
-3.3677534e-04
-2.4733773e-04
-1.4410882e-04
-3.3559545e-05
7.7182677e-05
1.8091197e-04
2.7097281e-04
3.4186297e-04
3.8973016e-04
4.1269495e-04
4.1096060e-04
3.8670562e-04
3.4379259e-04
2.8738149e-04
2.2344405e-04
1.5808483e-04
9.6781878e-05
4.3768346e-05
1.6633723e-06
-2.8615086e-05
-4.7667218e-05
-5.7212100e-05
-5.9561662e-05
-5.7076364e-05
-5.1706429e-05
-4.4695933e-05
-3.6488432e-05
-2.6832311e-05
-1.5048076e-05
-3.9207638e-07
1.7564881e-05
3.8625006e-05
6.1779326e-05
8.5183895e-05
1.0629867e-04
1.2216815e-04
1.2980436e-04
1.2661496e-04
1.1080665e-04
8.1693688e-05
3.9860526e-05
-1.2839870e-05
-7.3436656e-05
-1.3810348e-04
-2.0248895e-04
-2.6207482e-04
-3.1252784e-04
-3.5001856e-04
-3.7148972e-04
-3.7486514e-04
-3.5919123e-04
-3.2469796e-04
-2.7276436e-04
-2.0577192e-04
-1.2692697e-04
-4.0183880e-05
4.9786365e-05
1.3772227e-04
2.1803949e-04
2.8522585e-04
3.3431628e-04
3.6138204e-04
3.6396396e-04
3.4138437e-04
2.9488427e-04
2.2755394e-04
1.4405779e-04
5.0190306e-05
-4.7672389e-05
-1.4314892e-04
-2.3038398e-04
-3.0447403e-04
-3.6174587e-04
-3.9987166e-04
-4.1783294e-04
-4.1577004e-04
-3.9476387e-04
-3.5659333e-04
-3.0350597e-04
-2.3803634e-04
-1.6290044e-04
-8.0976800e-05
4.6436143e-06
9.0581099e-05
1.7311693e-04
2.4821646e-04
3.1165894e-04
3.5928936e-04
3.8738487e-04
3.9310019e-04
3.7492860e-04
3.3310012e-04
2.6984212e-04
1.8941215e-04
9.7797177e-05
2.0930045e-06
-9.0268356e-05
-1.7227421e-04
-2.3796117e-04
-2.8285060e-04
-3.0416409e-04
-3.0083320e-04
-2.7334714e-04
-2.2349704e-04
-1.5407875e-04
-6.8608993e-05
2.8905496e-05
1.3412963e-04
2.4250144e-04
3.4930108e-04
4.4972128e-04
5.3896856e-04
6.1241415e-04
6.6579966e-04
6.9548933e-04
6.9874837e-04
6.7401852e-04
6.2115677e-04
5.4160018e-04
4.3842198e-04
3.1625141e-04
1.8104423e-04
3.9708721e-05
-1.0038803e-04
-2.3199164e-04
-3.4855650e-04
-4.4480771e-04
-5.1720812e-04
-5.6427246e-04
-5.8668011e-04
-5.8715972e-04
-5.7014886e-04
-5.4127842e-04
-5.0677629e-04
-4.7285333e-04
-4.4509155e-04
-4.2789501e-04
-4.2407174e-04
-4.3457239e-04
-4.5839077e-04
-4.9262188e-04
-5.3266497e-04
-5.7255205e-04
-6.0537917e-04
-6.2381852e-04
-6.2068970e-04
-5.8956500e-04
-5.2537489e-04
-4.2497023e-04
-2.8759247e-04
-1.1520322e-04
8.7370267e-05
3.1250825e-04
5.5010930e-04
7.8813405e-04
1.0133486e-03
1.2122102e-03
1.3718252e-03
1.4809053e-03
1.5306439e-03
1.5154331e-03
1.4333456e-03
1.2863291e-03
1.0800944e-03
8.2371912e-04
5.2901778e-04
2.0975045e-04
-1.1925384e-04
-4.4297572e-04
-7.4700799e-04
-1.0182214e-03
-1.2452664e-03
-1.4189292e-03
-1.5324704e-03
-1.5820074e-03
-1.5667588e-03
-1.4890298e-03
-1.3539941e-03
-1.1693234e-03
-9.4468996e-04
-6.9117575e-04
-4.2062585e-04
-1.4498828e-04
1.2432011e-04
3.7698558e-04
6.0427353e-04
7.9937453e-04
9.5759138e-04
1.0763539e-03
1.1550717e-03
1.1948553e-03
1.1981485e-03
1.1683177e-03
1.1092480e-03
1.0249932e-03
9.1952545e-04
7.9660480e-04
6.5977094e-04
5.1243357e-04
3.5802639e-04
2.0017663e-04
4.2832083e-05
-1.0971102e-04
-2.5291387e-04
-3.8223248e-04
-4.9344975e-04
-5.8304616e-04
-6.4854729e-04
-6.8878862e-04
-7.0404477e-04
-6.9598946e-04
-6.6748537e-04
-6.2225124e-04
-5.6453598e-04
-4.9884854e-04
-4.2962609e-04
-3.6084908e-04
-2.9573773e-04
-2.3659368e-04
-1.8479107e-04
-1.4088862e-04
-1.0481257e-04
-7.6055201e-05
-5.3842788e-05
-3.7243213e-05
-2.5204778e-05
-1.6542937e-05
-9.9142183e-06
-3.8239724e-06
3.2987403e-06
1.2951771e-05
2.6353331e-05
4.4211807e-05
6.6514785e-05
9.2384932e-05
1.2004810e-04
1.4694606e-04
1.7000282e-04
1.8602447e-04
1.9218387e-04
1.8651893e-04
1.6836037e-04
1.3860563e-04
9.9773020e-05
5.5803975e-05
1.1624948e-05
-2.7475931e-05
-5.6567441e-05
-7.1778782e-05
-7.0874218e-05
-5.3599668e-05
-2.1734555e-05
2.1175659e-05
7.0253578e-05
1.1970156e-04
1.6329129e-04
1.9502970e-04
2.0987781e-04
2.0438139e-04
1.7711924e-04
1.2890988e-04
6.2755591e-05
-1.6460013e-05
-1.0247299e-04
-1.8826598e-04
-2.6673755e-04
-3.3133631e-04
-3.7660119e-04
-3.9857119e-04
-3.9504392e-04
-3.6567463e-04
-3.1191956e-04
-2.3684003e-04
-1.4479133e-04
-4.1023519e-05
6.8774869e-05
1.7895040e-04
2.8432641e-04
3.8056322e-04
4.6439950e-04
5.3375542e-04
5.8769390e-04
6.2624718e-04
6.5012918e-04
6.6037329e-04
6.5795449e-04
6.4346343e-04
6.1689098e-04
5.7755873e-04
5.2420329e-04
4.5519651e-04
3.6885994e-04
2.6380605e-04
1.3922377e-04
-4.7932233e-06
-1.6670647e-04
-3.4295908e-04
-5.2766783e-04
-7.1269337e-04
-8.8809656e-04
-1.0429273e-03
-1.1662392e-03
-1.2481900e-03
-1.2810843e-03
-1.2602249e-03
-1.1844728e-03
-1.0564530e-03
-8.8239363e-04
-6.7163275e-04
-4.3586408e-04
-1.8821320e-04
5.7760174e-05
2.8904351e-04
4.9405736e-04
6.6338427e-04
7.9030202e-04
8.7110532e-04
9.0521413e-04
8.9507201e-04
8.4584078e-04
7.6490800e-04
6.6124039e-04
5.4463189e-04
4.2490350e-04
3.1111708e-04
2.1086966e-04
1.2973613e-04
7.0918553e-05
3.5135351e-05
2.0751379e-05
2.4121074e-05
4.0095897e-05
6.2622483e-05
8.5315353e-05
1.0202435e-04
1.0753271e-04
9.8265393e-05
7.2753436e-05
3.1751038e-05
-2.1989789e-05
-8.4223511e-05
-1.4988930e-04
-2.1384079e-04
-2.7151277e-04
-3.1943705e-04
-3.5555444e-04
-3.7930430e-04
-3.9150479e-04
-3.9406379e-04
-3.8958008e-04
-3.8090179e-04
-3.7070313e-04
-3.6112613e-04
-3.5351717e-04
-3.4827279e-04
-3.4479533e-04
-3.4154789e-04
-3.3619301e-04
-3.2580203e-04
-3.0712777e-04
-2.7693534e-04
-2.3237823e-04
-1.7139171e-04
-9.3060184e-05
2.0901490e-06
1.1191534e-04
2.3262133e-04
3.5888644e-04
4.8413692e-04
6.0096162e-04
7.0163607e-04
7.7870827e-04
8.2558219e-04
8.3704762e-04
8.0982981e-04
7.4321480e-04
6.3955063e-04
5.0439833e-04
3.4626828e-04
1.7595938e-04
5.5728817e-06
-1.5268156e-04
-2.8773766e-04
-3.9082315e-04
-4.5636487e-04
-4.8253923e-04
-4.7140413e-04
-4.2859946e-04
-3.6265751e-04
-2.8401702e-04
-2.0387103e-04
-1.3298979e-04
-8.0647666e-05
-5.3756833e-05
-5.6278203e-05
-8.8944826e-05
-1.4929666e-04
-2.3199199e-04
-3.2933806e-04
-4.3197662e-04
-5.2966334e-04
-6.1208247e-04
-6.6963666e-04
-6.9415454e-04
-6.7947232e-04
-6.2186656e-04
-5.2032967e-04
-3.7668434e-04
-1.9553486e-04
1.5940382e-05
2.4834115e-04
4.9052065e-04
7.3015225e-04
9.5440432e-04
1.1507976e-03
1.3081890e-03
1.4176763e-03
1.4732697e-03
1.4722694e-03
1.4153275e-03
1.3062055e-03
1.1512654e-03
9.5877105e-04
7.3809670e-04
4.9894610e-04
2.5066991e-04
1.7443026e-06
-2.4054792e-04
-4.7021627e-04
-6.8245717e-04
-8.7339828e-04
-1.0397755e-03
-1.1786301e-03
-1.2870986e-03
-1.3623441e-03
-1.4016572e-03
-1.4027293e-03
-1.3640648e-03
-1.2854597e-03
-1.1684496e-03
-1.0166231e-03
-8.3571639e-04
-6.3343600e-04
-4.1899979e-04
-2.0243335e-04
6.2912339e-06
1.9815292e-04
3.6588590e-04
5.0457908e-04
6.1199442e-04
6.8856593e-04
7.3708231e-04
7.6211787e-04
7.6942415e-04
7.6543006e-04
7.5672570e-04
7.4946909e-04
7.4881169e-04
7.5840458e-04
7.8002174e-04
8.1333205e-04
8.5584111e-04
9.0301199e-04
9.4856432e-04
9.8494343e-04
1.0039411e-03
9.9743403e-04
9.5818792e-04
8.8065759e-04
7.6170364e-04
6.0114122e-04
4.0204159e-04
1.7072508e-04
-8.3581531e-05
-3.4940319e-04
-6.1392363e-04
-8.6403953e-04
-1.0874421e-03
-1.2736051e-03
-1.4145707e-03
-1.5054550e-03
-1.5446298e-03
-1.5335833e-03
-1.4764934e-03
-1.3795831e-03
-1.2503506e-03
-1.0967796e-03
-9.2663803e-04
-7.4695079e-04
-5.6370002e-04
-3.8176712e-04
-2.0508708e-04
-3.6940599e-05
1.1984031e-04
2.6289670e-04
3.9038512e-04
5.0089853e-04
5.9336033e-04
6.6695408e-04
7.2109970e-04
7.5547465e-04
7.7006710e-04
7.6524096e-04
7.4179048e-04
7.0096621e-04
6.4446250e-04
5.7436699e-04
4.9308135e-04
4.0322755e-04
3.0755440e-04
2.0885508e-04
1.0989922e-04
1.3374823e-05
-7.8170398e-05
-1.6239951e-04
-2.3727560e-04
-3.0116818e-04
-3.5296537e-04
-3.9217189e-04
-4.1896857e-04
-4.3420906e-04
-4.3933633e-04
-4.3621358e-04
-4.2688067e-04
-4.1326405e-04
-3.9688181e-04
-3.7859200e-04
-3.5843000e-04
-3.3556843e-04
-3.0841349e-04
-2.7482930e-04
-2.3245800e-04
-1.7908132e-04
-1.1291061e-04
-3.2833412e-05
6.1203742e-05
1.6777730e-04
2.8378440e-04
4.0452958e-04
5.2407012e-04
6.3575264e-04
7.3285146e-04
8.0921214e-04
8.5981501e-04
8.8119823e-04
8.7170909e-04
8.3157633e-04
7.6281333e-04
6.6897709e-04
5.5482341e-04
4.2590886e-04
2.8818922e-04
1.4765141e-04
9.9969605e-06
-1.1961993e-04
-2.3680566e-04
-3.3810150e-04
-4.2113084e-04
-4.8472524e-04
-5.2901783e-04
-5.5546923e-04
-5.6677937e-04
-5.6664812e-04
-5.5937513e-04
-5.4932190e-04
-5.4028712e-04
-5.3487076e-04
-5.3392612e-04
-5.3621415e-04
-5.3836263e-04
-5.3518503e-04
-5.2034181e-04
-4.8725756e-04
-4.3007046e-04
-3.4448669e-04
-2.2865195e-04
-8.3933351e-05
8.4678595e-05
2.6867633e-04
4.5664830e-04
6.3532228e-04
7.9090527e-04
9.1054803e-04
9.8374425e-04
1.0034855e-03
9.6703559e-04
8.7625037e-04
7.3743012e-04
5.6074246e-04
3.5928917e-04
1.4791907e-04
-5.8090830e-05
-2.4435595e-04
-3.9858517e-04
-5.1155850e-04
-5.7779790e-04
-5.9587223e-04
-5.6831255e-04
-5.0116191e-04
-4.0322912e-04
-2.8514441e-04
-1.5832075e-04
-3.3917326e-05
7.8106156e-05
1.6976474e-04
2.3559053e-04
2.7290602e-04
2.8182010e-04
2.6496100e-04
2.2697871e-04
1.7387021e-04
1.1220604e-04
4.8368520e-05
-1.2075818e-05
-6.4896865e-05
-1.0771089e-04
-1.4034259e-04
-1.6483053e-04
-1.8503035e-04
-2.0588196e-04
-2.3246978e-04
-2.6903713e-04
-3.1811613e-04
-3.7990841e-04
-4.5200999e-04
-5.2952197e-04
-6.0553044e-04
-6.7188371e-04
-7.2015336e-04
-7.4264683e-04
-7.3333900e-04
-6.8860445e-04
-6.0766044e-04
-4.9267314e-04
-3.4852961e-04
-1.8232261e-04
-2.6262827e-06
1.8134206e-04
3.6057249e-04
5.2702587e-04
6.7422416e-04
7.9760678e-04
8.9462535e-04
9.6458491e-04
1.0082747e-03
1.0274613e-03
1.0243384e-03
1.0010379e-03
9.5929536e-04
9.0033230e-04
8.2496973e-04
7.3393749e-04
6.2830865e-04
5.0987413e-04
3.8118984e-04
2.4527233e-04
1.0518932e-04
-3.6259864e-05
-1.7670520e-04
-3.1419646e-04
-4.4705403e-04
-5.7363707e-04
-6.9209253e-04
-8.0014331e-04
-8.9496401e-04
-9.7318057e-04
-1.0310129e-03
-1.0645568e-03
-1.0701775e-03
-1.0449728e-03
-9.8724856e-04
-8.9693908e-04
-7.7590102e-04
-6.2801725e-04
-4.5907970e-04
-2.7645910e-04
-8.8601536e-05
9.5592325e-05
2.6744349e-04
4.1916056e-04
5.4442676e-04
6.3884550e-04
7.0019646e-04
7.2847457e-04
7.2570715e-04
6.9557102e-04
6.4286234e-04
5.7289970e-04
4.9095773e-04
4.0182346e-04
3.0954257e-04
2.1738358e-04
1.2802074e-04
4.3777785e-05
-3.3338964e-05
-1.0179065e-04
-1.6060537e-04
-2.0935572e-04
-2.4803664e-04
-2.7686206e-04
-2.9602044e-04
-3.0544628e-04
-3.0466671e-04
-2.9276490e-04
-2.6847368e-04
-2.3038488e-04
-1.7723811e-04
-1.0823645e-04
-2.3327894e-05
7.6603170e-05
1.8966688e-04
3.1301965e-04
4.4300478e-04
5.7533548e-04
7.0527573e-04
8.2778429e-04
9.3760261e-04
1.0292912e-03
1.0972506e-03
1.1357894e-03
1.1392989e-03
1.1025763e-03
1.0212961e-03
8.9260397e-04
7.1576941e-04
4.9279989e-04
2.2889207e-04
-6.7406144e-05
-3.8440790e-04
-7.0789067e-04
-1.0220392e-03
-1.3106325e-03
-1.5583629e-03
-1.7522212e-03
-1.8827807e-03
-1.9450478e-03
-1.9387304e-03
-1.8680047e-03
-1.7408710e-03
-1.5681836e-03
-1.3624587e-03
-1.1365803e-03
-9.0254330e-04
-6.7038192e-04
-4.4742011e-04
-2.3793896e-04
-4.3297643e-05
1.3752345e-04
3.0705308e-04
4.6828010e-04
6.2359658e-04
7.7389603e-04
9.1795493e-04
1.0521828e-03
1.1707829e-03
1.2663194e-03
1.3306257e-03
1.3559326e-03
1.3360532e-03
1.2674496e-03
1.1500293e-03
9.8754846e-04
7.8755089e-04
5.6083320e-04
3.2049058e-04
8.0661651e-05
-1.4486643e-04
-3.4401054e-04
-5.0752410e-04
-6.2975690e-04
-7.0893778e-04
-7.4694474e-04
-7.4861728e-04
-7.2091675e-04
-6.7218946e-04
-6.1134360e-04
-5.4684993e-04
-4.8578601e-04
-4.3311064e-04
-3.9127266e-04
-3.6019352e-04
-3.3759848e-04
-3.1962278e-04
-3.0158943e-04
-2.7884128e-04
-2.4750713e-04
-2.0509292e-04
-1.5081965e-04
-8.5675278e-05
-1.2196685e-05
6.5962498e-05
1.4459672e-04
2.1955111e-04
2.8726900e-04
3.4521041e-04
3.9209827e-04
4.2798079e-04
4.5412254e-04
4.7275153e-04
4.8669824e-04
4.9896895e-04
5.1230183e-04
5.2875679e-04
5.4938632e-04
5.7402397e-04
6.0121332e-04
6.2828336e-04
6.5155755e-04
6.6666819e-04
6.6893994e-04
6.5380608e-04
6.1721847e-04
5.5599659e-04
4.6805070e-04
3.5262435e-04
2.1076833e-04
4.5840108e-05
-1.3631009e-04
-3.2756766e-04
-5.1816568e-04
-6.9758159e-04
-8.5557167e-04
-9.8318364e-04
-1.0736117e-03
-1.1228002e-03
-1.1297450e-03
-1.0964754e-03
-1.0277347e-03
-9.3040934e-04
-8.1278812e-04
-6.8374338e-04
-5.5192209e-04
-4.2502274e-04
-3.0922089e-04
-2.0878673e-04
-1.2590976e-04
-6.0715553e-05
-1.1440250e-05
2.5275761e-05
5.4009067e-05
8.0118390e-05
1.0927803e-04
1.4699765e-04
1.9814042e-04
2.6645333e-04
3.5413477e-04
4.6147896e-04
5.8664088e-04
7.2555474e-04
8.7202069e-04
1.0179575e-03
1.1538051e-03
1.2690519e-03
1.3528603e-03
1.3948808e-03
1.3863235e-03
1.3210292e-03
1.1962319e-03
1.0129078e-03
7.7570916e-04
4.9253639e-04
1.7384545e-04
-1.6818838e-04
-5.2052738e-04
-8.7004961e-04
-1.2041854e-03
-1.5113826e-03
-1.7814011e-03
-2.0054607e-03
-2.1762936e-03
-2.2881560e-03
-2.3368476e-03
-2.3197580e-03
-2.2359337e-03
-2.0861514e-03
-1.8729815e-03
-1.6008381e-03
-1.2760063e-03
-9.0663882e-04
-5.0270007e-04
-7.5838182e-05
3.6083588e-04
7.9308137e-04
1.2059871e-03
1.5845565e-03
1.9143943e-03
2.1824532e-03
2.3777877e-03
2.4922642e-03
2.5211719e-03
2.4636750e-03
2.3230485e-03
2.1066717e-03
1.8257547e-03
1.4947861e-03
1.1307510e-03
7.5216693e-04
3.7797381e-04
2.6357684e-05
-2.8639772e-04
-5.4693768e-04
-7.4566007e-04
-8.7726919e-04
-9.4100791e-04
-9.4054044e-04
-8.8349346e-04
-7.8070357e-04
-6.4524804e-04
-4.9134883e-04
-3.3324424e-04
-1.8412591e-04
-5.5237404e-05
4.4787962e-05
1.1030535e-04
1.3874717e-04
1.3045015e-04
8.8273361e-05
1.7076175e-05
-7.6868099e-05
-1.8645260e-04
-3.0425489e-04
-4.2295537e-04
-5.3563887e-04
-6.3597960e-04
-7.1832694e-04
-7.7772905e-04
-8.0994807e-04
-8.1152468e-04
-7.7993348e-04
-7.1384080e-04
-6.1344239e-04
-4.8082587e-04
-3.2026930e-04
-1.3824338e-04
5.7025793e-05
2.5619682e-04
4.4946633e-04
6.2725175e-04
7.8087541e-04
9.0317695e-04
9.8898369e-04
1.0353848e-03
1.0417850e-03
1.0097488e-03
9.4267661e-04
8.4537094e-04
7.2355227e-04
5.8337789e-04
4.3101102e-04
2.7227813e-04
1.1243721e-04
-4.3940389e-05
-1.9299033e-04
-3.3150560e-04
-4.5685017e-04
-5.6686963e-04
-6.5982762e-04
-7.3438553e-04
-7.8962674e-04
-8.2511020e-04
-8.4092577e-04
-8.3772013e-04
-8.1666682e-04
-7.7936473e-04
-7.2766442e-04
-6.6344136e-04
-5.8835679e-04
-5.0366312e-04
-4.1011092e-04
-3.0799723e-04
-1.9736642e-04
-7.8343764e-05
4.8448737e-05
1.8160844e-04
3.1896514e-04
4.5769292e-04
5.9437336e-04
7.2508264e-04
8.4554245e-04
9.5133180e-04
1.0381466e-03
1.1020847e-03
1.1399259e-03
1.1493742e-03
1.1292342e-03
1.0795078e-03
1.0014057e-03
8.9727583e-04
7.7046034e-04
6.2509865e-04
4.6590444e-04
2.9794065e-04
1.2640732e-04
-4.3555844e-05
-2.0705818e-04
-3.5964501e-04
-4.9748667e-04
-6.1756746e-04
-7.1786293e-04
-7.9747885e-04
-8.5671125e-04
-8.9698604e-04
-9.2065333e-04
-9.3064269e-04
-9.3001603e-04
-9.2147629e-04
-9.0690247e-04
-8.8698872e-04
-8.6106448e-04
-8.2715575e-04
-7.8230920e-04
-7.2314800e-04
-6.4656717e-04
-5.5034650e-04
-4.3356105e-04
-2.9693474e-04
-1.4313415e-04
2.3166772e-05
1.9550944e-04
3.6613172e-04
5.2664018e-04
6.6878702e-04
7.8525847e-04
8.7038218e-04
9.2066879e-04
9.3512264e-04
9.1528860e-04
8.6503787e-04
7.9012742e-04
6.9759016e-04
5.9502956e-04
4.8990382e-04
3.8888460e-04
2.9735819e-04
2.1910560e-04
1.5616551e-04
1.0886172e-04
7.5968573e-05
5.4983697e-05
4.2472712e-05
3.4447421e-05
2.6743319e-05
1.5372729e-05
-3.1600989e-06
-3.1590004e-05
-7.1674204e-05
-1.2403358e-04
-1.8805836e-04
-2.6188758e-04
-3.4247584e-04
-4.2575989e-04
-5.0692702e-04
-5.8077440e-04
-6.4215021e-04
-6.8647511e-04
-7.1030447e-04
-7.1182001e-04
-6.9113011e-04
-6.5030812e-04
-5.9315136e-04
-5.2469386e-04
-4.5054637e-04
-3.7616074e-04
-3.0612488e-04
-2.4358965e-04
-1.8991272e-04
-1.4457247e-04
-1.0536185e-04
-6.8825905e-05
-3.0870465e-05
1.2550394e-05
6.4763805e-05
1.2781185e-04
2.0205920e-04
2.8601839e-04
3.7640741e-04
4.6842715e-04
5.5622573e-04
6.3349862e-04
6.9415772e-04
7.3298920e-04
7.4621698e-04
7.3190125e-04
6.9012572e-04
6.2295686e-04
5.3418638e-04
4.2889570e-04
3.1290623e-04
1.9219642e-04
7.2371188e-05
-4.1741385e-05
-1.4631262e-04
-2.3853029e-04
-3.1651274e-04
-3.7932345e-04
-4.2707811e-04
-4.6093535e-04
-4.8287280e-04
-4.9529163e-04
-5.0053494e-04
-5.0041647e-04
-4.9584674e-04
-4.8662121e-04
-4.7140620e-04
-4.4792943e-04
-4.1335618e-04
-3.6480662e-04
-2.9994660e-04
-2.1756678e-04
-1.1806024e-04
-3.7213351e-06
1.2118556e-04
2.5060944e-04
3.7714236e-04
4.9266284e-04
5.8913191e-04
6.5945315e-04
6.9829221e-04
7.0275027e-04
6.7280041e-04
6.1141900e-04
5.2437670e-04
4.1969289e-04
3.0680167e-04
1.9551989e-04
9.4941402e-05
1.2401035e-05
-4.7349191e-05
-8.2633685e-05
-9.4944786e-05
-8.8620847e-05
-7.0162897e-05
-4.7303646e-05
-2.8033255e-05
-1.9735358e-05
-2.8409778e-05
-5.7999289e-05
-1.0993828e-04
-1.8299371e-04
-2.7340633e-04
-3.7530006e-04
-4.8129748e-04
-5.8326038e-04
-6.7306348e-04
-7.4331122e-04
-7.8792581e-04
-8.0256469e-04
-7.8485503e-04
-7.3445321e-04
-6.5295038e-04
-5.4365371e-04
-4.1128126e-04
-2.6160946e-04
-1.0110316e-04
6.3456510e-05
2.2533883e-04
3.7821287e-04
5.1645829e-04
6.3541419e-04
7.3154908e-04
8.0254496e-04
8.4729497e-04
8.6581942e-04
8.5911119e-04
8.2893151e-04
7.7758316e-04
7.0768739e-04
6.2198489e-04
5.2317919e-04
4.1384290e-04
2.9640328e-04
1.7320722e-04
4.6641375e-05
-8.0816936e-05
-2.0668214e-04
-3.2850659e-04
-4.4381626e-04
-5.5003628e-04
-6.4446828e-04
-7.2433410e-04
-7.8687472e-04
-8.2947989e-04
-8.4982758e-04
-8.4602615e-04
-8.1676157e-04
-7.6145125e-04
-6.8039962e-04
-5.7494184e-04
-4.4755364e-04
-3.0189665e-04
-1.4276568e-04
2.4086126e-05
1.9224516e-04
3.5503126e-04
5.0594284e-04
6.3910585e-04
7.4968456e-04
8.3421550e-04
8.9082590e-04
9.1930344e-04
9.2100051e-04
8.9858013e-04
8.5563400e-04
7.9621972e-04
7.2437584e-04
6.4368012e-04
5.5691409e-04
4.6587953e-04
3.7138282e-04
2.7337064e-04
1.7117908e-04
6.3845945e-05
-4.9580752e-05
-1.6982800e-04
-2.9716108e-04
-4.3091472e-04
-5.6896935e-04
-7.0748825e-04
-8.4101632e-04
-9.6292100e-04
-1.0660933e-03
-1.1437834e-03
-1.1904274e-03
-1.2023341e-03
-1.1781313e-03
-1.1189168e-03
-1.0281105e-03
-9.1104537e-04
-7.7436955e-04
-6.2535025e-04
-4.7117506e-04
-3.1833456e-04
-1.7214763e-04
-3.6464039e-05
8.6447459e-05
1.9583937e-04
2.9228451e-04
3.7737442e-04
4.5335961e-04
5.2276848e-04
5.8803264e-04
6.5114167e-04
7.1335011e-04
7.7495851e-04
8.3518506e-04
8.9213753e-04
9.4289290e-04
9.8369023e-04
1.0102347e-03
1.0180936e-03
1.0031462e-03
9.6203827e-04
8.9258558e-04
7.9404113e-04
6.6725717e-04
5.1486820e-04
3.4142888e-04
1.5334865e-04
-4.1422830e-05
-2.3393730e-04
-4.1495511e-04
-5.7572866e-04
-7.0875938e-04
-8.0843187e-04
-8.7145186e-04
-8.9704573e-04
-8.8690733e-04
-8.4490238e-04
-7.7656645e-04
-6.8846043e-04
-5.8747094e-04
-4.8014854e-04
-3.7216230e-04
-2.6792314e-04
-1.7040196e-04
-8.1145013e-05
-4.6388161e-07
7.2244961e-05
1.3811041e-04
1.9838537e-04
2.5408246e-04
3.0568569e-04
3.5296935e-04
3.9494386e-04
4.2993081e-04
4.5575141e-04
4.7000312e-04
4.7039419e-04
4.5509852e-04
4.2308106e-04
3.7433640e-04
3.0998713e-04
2.3220404e-04
1.4400700e-04
4.9148951e-05
-4.7858592e-05
-1.4179588e-04
-2.2701482e-04
-2.9791726e-04
-3.4954181e-04
-3.7815774e-04
-3.8177465e-04
-3.6049559e-04
-3.1666162e-04
-2.5476022e-04
-1.8109761e-04
-1.0326361e-04
-2.9439348e-05
3.2388825e-05
7.5234412e-05
9.3848793e-05
8.5302877e-05
4.9337499e-05
-1.1562939e-05
-9.2385617e-05
-1.8607443e-04
-2.8423636e-04
-3.7799099e-04
-4.5886282e-04
-5.1961010e-04
-5.5489598e-04
-5.6173066e-04
-5.3963904e-04
-4.9053513e-04
-4.1831854e-04
-3.2825106e-04
-2.2621212e-04
-1.1795330e-04
-8.4661632e-06
9.8449520e-05
2.0036668e-04
2.9615186e-04
3.8565812e-04
4.6936593e-04
5.4814281e-04
6.2301331e-04
6.9483722e-04
7.6397303e-04
8.2999557e-04
8.9150024e-04
9.4601652e-04
9.9004145e-04
1.0191971e-03
1.0285161e-03
1.0128540e-03
9.6741443e-04
8.8834303e-04
7.7332865e-04
6.2213641e-04
4.3700797e-04
2.2287762e-04
-1.2636484e-05
-2.5949600e-04
-5.0577305e-04
-7.3843062e-04
-9.4430195e-04
-1.1111909e-03
-1.2289953e-03
-1.2907408e-03
-1.2934010e-03
-1.2383810e-03
-1.1315669e-03
-9.8288955e-04
-8.0541985e-04
-6.1407275e-04
-4.2406289e-04
-2.4929694e-04
-1.0091094e-04
1.3848136e-05
9.2240559e-05
1.3606509e-04
1.5110071e-04
1.4605011e-04
1.3127896e-04
1.1761260e-04
1.1512592e-04
1.3193514e-04
1.7321395e-04
2.4058963e-04
3.3197432e-04
4.4182426e-04
5.6176814e-04
6.8150886e-04
7.8988368e-04
8.7596748e-04
9.3011563e-04
9.4486188e-04
9.1560581e-04
8.4104319e-04
7.2331244e-04
5.6785269e-04
3.8299083e-04
1.7929313e-04
-3.1268773e-05
-2.3627331e-04
-4.2384875e-04
-5.8363195e-04
-7.0760121e-04
-7.9070607e-04
-8.3123027e-04
-8.3084388e-04
-7.9433104e-04
-7.2901983e-04
-6.4398109e-04
-5.4908995e-04
-4.5405213e-04
-3.6749058e-04
-2.9617595e-04
-2.4447247e-04
-2.1405404e-04
-2.0391721e-04
-2.1068220e-04
-2.2913329e-04
-2.5279700e-04
-2.7441323e-04
-2.8647647e-04
-2.8194040e-04
-2.5495897e-04
-2.0155986e-04
-1.2017702e-04
-1.1975350e-05
1.1908289e-04
2.6645163e-04
4.2148242e-04
5.7412918e-04
7.1380913e-04
8.3033836e-04
9.1485246e-04
9.6061944e-04
9.6365968e-04
9.2310680e-04
8.4127228e-04
7.2340762e-04
5.7718940e-04
4.1198513e-04
2.3798671e-04
6.5313446e-05
-9.6817855e-05
-2.4077644e-04
-3.6099763e-04
-4.5422407e-04
-5.1949781e-04
-5.5792306e-04
-5.7224897e-04
-5.6633954e-04
-5.4460179e-04
-5.1144048e-04
-4.7080183e-04
-4.2585880e-04
-3.7886854e-04
-3.3120164e-04
-2.8350980e-04
-2.3598758e-04
-1.8859582e-04
-1.4114876e-04
-9.3397668e-05
-4.5191720e-05
3.3660629e-06
5.1820338e-05
9.9331713e-05
1.4470926e-04
1.8649854e-04
2.2311171e-04
2.5298210e-04
2.7472397e-04
2.8728161e-04
2.9005678e-04
2.8300495e-04
2.6668782e-04
2.4226710e-04
2.1142905e-04
1.7623905e-04
1.3893553e-04
1.0167976e-04
6.6285741e-05
3.3965919e-05
5.1384374e-06
-2.0660319e-05
-4.4731190e-05
-6.9033248e-05
-9.5888752e-05
-1.2760469e-04
-1.6605386e-04
-2.1226676e-04
-2.6608879e-04
-3.2595320e-04
-3.8880677e-04
-4.5020917e-04
-5.0461083e-04
-5.4579617e-04
-5.6745657e-04
-5.6382920e-04
-5.3031382e-04
-4.6399206e-04
-3.6411324e-04
-2.3260865e-04
-7.4435482e-05
1.0247486e-04
2.8770529e-04
4.6921690e-04
6.3447005e-04
7.7165455e-04
8.7087580e-04
9.2515754e-04
9.3114883e-04
8.8946171e-04
8.0461310e-04
6.8458980e-04
5.4009208e-04
3.8353614e-04
2.2791224e-04
8.5607135e-05
-3.2695704e-05
-1.1893291e-04
-1.6831380e-04
-1.7966029e-04
-1.5541959e-04
-1.0136287e-04
-2.6003274e-05
6.0216206e-05
1.4589807e-04
2.1974531e-04
2.7159987e-04
2.9336589e-04
2.7972869e-04
2.2860155e-04
1.4126042e-04
2.2160112e-05
-1.2153944e-04
-2.8067738e-04
-4.4494316e-04
-6.0377692e-04
-7.4721537e-04
-8.6660465e-04
-9.5516262e-04
-1.0083806e-03
-1.0242127e-03
-1.0030168e-03
-9.4725903e-04
-8.6103181e-04
-7.4946347e-04
-6.1811280e-04
-4.7243424e-04
-3.1737877e-04
-1.5716738e-04
4.7559691e-06
1.6561269e-04
3.2305899e-04
4.7488516e-04
6.1869321e-04
7.5160057e-04
8.7002010e-04
9.6956908e-04
1.0451543e-03
1.0912595e-03
1.1024276e-03
1.0738952e-03
1.0023058e-03
8.8640856e-04
7.2763984e-04
5.3048487e-04
3.0253542e-04
5.4195299e-05
-2.0196271e-04
-4.5213130e-04
-6.8239324e-04
-8.7990592e-04
-1.0340024e-03
-1.1370718e-03
-1.1851116e-03
-1.1778905e-03
-1.1187150e-03
-1.0138464e-03
-8.7176174e-04
-7.0250506e-04
-5.1714777e-04
-3.2721969e-04
-1.4406175e-04
2.1876064e-05
1.6174404e-04
2.6893955e-04
3.3961197e-04
3.7295810e-04
3.7126840e-04
3.3971124e-04
2.8586256e-04
2.1900689e-04
1.4926354e-04
8.6623646e-05
4.0003967e-05
1.6421311e-05
2.0369867e-05
5.3455412e-05
1.1431294e-04
1.9880690e-04
3.0048313e-04
4.1121366e-04
5.2195782e-04
6.2356082e-04
7.0751748e-04
7.6663738e-04
7.9555671e-04
7.9105616e-04
7.5216682e-04
6.8007472e-04
5.7786131e-04
4.5013713e-04
3.0263386e-04
1.4181631e-04
-2.5440980e-05
-1.9209422e-04
-3.5109753e-04
-4.9553626e-04
-6.1885669e-04
-7.1531996e-04
-7.8057459e-04
-8.1213311e-04
-8.0965043e-04
-7.7497346e-04
-7.1195180e-04
-6.2602897e-04
-5.2366743e-04
-4.1168852e-04
-2.9662061e-04
-1.8414118e-04
-7.8678196e-05
1.6790911e-05
1.0073337e-04
1.7286981e-04
2.3384815e-04
2.8485212e-04
3.2721590e-04
3.6210354e-04
3.9029267e-04
4.1208338e-04
4.2733511e-04
4.3561490e-04
4.3642140e-04
4.2943328e-04
4.1472594e-04
3.9290532e-04
3.6512430e-04
3.3296970e-04
2.9823421e-04
2.6261056e-04
2.2736187e-04
1.9302991e-04
1.5924280e-04
1.2467443e-04
8.7186219e-05
4.4148224e-05
-7.1024866e-06
-6.8743430e-05
-1.4204120e-04
-2.2710713e-04
-3.2274356e-04
-4.2636072e-04
-5.3404282e-04
-6.4078020e-04
-7.4083801e-04
-8.2821510e-04
-8.9713908e-04
-9.4254125e-04
-9.6045847e-04
-9.4832053e-04
-9.0510152e-04
-8.3133580e-04
-7.2901822e-04
-6.0141885e-04
-4.5284637e-04
-2.8839111e-04
-1.1366951e-04
6.5420433e-05
2.4293268e-04
4.1309794e-04
5.7053636e-04
7.1044806e-04
8.2876906e-04
9.2228670e-04
9.8871835e-04
1.0267617e-03
1.0361185e-03
1.0174856e-03
9.7250309e-04
9.0365743e-04
8.1414027e-04
7.0766815e-04
5.8827402e-04
4.6009245e-04
3.2716883e-04
1.9331948e-04
6.2053227e-05
-6.3458409e-05
-1.8048049e-04
-2.8692125e-04
-3.8142753e-04
-4.6327928e-04
-5.3220411e-04
-5.8819094e-04
-6.3133170e-04
-6.6170567e-04
-6.7931454e-04
-6.8407482e-04
-6.7586822e-04
-6.5463861e-04
-6.2050953e-04
-5.7389272e-04
-5.1556638e-04
-4.4671580e-04
-3.6893591e-04
-2.8419620e-04
-1.9476834e-04
-1.0312233e-04
-1.1801825e-05
7.6710989e-05
1.6013423e-04
2.3652436e-04
3.0440390e-04
3.6286226e-04
4.1161058e-04
4.5097551e-04
4.8182341e-04
5.0541112e-04
5.2316470e-04
5.3639898e-04
5.4601071e-04
5.5219594e-04
5.5424853e-04
5.5048612e-04
5.3833011e-04
5.1454380e-04
4.7560816e-04
4.1818735e-04
3.3957223e-04
2.3813289e-04
1.1394602e-04
-3.0561063e-05
-1.9027235e-04
-3.5748079e-04
-5.2242247e-04
-6.7417321e-04
-8.0177452e-04
-8.9542439e-04
-9.4756739e-04
-9.5374263e-04
-9.1308704e-04
-8.2843971e-04
-7.0604570e-04
-5.5490992e-04
-3.8589280e-04
-2.1066258e-04
-4.0622617e-05
1.1407555e-04
2.4533874e-04
3.4768721e-04
4.1851986e-04
4.5808914e-04
4.6922008e-04
4.5682995e-04
4.2731401e-04
3.8786171e-04
3.4576122e-04
3.0773999e-04
2.7937938e-04
2.6463406e-04
2.6548445e-04
2.8175017e-04
3.1108981e-04
3.4920006e-04
3.9020837e-04
4.2722994e-04
4.5303474e-04
4.6074386e-04
4.4444210e-04
3.9974217e-04
3.2441987e-04
2.1895140e-04
8.6700160e-05
-6.6301636e-05
-2.3192264e-04
-4.0075139e-04
-5.6303702e-04
-7.0961974e-04
-8.3273400e-04
-9.2659794e-04
-9.8774210e-04
-1.0150701e-03
-1.0096799e-03
-9.7449977e-04
-9.1380621e-04
-8.3268823e-04
-7.3651321e-04
-6.3043909e-04
-5.1901066e-04
-4.0587065e-04
-2.9360477e-04
-1.8372207e-04
-7.6754527e-05
2.7548444e-05
1.2995603e-04
2.3144791e-04
3.3289155e-04
4.3473662e-04
5.3675514e-04
6.3784912e-04
7.3594543e-04
8.2799978e-04
9.1012857e-04
9.7787077e-04
1.0265566e-03
1.0517385e-03
1.0496316e-03
1.0175092e-03
9.5397756e-04
8.5918073e-04
7.3507419e-04
5.8566425e-04
4.1702190e-04
2.3701849e-04
5.4799567e-05
-1.1994751e-04
-2.7783915e-04
-4.1063938e-04
-5.1198994e-04
-5.7794121e-04
-6.0723398e-04
-6.0131441e-04
-5.6409124e-04
-5.0146916e-04
-4.2071499e-04
-3.2973214e-04
-2.3632670e-04
-1.4754345e-04
-6.9135752e-05
-5.2133084e-06
4.1911550e-05
7.1686025e-05
8.5118720e-05
8.4465391e-05
7.2843279e-05
5.3815027e-05
3.0982641e-05
7.6327935e-06
-1.3530761e-05
-3.0547666e-05
-4.2254537e-05
-4.8247608e-05
-4.8779560e-05
-4.4620946e-05
-3.6919022e-05
-2.7083634e-05
-1.6718415e-05
-7.5870632e-06
-1.5423964e-06
-3.3902261e-07
-5.3668966e-06
-1.7409642e-05
-3.6480545e-05
-6.1752367e-05
-9.1591119e-05
-1.2369503e-04
-1.5533058e-04
-1.8364491e-04
-2.0601896e-04
-2.2041434e-04
-2.2566426e-04
-2.2166469e-04
-2.0943055e-04
-1.9099499e-04
-1.6915165e-04
-1.4706959e-04
-1.2783904e-04
-1.1402065e-04
-1.0726765e-04
-1.0807608e-04
-1.1569825e-04
-1.2823179e-04
-1.4287012e-04
-1.5627369e-04
-1.6500211e-04
-1.6594170e-04
-1.5667146e-04
-1.3572691e-04
-1.0273759e-04
-5.8430118e-05
-4.5054585e-06
5.6584226e-05
1.2192193e-04
1.8843476e-04
2.5319016e-04
3.1365443e-04
3.6789891e-04
4.1474323e-04
4.5386095e-04
4.8580541e-04
5.1181885e-04
5.3344596e-04
5.5209791e-04
5.6865224e-04
5.8314053e-04
5.9456831e-04
6.0089532e-04
5.9918191e-04
5.8588504e-04
5.5726939e-04
5.0988579e-04
4.4106112e-04
3.4934332e-04
2.3485169e-04
9.9494399e-05
-5.2971731e-05
-2.1705049e-04
-3.8578321e-04
-5.5117883e-04
-7.0477038e-04
-8.3825864e-04
-9.4419131e-04
-1.0166124e-03
-1.0516071e-03
-1.0476670e-03
-1.0058204e-03
-9.2950285e-04
-8.2418811e-04
-6.9682923e-04
-5.5517949e-04
-4.0707237e-04
-2.5974182e-04
-1.1926247e-04
9.8231158e-06
1.2464619e-04
2.2391466e-04
3.0761052e-04
3.7656962e-04
4.3213324e-04
4.7593352e-04
5.0963672e-04
5.3463392e-04
5.5183117e-04
5.6158776e-04
5.6378112e-04
5.5795827e-04
5.4352230e-04
5.1990271e-04
4.8667494e-04
4.4362040e-04
3.9074280e-04
3.2826873e-04
2.5666220e-04
1.7667794e-04
8.9468262e-05
-3.2602371e-06
-9.9070460e-05
-1.9465289e-04
-2.8578021e-04
-3.6741100e-04
-4.3397359e-04
-4.7983255e-04
-4.9990694e-04
-4.9037290e-04
-4.4935096e-04
-3.7746238e-04
-2.7814527e-04
-1.5764781e-04
-2.4656477e-05
1.1043590e-04
2.3656293e-04
3.4320098e-04
4.2160167e-04
4.6585000e-04
4.7357101e-04
4.4615867e-04
3.8847863e-04
3.0809587e-04
2.1425261e-04
1.1678380e-04
2.4953662e-05
-5.3662967e-05
-1.1400496e-04
-1.5392793e-04
-1.7415778e-04
-1.7783451e-04
-1.6974392e-04
-1.5537547e-04
-1.3996175e-04
-1.2764492e-04
-1.2088301e-04
-1.2016599e-04
-1.2406509e-04
-1.2959450e-04
-1.3282066e-04
-1.2961985e-04
-1.1646584e-04
-9.1131260e-05
-5.3204910e-05
-4.3540638e-06
5.1707394e-05
1.0954815e-04
1.6260741e-04
2.0396249e-04
2.2716951e-04
2.2706528e-04
2.0043320e-04
1.4646139e-04
6.6946790e-05
-3.3775080e-05
-1.4916670e-04
-2.7105382e-04
-3.9035782e-04
-4.9791928e-04
-5.8532872e-04
-6.4567779e-04
-6.7414641e-04
-6.6834806e-04
-6.2835556e-04
-5.5648600e-04
-4.5704956e-04
-3.3606255e-04
-2.0081977e-04
-5.9331452e-05
8.0317405e-05
2.1061810e-04
3.2523465e-04
4.1948886e-04
4.9068663e-04
5.3824839e-04
5.6362391e-04
5.6999608e-04
5.6180726e-04
5.4416672e-04
5.2221224e-04
5.0050159e-04
4.8250194e-04
4.7023076e-04
4.6408087e-04
4.6283841e-04
4.6387995e-04
4.6351733e-04
4.5744852e-04
4.4126728e-04
4.1098079e-04
3.6348509e-04
2.9695395e-04
2.1110813e-04
1.0734482e-04
-1.1283051e-05
-1.4023857e-04
-2.7381376e-04
-4.0555900e-04
-5.2878961e-04
-6.3711786e-04
-7.2494977e-04
-7.8788388e-04
-8.2296260e-04
-8.2876268e-04
-8.0544150e-04
-7.5485689e-04
-6.8062933e-04
-5.8797215e-04
-4.8327109e-04
-3.7346967e-04
-2.6534984e-04
-1.6481507e-04
-7.6282374e-05
-2.2708286e-06
5.6758314e-05
1.0229262e-04
1.3741266e-04
1.6624659e-04
1.9331671e-04
2.2286691e-04
2.5825057e-04
3.0144140e-04
3.5271157e-04
4.1050686e-04
4.7153324e-04
5.3104914e-04
5.8333270e-04
6.2227006e-04
6.4199721e-04
6.3752397e-04
6.0527266e-04
5.4347405e-04
4.5238331e-04
3.3430388e-04
1.9343119e-04
3.5543497e-05
-1.3242164e-04
-3.0285478e-04
-4.6796632e-04
-6.2022625e-04
-7.5271491e-04
-8.5937387e-04
-9.3517201e-04
-9.7629014e-04
-9.8042059e-04
-9.4706686e-04
-8.7768100e-04
-7.7560764e-04
-6.4585018e-04
-4.9467981e-04
-3.2913053e-04
-1.5644251e-04
1.6475735e-05
1.8350144e-04
3.3961571e-04
4.8104933e-04
6.0524094e-04
7.1062209e-04
7.9627712e-04
8.6155367e-04
9.0571042e-04
9.2767889e-04
9.2599121e-04
8.9889562e-04
8.4464794e-04
7.6193320e-04
6.5034226e-04
5.1081771e-04
3.4599376e-04
1.6037808e-04
-3.9656163e-05
-2.4608535e-04
-4.4965928e-04
-6.4051086e-04
-8.0889822e-04
-9.4600194e-04
-1.0446899e-03
-1.1001634e-03
-1.1104038e-03
-1.0763550e-03
-1.0018009e-03
-8.9294910e-04
-7.5778933e-04
-6.0540762e-04
-4.4531042e-04
-2.8660370e-04
-1.3711063e-04
-2.6992421e-06
1.1305033e-04
2.0882388e-04
2.8524278e-04
3.4431408e-04
3.8877020e-04
4.2141192e-04
4.4456194e-04
4.5971481e-04
4.6742629e-04
4.6742881e-04
4.5891328e-04
4.4089851e-04
4.1261501e-04
3.7384345e-04
3.2515910e-04
2.6804611e-04
2.0486851e-04
1.3871435e-04
7.3153680e-05
1.1956266e-05
-4.1193990e-05
-8.2961716e-05
-1.1057954e-04
-1.2201151e-04
-1.1606196e-04
-9.2446859e-05
-5.1849167e-05
4.0306829e-06
7.2436513e-05
1.4955501e-04
2.3058658e-04
3.0992717e-04
3.8149286e-04
4.3919530e-04
4.7753114e-04
4.9213380e-04
4.8014929e-04
4.4048752e-04
3.7397695e-04
2.8334960e-04
1.7303100e-04
4.8764540e-05
-8.2871052e-05
-2.1497286e-04
-3.4077767e-04
-4.5403036e-04
-5.4924442e-04
-6.2186761e-04
-6.6837451e-04
-6.8631186e-04
-6.7432705e-04
-6.3220814e-04
-5.6094709e-04
-4.6281336e-04
-3.4140668e-04
-2.0165518e-04
-4.9731622e-05
1.0713298e-04
2.6095517e-04
4.0343013e-04
5.2647027e-04
6.2280227e-04
6.8655090e-04
7.1373412e-04
7.0260659e-04
6.5380953e-04
5.7031058e-04
4.5714623e-04
3.2100716e-04
1.6972344e-04
1.1707586e-05
-1.4459828e-04
-2.9124027e-04
-4.2121716e-04
-5.2887673e-04
-6.1027566e-04
-6.6344014e-04
-6.8834113e-04
-6.8661251e-04
-6.6118560e-04
-6.1592013e-04
-5.5526119e-04
-4.8393487e-04
-4.0668134e-04
-3.2801661e-04
-2.5201695e-04
-1.8213088e-04
-1.2103326e-04
-7.0537896e-05
-3.1576476e-05
-4.2410996e-06
1.2120471e-05
1.8771269e-05
1.7429017e-05
1.0102872e-05
-1.0632956e-06
-1.3930009e-05
-2.6475381e-05
-3.6877148e-05
-4.3562380e-05
-4.5229321e-05
-4.0851729e-05
-2.9678994e-05
-1.1242301e-05
1.4631075e-05
4.7802514e-05
8.7818564e-05
1.3393067e-04
1.8514180e-04
2.4027329e-04
2.9803787e-04
3.5710310e-04
4.1613492e-04
4.7382068e-04
5.2887641e-04
5.8004850e-04
6.2607547e-04
6.6555988e-04
6.9681975e-04
7.1783476e-04
7.2632195e-04
7.1992430e-04
6.9647730e-04
6.5430816e-04
5.9252070e-04
5.1122724e-04
4.1169917e-04
2.9641715e-04
1.6901048e-04
3.4085696e-05
-1.0304024e-04
-2.3667301e-04
-3.6110441e-04
-4.7097166e-04
-5.6158697e-04
-6.2922251e-04
-6.7134532e-04
-6.8680004e-04
-6.7593255e-04
-6.4063720e-04
-5.8430172e-04
-5.1162568e-04
-4.2830434e-04
-3.4059416e-04
-2.5479799e-04
-1.7671908e-04
-1.1113629e-04
-6.1353228e-05
-2.8873696e-05
-1.3248114e-05
-1.2119172e-05
-2.1472647e-05
-3.6077192e-05
-5.0075504e-05
-5.7662322e-05
-5.3695844e-05
-3.4148616e-05
3.5003919e-06
5.9908561e-05
1.3365123e-04
2.2120209e-04
3.1712992e-04
4.1450480e-04
5.0548085e-04
5.8199673e-04
6.3651701e-04
6.6273276e-04
6.5614811e-04
6.1449597e-04
5.3794883e-04
4.2911826e-04
2.9286677e-04
1.3597489e-04
-3.3289663e-05
-2.0566637e-04
-3.7144199e-04
-5.2102840e-04
-6.4556872e-04
-7.3755110e-04
-7.9139463e-04
-8.0395562e-04
-7.7488887e-04
-7.0679542e-04
-6.0510444e-04
-4.7767127e-04
-3.3411533e-04
-1.8495879e-04
-4.0654116e-05
8.9391895e-05
1.9767932e-04
2.7924847e-04
3.3200016e-04
3.5666629e-04
3.5644927e-04
3.3640329e-04
3.0274036e-04
2.6219085e-04
2.2133953e-04
1.8593239e-04
1.6028645e-04
1.4689381e-04
1.4626072e-04
1.5699110e-04
1.7609672e-04
1.9948970e-04
2.2258948e-04
2.4096049e-04
2.5089518e-04
2.4986775e-04
2.3680292e-04
2.1212910e-04
1.7761600e-04
1.3603015e-04
9.0668761e-05
4.4844691e-05
1.3923349e-06
-3.7746098e-05
-7.1803029e-05
-1.0129367e-04
-1.2792223e-04
-1.5428719e-04
-1.8342200e-04
-2.1823756e-04
-2.6094824e-04
-3.1256636e-04
-3.7254409e-04
-4.3862450e-04
-5.0693438e-04
-5.7231230e-04
-6.2882698e-04
-6.7041217e-04
-6.9152775e-04
-6.8775168e-04
-6.5621228e-04
-5.9578544e-04
-5.0706518e-04
-3.9232794e-04
-2.5565722e-04
-1.0303320e-04
5.7842250e-05
2.1801775e-04
3.6800789e-04
4.9865422e-04
6.0201052e-04
6.7213395e-04
7.0568610e-04
7.0227867e-04
6.6452933e-04
5.9782541e-04
5.0982455e-04
4.0974882e-04
3.0754667e-04
2.1300354e-04
1.3488171e-04
8.0167448e-05
5.3494363e-05
5.6793016e-05
8.9187551e-05
1.4713159e-04
2.2475989e-04
3.1442871e-04
4.0741246e-04
4.9470438e-04
5.6784054e-04
6.1964830e-04
6.4482748e-04
6.4030105e-04
6.0530753e-04
5.4123895e-04
4.5125767e-04
3.3975634e-04
2.1174762e-04
7.2271191e-05
-7.4112896e-05
-2.2371190e-04
-3.7396686e-04
-5.2353045e-04
-6.7205259e-04
-8.1970382e-04
-9.6655921e-04
-1.1119518e-03
-1.2538979e-03
-1.3886896e-03
-1.5107326e-03
-1.6126788e-03
-1.6858652e-03
-1.7210230e-03
-1.7091750e-03
-1.6426182e-03
-1.5158778e-03
-1.3265278e-03
-1.0757829e-03
-7.6879726e-04
-4.1463568e-04
-2.5924630e-05
3.8178810e-04
7.9092165e-04
1.1829421e-03
1.5395588e-03
1.8439402e-03
2.0818440e-03
2.2425605e-03
2.3195850e-03
2.3109578e-03
2.2192399e-03
2.0511299e-03
1.8167731e-03
1.5288543e-03
1.2015964e-03
8.4978665e-04
4.8793540e-04
1.2963824e-04
-2.1282501e-04
-5.2866279e-04
-8.0857692e-04
-1.0448411e-03
-1.2316554e-03
-1.3655723e-03
-1.4457345e-03
-1.4738911e-03
-1.4542071e-03
-1.3928781e-03
-1.2975794e-03
-1.1767947e-03
-1.0390783e-03
-8.9232078e-04
-7.4309566e-04
-5.9616771e-04
-4.5423688e-04
-3.1796621e-04
-1.8630423e-04
-5.7064070e-05
7.2323292e-05
2.0399671e-04
3.3891882e-04
4.7631162e-04
6.1336146e-04
7.4524268e-04
8.6546328e-04
9.6648966e-04
1.0405678e-03
1.0806332e-03
1.0811953e-03
1.0390889e-03
9.5400121e-04
8.2870503e-04
6.6896446e-04
4.8311775e-04
2.8138477e-04
7.4979974e-05
-1.2486550e-04
-3.0785865e-04
-4.6546719e-04
-5.9152346e-04
-6.8256262e-04
-7.3792044e-04
-7.5954722e-04
-7.5142748e-04
-7.1873012e-04
-6.6694594e-04
-6.0117057e-04
-5.2562074e-04
-4.4341906e-04
-3.5663146e-04
-2.6650375e-04
-1.7382053e-04
-7.9301482e-05
1.6046798e-05
1.1068792e-04
2.0245801e-04
2.8861794e-04
3.6603508e-04
4.3145898e-04
4.8184701e-04
5.1469286e-04
5.2831329e-04
5.2205768e-04
4.9641842e-04
4.5303510e-04
3.9459643e-04
3.2465152e-04
2.4734891e-04
1.6712985e-04
8.8406967e-05
1.5256830e-05
-4.8854137e-05
-1.0129815e-04
-1.4045444e-04
-1.6579613e-04
-1.7787404e-04
-1.7819175e-04
-1.6899123e-04
-1.5299206e-04
-1.3313731e-04
-1.1240027e-04
-9.3662857e-05
-7.9532910e-05
-7.2004640e-05
-7.2126777e-05
-7.9856813e-05
-9.4126159e-05
-1.1308192e-04
-1.3444643e-04
-1.5592252e-04
-1.7557206e-04
-1.9210726e-04
-2.0505478e-04
-2.1477439e-04
-2.2233210e-04
-2.2924419e-04
-2.3712834e-04
-2.4731866e-04
-2.6051378e-04
-2.7652294e-04
-2.9415594e-04
-3.1127766e-04
-3.2502334e-04
-3.3214857e-04
-3.2946571e-04
-3.1430088e-04
-2.8490050e-04
-2.4072757e-04
-1.8261044e-04
-1.1272982e-04
-3.4446580e-05
4.8014382e-05
1.2999369e-04
2.0689082e-04
2.7465819e-04
3.3023229e-04
3.7185079e-04
3.9922058e-04
4.1351868e-04
4.1722528e-04
4.1381515e-04
4.0735998e-04
4.0206160e-04
4.0172357e-04
4.0925076e-04
4.2628315e-04
4.5300449e-04
4.8812877e-04
5.2904403e-04
5.7207241e-04
6.1279879e-04
6.4642813e-04
6.6814617e-04
6.7346688e-04
6.5855258e-04
6.2049388e-04
5.5754178e-04
4.6928904e-04
3.5679563e-04
2.2264530e-04
7.0914175e-05
-9.2964428e-05
-2.6244466e-04
-4.3021768e-04
-5.8865289e-04
-7.3030793e-04
-8.4846952e-04
-9.3767052e-04
-9.9412012e-04
-1.0159904e-03
-1.0035234e-03
-9.5894581e-04
-8.8620360e-04
-7.9055024e-04
-6.7804294e-04
-5.5501567e-04
-4.2759660e-04
-3.0132535e-04
-1.8090417e-04
-7.0094575e-05
2.8251852e-05
1.1218446e-04
1.8080245e-04
2.3437721e-04
2.7427336e-04
3.0271349e-04
3.2245235e-04
3.3641058e-04
3.4732437e-04
3.5745985e-04
3.6842120e-04
3.8105740e-04
3.9545476e-04
4.1099536e-04
4.2646368e-04
4.4018914e-04
4.5021662e-04
4.5449845e-04
4.5109981e-04
4.3840503e-04
4.1530633e-04
3.8135148e-04
3.3682489e-04
2.8274317e-04
2.2076001e-04
1.5299419e-04
8.1812109e-05
9.6056026e-06
-6.1393989e-05
-1.2923393e-04
-1.9227597e-04
-2.4915625e-04
-2.9869385e-04
-3.3978456e-04
-3.7132078e-04
-3.9217327e-04
-4.0125755e-04
-3.9768696e-04
-3.8099177e-04
-3.5136437e-04
-3.0988021e-04
-2.5854225e-04
-2.0007401e-04
-1.3766284e-04
-7.4756820e-05
-1.4839196e-05
3.8834537e-05
8.3504381e-05
1.1714009e-04
1.3860631e-04
1.4773249e-04
1.4527608e-04
1.3278594e-04
1.1238830e-04
8.6528167e-05
5.7701022e-05
2.8206959e-05
-4.5905063e-08
-2.5667201e-05
-4.7825312e-05
-6.6201792e-05
-8.0873217e-05
-9.2148889e-05
-1.0040070e-04
-1.0592184e-04
-1.0884363e-04
-1.0912569e-04
-1.0661433e-04
-1.0114508e-04
-9.2654370e-05
-8.1266778e-05
-6.7335579e-05
-5.1428546e-05
-3.4264193e-05
-1.6614995e-05
7.9791389e-07
1.7392128e-05
3.2773696e-05
4.6743736e-05
5.9272876e-05
7.0467147e-05
8.0581581e-05
9.0058817e-05
9.9463358e-05
1.0931463e-04
1.1992864e-04
1.3132214e-04
1.4319531e-04
1.5499293e-04
1.6602809e-04
1.7563741e-04
1.8332534e-04
1.8885555e-04
1.9226071e-04
1.9376681e-04
1.9365421e-04
1.9209412e-04
1.8900268e-04
1.8394788e-04
1.7613245e-04
1.6446204e-04
1.4769198e-04
1.2462776e-04
9.4341632e-05
5.6366529e-05
1.0838093e-05
-4.1433432e-05
-9.8971447e-05
-1.5972240e-04
-2.2121396e-04
-2.8075568e-04
-3.3564962e-04
-3.8338403e-04
-4.2179552e-04
-4.4919509e-04
-4.6445432e-04
-4.6704431e-04
-4.5701803e-04
-4.3493139e-04
-4.0170650e-04
-3.5844609e-04
-3.0626226e-04
-2.4625656e-04
-1.7967852e-04
-1.0812696e-04
-3.3689311e-05
4.1017263e-05
1.1292334e-04
1.7870074e-04
2.3504735e-04
2.7902452e-04
3.0840073e-04
3.2195018e-04
3.1965350e-04
3.0275594e-04
2.7366308e-04
2.3568415e-04
1.9265786e-04
1.4850752e-04
1.0677806e-04
7.0213402e-05
4.0436488e-05
1.7787933e-05
1.3578401e-06
-1.0786186e-05
-2.1204528e-05
-3.2581404e-05
-4.7187888e-05
-6.6399876e-05
-9.0356298e-05
-1.1782338e-04
-1.4629654e-04
-1.7233164e-04
-1.9206107e-04
-2.0182228e-04
-1.9880435e-04
-1.8160432e-04
-1.5058738e-04
-1.0797185e-04
-5.7610309e-05
-4.4992465e-06
4.5835898e-05
8.7935074e-05
1.1698880e-04
1.2939333e-04
1.2316293e-04
9.8135994e-05
5.5968866e-05
-5.8239946e-08
-6.5379598e-05
-1.3457508e-04
-2.0184403e-04
-2.6147891e-04
-3.0830427e-04
-3.3805533e-04
-3.4767817e-04
-3.3553910e-04
-3.0153255e-04
-2.4707852e-04
-1.7500455e-04
-8.9314821e-05
5.1408834e-06
1.0307502e-04
1.9921142e-04
2.8873135e-04
3.6766921e-04
4.3321693e-04
4.8390810e-04
5.1966459e-04
5.4169477e-04
5.5223737e-04
5.5415672e-04
5.5041959e-04
5.4351502e-04
5.3490446e-04
5.2459880e-04
5.1094839e-04
4.9070471e-04
4.5936890e-04
4.1178857e-04
3.4290781e-04
2.4850008e-04
1.2585368e-04
-2.5470734e-05
-2.0295649e-04
-4.0080165e-04
-6.1004932e-04
-8.1916508e-04
-1.0149836e-03
-1.1838995e-03
-1.3131532e-03
-1.3920578e-03
-1.4130286e-03
-1.3723032e-03
-1.2702836e-03
-1.1114833e-03
-9.0410348e-04
-6.5930606e-04
-3.9026717e-04
-1.1111469e-04
1.6414384e-04
4.2260102e-04
6.5325534e-04
8.4759119e-04
9.9991131e-04
1.1074241e-03
1.1701051e-03
1.1903679e-03
1.1725907e-03
1.1225548e-03
1.0468462e-03
9.5226756e-04
8.4529726e-04
7.3163160e-04
6.1583995e-04
5.0115420e-04
3.8940274e-04
2.8108754e-04
1.7559170e-04
7.1489099e-05
-3.3097874e-05
-1.4017761e-04
-2.5148452e-04
-3.6778814e-04
-4.8813598e-04
-6.0939554e-04
-7.2623701e-04
-8.3156880e-04
-9.1735482e-04
-9.7567410e-04
-9.9984728e-04
-9.8545505e-04
-9.3110174e-04
-8.3881986e-04
-7.1406215e-04
-5.6528249e-04
-4.0316279e-04
-2.3958822e-04
-8.6497959e-05
4.5259949e-05
1.4695413e-04
2.1277834e-04
2.4036888e-04
2.3098818e-04
1.8936915e-04
1.2324884e-04
4.2643666e-05
-4.1070993e-05
-1.1620573e-04
-1.7184414e-04
-1.9887632e-04
-1.9088022e-04
-1.4476277e-04
-6.1093166e-05
5.5915836e-05
1.9879209e-04
3.5752197e-04
5.2051770e-04
6.7571085e-04
8.1163933e-04
9.1840350e-04
9.8838208e-04
1.0167372e-03
1.0017968e-03
9.4520460e-04
8.5170322e-04
7.2857122e-04
5.8480424e-04
4.3016028e-04
2.7419841e-04
1.2543441e-04
-9.2902407e-06
-1.2517455e-04
-2.1955827e-04
-2.9179169e-04
-3.4292714e-04
-3.7529072e-04
-3.9200032e-04
-3.9650028e-04
-3.9217185e-04
-3.8205077e-04
-3.6865114e-04
-3.5387527e-04
-3.3898771e-04
-3.2463774e-04
-3.1091944e-04
-2.9746231e-04
-2.8355021e-04
-2.6827003e-04
-2.5068814e-04
-2.3004174e-04
-2.0591892e-04
-1.7839377e-04
-1.4808420e-04
-1.1611022e-04
-8.3946465e-05
-5.3183083e-05
-2.5232851e-05
-1.0417776e-06
1.9134495e-05
3.5859863e-05
5.0555532e-05
6.5387117e-05
8.2935205e-05
1.0571604e-04
1.3567148e-04
1.7371190e-04
2.1937933e-04
2.7068203e-04
3.2412825e-04
3.7496186e-04
4.1758104e-04
4.4610107e-04
4.5500302e-04
4.3979201e-04
3.9758173e-04
3.2753106e-04
2.3108033e-04
1.1196197e-04
-2.4014303e-05
-1.6937769e-04
-3.1556981e-04
-4.5361635e-04
-5.7483322e-04
-6.7150627e-04
-7.3749074e-04
-7.6868484e-04
-7.6334272e-04
-7.2220685e-04
-6.4845336e-04
-5.4745477e-04
-4.2637161e-04
-2.9359411e-04
-1.5806961e-04
-2.8569976e-05
8.7033265e-05
1.8241356e-04
2.5328596e-04
2.9769907e-04
3.1608382e-04
3.1105449e-04
2.8705659e-04
2.4998255e-04
2.0672027e-04
1.6456204e-04
1.3052334e-04
1.1066055e-04
1.0946234e-04
1.2938157e-04
1.7055603e-04
2.3074056e-04
3.0544982e-04
3.8829574e-04
4.7149293e-04
5.4649393e-04
6.0470374e-04
6.3821625e-04
6.4051397e-04
6.0707477e-04
5.3583222e-04
4.2744411e-04
2.8533734e-04
1.1551815e-04
-7.3840062e-05
-2.7299398e-04
-4.7135370e-04
-6.5825723e-04
-8.2371617e-04
-9.5905852e-04
-1.0574137e-03
-1.1140096e-03
-1.1262767e-03
-1.0937749e-03
-1.0179751e-03
-9.0194789e-04
-7.5002341e-04
-5.6749047e-04
-3.6038612e-04
-1.3539149e-04
1.0019277e-04
3.3844853e-04
5.7099694e-04
7.8940961e-04
9.8566792e-04
1.1525431e-03
1.2839482e-03
1.3752523e-03
1.4235124e-03
1.4275898e-03
1.3881401e-03
1.3074808e-03
1.1893601e-03
1.0386654e-03
8.6111992e-04
6.6301087e-04
4.5097177e-04
2.3181757e-04
1.2412703e-05
-2.0045547e-04
-4.0022602e-04
-5.8076094e-04
-7.3659949e-04
-8.6325720e-04
-9.5753175e-04
-1.0177657e-03
-1.0440209e-03
-1.0381339e-03
-1.0036347e-03
-9.4551941e-04
-8.6987961e-04
-7.8340901e-04
-6.9283181e-04
-6.0431247e-04
-5.2290994e-04
-4.5213373e-04
-3.9365150e-04
-3.4718698e-04
-3.1062816e-04
-2.8033844e-04
-2.5163297e-04
-2.1933442e-04
-1.7829111e-04
-1.2389776e-04
-5.2737795e-05
3.6765561e-05
1.4389246e-04
2.6546013e-04
3.9597899e-04
5.2811637e-04
6.5341427e-04
7.6317464e-04
8.4940088e-04
9.0567292e-04
9.2784121e-04
9.1445176e-04
8.6685370e-04
7.8898417e-04
6.8686707e-04
5.6790049e-04
4.4003765e-04
3.1097852e-04
1.8747636e-04
7.4830323e-05
-2.3402294e-05
-1.0547039e-04
-1.7128925e-04
-2.2213836e-04
-2.6025990e-04
-2.8842950e-04
-3.0955890e-04
-3.2636519e-04
-3.4111999e-04
-3.5548225e-04
-3.7041422e-04
-3.8617432e-04
-4.0237326e-04
-4.1807811e-04
-4.3195290e-04
-4.4242610e-04
-4.4787048e-04
-4.4676839e-04
-4.3783395e-04
-4.2016414e-04
-3.9350534e-04
-3.5852010e-04
-3.1688643e-04
-2.7117299e-04
-2.2450170e-04
-1.8005838e-04
-1.4054402e-04
-1.0766855e-04
-8.1778086e-05
-6.1684668e-05
-4.4739590e-05
-2.7154121e-05
-4.5295933e-06
2.7478406e-05
7.2458005e-05
1.3260044e-04
2.0821031e-04
2.9743747e-04
3.9627392e-04
4.9882283e-04
5.9780888e-04
6.8526665e-04
7.5332251e-04
7.9497528e-04
8.0478249e-04
7.7937264e-04
7.1773047e-04
6.2123757e-04
4.9348688e-04
3.3991755e-04
1.6733397e-04
-1.6620135e-05
-2.0396543e-04
-3.8681530e-04
-5.5769712e-04
-7.0976028e-04
-8.3688589e-04
-9.3374020e-04
-9.9589975e-04
-1.0201542e-03
-1.0048788e-03
-9.5031166e-04
-8.5867360e-04
-7.3411020e-04
-5.8245853e-04
-4.1086562e-04
-2.2730487e-04
-4.0045323e-05
1.4287106e-04
3.1409481e-04
4.6733736e-04
5.9761720e-04
7.0137640e-04
7.7647946e-04
8.2211989e-04
8.3866663e-04
8.2748184e-04
7.9073616e-04
7.3123901e-04
6.5229172e-04
5.5756211e-04
4.5097365e-04
3.3660224e-04
2.1857664e-04
1.0098123e-04
-1.2241268e-05
-1.1739153e-04
-2.1112404e-04
-2.9056817e-04
-3.5346054e-04
-3.9828620e-04
-4.2441713e-04
-4.3222201e-04
-4.2311122e-04
-3.9948458e-04
-3.6456676e-04
-3.2213720e-04
-2.7618809e-04
-2.3061474e-04
-1.8901535e-04
-1.5452406e-04
-1.2961899e-04
-1.1594719e-04
-1.1420266e-04
-1.2407107e-04
-1.4424884e-04
-1.7253768e-04
-2.0600614e-04
-2.4119994e-04
-2.7437813e-04
-3.0175580e-04
-3.1974390e-04
-3.2518393e-04
-3.1557379e-04
-2.8927215e-04
-2.4566227e-04
-1.8525368e-04
-1.0970240e-04
-2.1733823e-05
7.5038586e-05
1.7638885e-04
2.7781628e-04
3.7489825e-04
4.6361024e-04
5.4057923e-04
6.0325047e-04
6.4995762e-04
6.7989198e-04
6.9297758e-04
6.8967437e-04
6.7074619e-04
6.3703635e-04
5.8929365e-04
5.2808794e-04
4.5384698e-04
3.6702996e-04
2.6842427e-04
1.5951576e-04
4.2750280e-05
-7.8498749e-05
-2.0016414e-04
-3.1776172e-04
-4.2669420e-04
-5.2258542e-04
-6.0161694e-04
-6.6082457e-04
-6.9831220e-04
-7.1335600e-04
-7.0639305e-04
-6.7890412e-04
-6.3320987e-04
-5.7220711e-04
-4.9908166e-04
-4.1704049e-04
-3.2910131e-04
-2.3796462e-04
-1.4597603e-04
-5.5169388e-05
3.2635511e-05
1.1572247e-04
1.9240368e-04
2.6101888e-04
3.2002401e-04
3.6815545e-04
4.0463297e-04
4.2935208e-04
4.4301375e-04
4.4714407e-04
4.4397060e-04
4.3614628e-04
4.2634528e-04
4.1678851e-04
4.0878155e-04
4.0235530e-04
3.9608685e-04
3.8714673e-04
3.7157693e-04
3.4475737e-04
3.0193455e-04
2.3880308e-04
1.5227418e-04
4.1292463e-05
-9.2588434e-05
-2.4500513e-04
-4.0898899e-04
-5.7554233e-04
-7.3449668e-04
-8.7552597e-04
-9.8917299e-04
-1.0677559e-03
-1.1060467e-03
-1.1016552e-03
-1.0550961e-03
-9.6956653e-04
-8.5049022e-04
-7.0490329e-04
-5.4075797e-04
-3.6621948e-04
-1.8902487e-04
-1.5962421e-05
1.4748812e-04
2.9733862e-04
4.3110616e-04
5.4768208e-04
6.4709243e-04
7.3019143e-04
7.9832971e-04
8.5303229e-04
8.9571038e-04
9.2742137e-04
9.4868755e-04
9.5938435e-04
9.5870988e-04
9.4524512e-04
9.1710782e-04
8.7219215e-04
8.0846774e-04
7.2428356e-04
6.1860618e-04
4.9129805e-04
3.4359130e-04
1.7855640e-04
1.2663227e-06
-1.8142488e-04
-3.6144773e-04
-5.3032397e-04
-6.8007223e-04
-8.0406233e-04
-8.9768990e-04
-9.5878592e-04
-9.8772367e-04
-9.8722828e-04
-9.6192910e-04
-9.1772393e-04
-8.6104358e-04
-7.9811170e-04
-7.3428727e-04
-6.7356026e-04
-6.1824722e-04
-5.6890641e-04
-5.2446201e-04
-4.8249964e-04
-4.3967690e-04
-3.9218779e-04
-3.3623024e-04
-2.6844160e-04
-1.8627866e-04
-8.8324750e-05
2.5490608e-05
1.5376975e-04
2.9363126e-04
4.4081100e-04
5.8988878e-04
7.3463727e-04
8.6846730e-04
9.8492193e-04
1.0781603e-03
1.1433762e-03
1.1771335e-03
1.1776708e-03
1.1451843e-03
1.0819552e-03
9.9220944e-04
8.8170743e-04
7.5710233e-04
6.2514943e-04
4.9188129e-04
3.6188456e-04
2.3780640e-04
1.2018116e-04
7.6102554e-06
-1.0273124e-04
-2.1433926e-04
-3.3049320e-04
-4.5337651e-04
-5.8334644e-04
-7.1846684e-04
-8.5437117e-04
-9.8447322e-04
-1.1005033e-03
-1.1933143e-03
-1.2538702e-03
-1.2742977e-03
-1.2488659e-03
-1.1747663e-03
-1.0525970e-03
-8.8649767e-04
-6.8392389e-04
-4.5507963e-04
-2.1206097e-04
3.2202907e-05
2.6509243e-04
4.7538991e-04
6.5419297e-04
7.9554262e-04
8.9669066e-04
9.5797340e-04
9.8232303e-04
9.7459936e-04
9.4095975e-04
8.8826866e-04
8.2347990e-04
7.5303323e-04
6.8233057e-04
6.1533753e-04
5.5434060e-04
4.9987334e-04
4.5081158e-04
4.0462699e-04
3.5777852e-04
3.0620903e-04
2.4590308e-04
1.7345300e-04
8.6578540e-05
-1.5454681e-05
-1.3157059e-04
-2.5881447e-04
-3.9249968e-04
-5.2655358e-04
-6.5401768e-04
-7.6764283e-04
-8.6051944e-04
-9.2668752e-04
-9.6167524e-04
-9.6292029e-04
-9.3003613e-04
-8.6489531e-04
-7.7151146e-04
-6.5571205e-04
-5.2461239e-04
-3.8593023e-04
-2.4721607e-04
-1.1510613e-04
5.2817457e-06
1.1070243e-04
1.9982440e-04
2.7295510e-04
3.3152637e-04
3.7757769e-04
4.1345004e-04
4.4159372e-04
4.6435501e-04
4.8376382e-04
5.0135382e-04
5.1802096e-04
5.3391941e-04
5.4839391e-04
5.5995606e-04
5.6632217e-04
5.6453191e-04
5.5115863e-04
5.2260914e-04
4.7549957e-04
4.0708522e-04
3.1571140e-04
2.0123940e-04
6.5389474e-05
-8.8060704e-05
-2.5327279e-04
-4.2256742e-04
-5.8686536e-04
-7.3632064e-04
-8.6109218e-04
-9.5218170e-04
-1.0022556e-03
-1.0063659e-03
-9.6248880e-04
-8.7181168e-04
-7.3871929e-04
-5.7046639e-04
-3.7657126e-04
-1.6800962e-04
4.3683457e-05
2.4729238e-04
4.3268558e-04
5.9139570e-04
7.1697577e-04
8.0512697e-04
8.5375840e-04
8.6310654e-04
8.3571603e-04
7.7614936e-04
6.9052691e-04
5.8598782e-04
4.7012577e-04
3.5044106e-04
2.3383537e-04
1.2616833e-04
3.1900475e-05
-4.6145420e-05
-1.0687340e-04
-1.5083833e-04
-1.8001265e-04
-1.9742533e-04
-2.0671501e-04
-2.1164570e-04
-2.1563751e-04
-2.2136617e-04
-2.3047957e-04
-2.4346430e-04
-2.5967529e-04
-2.7752171e-04
-2.9478534e-04
-3.0902897e-04
-3.1803336e-04
-3.2018790e-04
-3.1476478e-04
-3.0203064e-04
-2.8318157e-04
-2.6011592e-04
-2.3508144e-04
-2.1025264e-04
-1.8731112e-04
-1.6710900e-04
-1.4948795e-04
-1.3330172e-04
-1.1665359e-04
-9.7319070e-05
-7.3150183e-05
-4.2235783e-05
-2.9389254e-06
4.5997482e-05
1.0527988e-04
1.7486921e-04
2.5379468e-04
3.4001854e-04
4.3039217e-04
5.2072847e-04
6.0599580e-04
6.8062343e-04
7.3890076e-04
7.7544516e-04
7.8570184e-04
7.6642436e-04
7.1607562e-04
6.3509093e-04
5.2595914e-04
3.9309963e-04
2.4254099e-04
8.1437514e-05
-8.2514801e-05
-2.4168838e-04
-3.8908824e-04
-5.1881229e-04
-6.2637090e-04
-7.0885241e-04
-7.6494297e-04
-7.9482430e-04
-7.9997896e-04
-7.8292989e-04
-7.4693445e-04
-6.9564983e-04
-6.3279235e-04
-5.6182301e-04
-4.8570018e-04
-4.0673530e-04
-3.2656739e-04
-2.4623252e-04
-1.6621202e-04
-8.6479845e-05
-6.7579186e-06
7.3074035e-05
1.5264654e-04
2.3094480e-04
3.0634134e-04
3.7678867e-04
4.4011529e-04
4.9435459e-04
5.3803602e-04
5.7038040e-04
5.9136433e-04
6.0164607e-04
6.0237175e-04
5.9490220e-04
5.8051513e-04
5.6014223e-04
5.3419261e-04
5.0249289e-04
4.6434688e-04
4.1869465e-04
3.6433761e-04
3.0019105e-04
2.2552542e-04
1.4016207e-04
4.4602714e-05
-5.9909405e-05
-1.7138329e-04
-2.8711147e-04
-4.0372847e-04
-5.1729747e-04
-6.2343500e-04
-7.1748621e-04
-7.9475924e-04
-8.5081895e-04
-8.8182738e-04
-8.8490344e-04
-8.5846010e-04
-8.0247883e-04
-7.1862535e-04
-6.1015480e-04
-4.8173330e-04
-3.3923351e-04
-1.8942805e-04
-3.9558630e-05
1.0318103e-04
2.3218882e-04
3.4195704e-04
4.2847180e-04
4.8945846e-04
5.2444282e-04
5.3462445e-04
5.2258796e-04
4.9190068e-04
4.4665589e-04
3.9102172e-04
3.2885110e-04
2.6339948e-04
1.9718067e-04
1.3196561e-04
6.8899032e-05
8.6876294e-06
-4.8190493e-05
-1.0129514e-04
-1.5007852e-04
-1.9380226e-04
-2.3152608e-04
-2.6216530e-04
-2.8460073e-04
-2.9781649e-04
-3.0104063e-04
-2.9386565e-04
-2.7632829e-04
-2.4893175e-04
-2.1260369e-04
-1.6859613e-04
-1.1834311e-04
-6.3292621e-05
-4.7320938e-06
5.6357450e-05
1.1930463e-04
1.8352664e-04
2.4821112e-04
3.1206645e-04
3.7320581e-04
4.2918426e-04
4.7717596e-04
5.1425401e-04
5.3772281e-04
5.4544897e-04
5.3613870e-04
5.0951700e-04
4.6638046e-04
4.0851979e-04
3.3853249e-04
2.5956107e-04
1.7499780e-04
8.8197516e-05
2.2397984e-06
-8.0225212e-05
-1.5703096e-04
-2.2645878e-04
-2.8714474e-04
-3.3796910e-04
-3.7796379e-04
-4.0626399e-04
-4.2212060e-04
-4.2497886e-04
-4.1461200e-04
-3.9128225e-04
-3.5589187e-04
-3.1008717e-04
-2.5628372e-04
-1.9759039e-04
-1.3762457e-04
-8.0232611e-05
-2.9149663e-05
1.2356631e-05
4.1818427e-05
5.7822767e-05
6.0081647e-05
4.9273068e-05
2.6776976e-05
-5.5610034e-06
-4.5588158e-05
-9.0914200e-05
-1.3890787e-04
-1.8665826e-04
-2.3094867e-04
-2.6828755e-04
-2.9502636e-04
-3.0757435e-04
-3.0270056e-04
-2.7789542e-04
-2.3174748e-04
-1.6427999e-04
-7.7189353e-05
2.6065167e-05
1.4035553e-04
2.5917652e-04
3.7512259e-04
4.8050926e-04
5.6807386e-04
6.3167456e-04
6.6690319e-04
6.7153331e-04
6.4573908e-04
5.9204476e-04
5.1500142e-04
4.2062948e-04
3.1570222e-04
2.0696605e-04
1.0039915e-04
6.0622557e-07
-8.9566199e-05
-1.6913677e-04
-2.3880448e-04
-3.0050736e-04
-3.5681103e-04
-4.1033642e-04
-4.6336602e-04
-5.1749894e-04
-5.7330114e-04
-6.3006385e-04
-6.8572775e-04
-7.3697559e-04
-7.7947911e-04
-8.0827648e-04
-8.1824597e-04
-8.0462686e-04
-7.6352774e-04
-6.9236416e-04
-5.9018304e-04
-4.5785150e-04
-2.9810176e-04
-1.1543202e-04
8.4126597e-05
2.9335230e-04
5.0424611e-04
7.0847579e-04
8.9781286e-04
1.0645310e-03
1.2017412e-03
1.3036510e-03
1.3657554e-03
1.3849751e-03
1.3597625e-03
1.2901779e-03
1.1779333e-03
1.0263904e-03
8.4050577e-04
6.2671634e-04
3.9275164e-04
1.4735982e-04
-1.0005682e-04
-3.3988077e-04
-5.6275932e-04
-7.6008796e-04
-9.2447071e-04
-1.0502220e-03
-1.1338792e-03
-1.1744418e-03
-1.1732149e-03
-1.1333971e-03
-1.0595443e-03
-9.5700082e-04
-8.3137161e-04
-6.8809622e-04
-5.3216917e-04
-3.6802611e-04
-1.9958521e-04
-3.0404895e-05
1.3609514e-04
2.9640026e-04
4.4669759e-04
5.8274255e-04
6.9983429e-04
7.9293102e-04
8.5691622e-04
8.8700201e-04
8.7923590e-04
8.3106264e-04
7.4187871e-04
6.1350440e-04
4.5049391e-04
2.6021407e-04
5.2644418e-05
-1.6012159e-04
-3.6466424e-04
-5.4726876e-04
-6.9511249e-04
-7.9748169e-04
-8.4687020e-04
-8.3981717e-04
-7.7737025e-04
-6.6510321e-04
-5.1266744e-04
-3.3291585e-04
-1.4071390e-04
4.8315561e-05
2.1901308e-04
3.5800063e-04
4.5494524e-04
5.0343705e-04
5.0135398e-04
4.5072663e-04
3.5718822e-04
2.2914054e-04
7.6783091e-05
-8.8857908e-05
-2.5679147e-04
-4.1674167e-04
-5.5961533e-04
-6.7777328e-04
-7.6515888e-04
-8.1735331e-04
-8.3161545e-04
-8.0693119e-04
-7.4406083e-04
-6.4555015e-04
-5.1566272e-04
-3.6019725e-04
-1.8616929e-04
-1.3610623e-06
1.8622625e-04
3.6895387e-04
5.4007976e-04
6.9416759e-04
8.2731280e-04
9.3715960e-04
1.0227189e-03
1.0840306e-03
1.1217386e-03
1.1366554e-03
1.1293922e-03
1.1001162e-03
1.0484759e-03
9.7370846e-04
8.7490452e-04
7.5130440e-04
6.0259996e-04
4.2942493e-04
2.3396203e-04
2.0394961e-05
-2.0493242e-04
-4.3368975e-04
-6.5605242e-04
-8.6144619e-04
-1.0394406e-03
-1.1806713e-03
-1.2776770e-03
-1.3255504e-03
-1.3223300e-03
-1.2690935e-03
-1.1697570e-03
-1.0306247e-03
-8.5975833e-04
-6.6624647e-04
-4.5945685e-04
-2.4835201e-04
-4.0937262e-05
1.5611246e-04
3.3763011e-04
4.9994968e-04
6.4074820e-04
7.5878407e-04
8.5358889e-04
9.2517130e-04
9.7378060e-04
9.9975594e-04
1.0034626e-03
9.8530008e-04
9.4575878e-04
8.8549897e-04
8.0542646e-04
7.0674559e-04
5.9098023e-04
4.5995972e-04
3.1576212e-04
1.6060854e-04
-3.1144272e-06
-1.7250797e-04
-3.4369976e-04
-5.1158686e-04
-6.6988622e-04
-8.1149300e-04
-9.2909292e-04
-1.0159293e-03
-1.0665985e-03
-1.0777502e-03
-1.0485931e-03
-9.8114147e-04
-8.8016553e-04
-7.5283801e-04
-6.0810494e-04
-4.5585015e-04
-3.0595812e-04
-1.6739465e-04
-4.7416216e-05
4.9005371e-05
1.1948691e-04
1.6424345e-04
1.8581826e-04
1.8858524e-04
1.7810375e-04
1.6041495e-04
1.4136208e-04
1.2600227e-04
1.1816288e-04
1.2017777e-04
1.3281496e-04
1.5538110e-04
1.8597182e-04
2.2183119e-04
2.5977931e-04
2.9665615e-04
3.2971995e-04
3.5694099e-04
3.7714788e-04
3.9001055e-04
3.9591442e-04
3.9579870e-04
3.9095574e-04
3.8278631e-04
3.7254560e-04
3.6111519e-04
3.4882975e-04
3.3537795e-04
3.1979135e-04
3.0053062e-04
2.7566933e-04
2.4316006e-04
2.0115361e-04
1.4833532e-04
8.4242427e-05
9.5259052e-06
-7.3882490e-05
-1.6273485e-04
-2.5258728e-04
-3.3807803e-04
-4.1334581e-04
-4.7255470e-04
-5.1047947e-04
-5.2309228e-04
-5.0808240e-04
-4.6524167e-04
-3.9665896e-04
-3.0668588e-04
-2.0165883e-04
-8.9388575e-05
2.1541633e-05
1.2259690e-04
2.0613090e-04
2.6613418e-04
2.9878823e-04
3.0275116e-04
2.7914079e-04
2.3122523e-04
1.6387396e-04
8.2939670e-05
-5.2175873e-06
-9.4068363e-05
-1.7723942e-04
-2.4885278e-04
-3.0385066e-04
-3.3828469e-04
-3.4955081e-04
-3.3655658e-04
-2.9981010e-04
-2.4141987e-04
-1.6499613e-04
-7.5450033e-05
2.1306878e-05
1.1875384e-04
2.1022627e-04
2.8942627e-04
3.5093334e-04
3.9065887e-04
4.0618782e-04
3.9696212e-04
3.6427996e-04
3.1110600e-04
2.4170944e-04
1.6116890e-04
7.4804957e-05
-1.2381276e-05
-9.6179686e-05
-1.7347973e-04
-2.4236812e-04
-3.0200263e-04
-3.5228911e-04
-3.9342891e-04
-4.2543345e-04
-4.4771367e-04
-4.5883971e-04
-4.5653727e-04
-4.3794361e-04
-4.0009592e-04
-3.4058073e-04
-2.5812041e-04
-1.5289240e-04
-2.6690708e-05
1.1696867e-04
2.7287145e-04
4.3429962e-04
5.9338973e-04
7.4162627e-04
8.7042031e-04
9.7171484e-04
1.0385632e-03
1.0656401e-03
1.0496538e-03
9.8963126e-04
8.8704959e-04
7.4579891e-04
5.7197451e-04
3.7351385e-04
1.5970339e-04
-5.9412241e-05
-2.7367837e-04
-4.7348873e-04
-6.5040535e-04
-7.9769599e-04
-9.1075155e-04
-9.8735027e-04
-1.0277389e-03
-1.0345088e-03
-1.0122618e-03
-9.6708125e-04
-9.0584599e-04
-8.3544297e-04
-7.6195474e-04
-6.8991710e-04
-6.2175535e-04
-5.5749842e-04
-4.9483436e-04
-4.2951733e-04
-3.5607675e-04
-2.6871797e-04
-1.6216638e-04
-3.2355004e-05
1.2285507e-04
3.0298195e-04
5.0451957e-04
7.2092109e-04
9.4295974e-04
1.1594095e-03
1.3579503e-03
1.5261802e-03
1.6526131e-03
1.7275665e-03
1.7438719e-03
1.6973787e-03
1.5872375e-03
1.4159630e-03
1.1892848e-03
9.1580724e-04
6.0651537e-04
2.7416598e-04
-6.7396873e-05
-4.0396638e-04
-7.2170428e-04
-1.0078493e-03
-1.2513780e-03
-1.4435935e-03
-1.5786068e-03
-1.6536609e-03
-1.6692434e-03
-1.6289444e-03
-1.5390518e-03
-1.4079128e-03
-1.2451277e-03
-1.0606630e-03
-8.6398577e-04
-6.6332711e-04
-4.6517328e-04
-2.7405112e-04
-9.2623311e-05
7.7954582e-05
2.3760209e-04
3.8687202e-04
5.2631529e-04
6.5573349e-04
7.7361816e-04
8.7693487e-04
9.6129226e-04
1.0214583e-03
1.0521243e-03
1.0487772e-03
1.0085278e-03
9.3075293e-04
8.1745123e-04
6.7326476e-04
5.0517694e-04
3.2194070e-04
1.3332135e-04
-5.0745470e-05
-2.2097799e-04
-3.6946578e-04
-4.9021689e-04
-5.7949881e-04
-6.3595971e-04
-6.6053255e-04
-6.5614026e-04
-6.2723939e-04
-5.7925870e-04
-5.1800017e-04
-4.4906894e-04
-3.7738848e-04
-3.0684293e-04
-2.4007259e-04
-1.7843101e-04
-1.2209437e-04
-7.0298996e-05
-2.1671943e-05
2.5389928e-05
7.2347675e-05
1.2021767e-04
1.6940808e-04
2.1971173e-04
2.7024135e-04
3.1911963e-04
3.6316340e-04
3.9787277e-04
4.1779619e-04
4.1722162e-04
3.9108199e-04
3.3592558e-04
2.5078917e-04
1.3782338e-04
2.5528544e-06
-1.4629311e-04
-2.9738354e-04
-4.3776659e-04
-5.5412180e-04
-6.3413982e-04
-6.6786410e-04
-6.4882690e-04
-5.7483374e-04
-4.4829774e-04
-2.7608869e-04
-6.8925624e-05
1.5960518e-04
3.9428483e-04
6.1959935e-04
8.2102002e-04
9.8608190e-04
1.1051580e-03
1.1718838e-03
1.1832415e-03
1.1393552e-03
1.0430805e-03
8.9948382e-04
7.1531053e-04
4.9851525e-04
2.5789698e-04
2.8478890e-06
-2.5680049e-04
-5.1086466e-04
-7.4898346e-04
-9.6111207e-04
-1.1383026e-03
-1.2734987e-03
-1.3621533e-03
-1.4025879e-03
-1.3960554e-03
-1.3465046e-03
-1.2600784e-03
-1.1444083e-03
-1.0077881e-03
-8.5832940e-04
-7.0320810e-04
-5.4810039e-04
-3.9687606e-04
-2.5157558e-04
-1.1265631e-04
2.0541597e-05
1.4918777e-04
2.7431419e-04
3.9623687e-04
5.1414131e-04
6.2589295e-04
7.2809528e-04
8.1638483e-04
8.8592223e-04
9.3200883e-04
9.5073207e-04
9.3953214e-04
8.9759584e-04
8.2601865e-04
7.2771964e-04
6.0713315e-04
4.6973521e-04
3.2149374e-04
1.6835323e-04
1.5862036e-05
-1.3098348e-04
-2.6765937e-04
-3.8984307e-04
-4.9320752e-04
-5.7362119e-04
-6.2767310e-04
-6.5316983e-04
-6.4943656e-04
-6.1740219e-04
-5.5947590e-04
-4.7924833e-04
-3.8107498e-04
-2.6961704e-04
-1.4941824e-04
-2.4584250e-05
1.0139107e-04
2.2563607e-04
3.4576254e-04
4.5962278e-04
5.6503048e-04
6.5951956e-04
7.4020376e-04
8.0377803e-04
8.4667747e-04
8.6538462e-04
8.5684822e-04
8.1895343e-04
7.5096818e-04
6.5388971e-04
5.3062622e-04
3.8596869e-04
2.2633394e-04
5.9292535e-05
-1.0706900e-04
-2.6487114e-04
-4.0715335e-04
-5.2848340e-04
-6.2539207e-04
-6.9658643e-04
-7.4291900e-04
-7.6711531e-04
-7.7329348e-04
-7.6635622e-04
-7.5139465e-04
-7.3313780e-04
-7.1537170e-04
-7.0042107e-04
-6.8886295e-04
-6.7952333e-04
-6.6973353e-04
-6.5578398e-04
-6.3349092e-04
-5.9878614e-04
-5.4824923e-04
-4.7952291e-04
-3.9157996e-04
-2.8483943e-04
-1.6115126e-04
-2.3678376e-05
1.2329449e-04
2.7460028e-04
4.2445744e-04
5.6675201e-04
6.9533011e-04
8.0430636e-04
8.8839636e-04
9.4327116e-04
9.6591259e-04
9.5493052e-04
9.1079443e-04
8.3593263e-04
7.3466367e-04
6.1294326e-04
4.7793683e-04
3.3745699e-04
1.9932695e-04
7.0740723e-05
-4.2312132e-05
-1.3549793e-04
-2.0641936e-04
-2.5469865e-04
-2.8186692e-04
-2.9110671e-04
-2.8698299e-04
-2.7509273e-04
-2.6135158e-04
-2.5103613e-04
-2.4795219e-04
-2.5391568e-04
-2.6860703e-04
-2.8978968e-04
-3.1382395e-04
-3.3637275e-04
-3.5318211e-04
-3.6081865e-04
-3.5725250e-04
-3.4219462e-04
-3.1713751e-04
-2.8509963e-04
-2.5012372e-04
-2.1661667e-04
-1.8863972e-04
-1.6926031e-04
-1.6005650e-04
-1.6082892e-04
-1.6953706e-04
-1.8245130e-04
-1.9450072e-04
-1.9978773e-04
-1.9222271e-04
-1.6620905e-04
-1.1729838e-04
-4.2744567e-05
5.8092059e-05
1.8351859e-04
3.2947836e-04
4.8972192e-04
6.5617069e-04
8.1944047e-04
9.6947478e-04
1.0962315e-03
1.1903618e-03
1.2438145e-03
1.2502984e-03
1.2057122e-03
1.1086990e-03
9.6114926e-04
7.6837825e-04
5.3890515e-04
2.8386434e-04
1.6135439e-05
-2.5068032e-04
-5.0329748e-04
-7.2967387e-04
-9.1973963e-04
-1.0658786e-03
-1.1631526e-03
-1.2092975e-03
-1.2045535e-03
-1.1514039e-03
-1.0542809e-03
-9.1927342e-04
-7.5383877e-04
-5.6651186e-04
-3.6659646e-04
-1.6381935e-04
3.2073664e-05
2.1179098e-04
3.6702624e-04
4.9100751e-04
5.7900349e-04
6.2871857e-04
6.4051479e-04
6.1741442e-04
5.6485783e-04
4.9021867e-04
4.0211032e-04
3.0954881e-04
2.2106094e-04
1.4383754e-04
8.3029331e-05
4.1266363e-05
1.8461399e-05
1.1903348e-05
1.6694182e-05
2.6605262e-05
3.5167684e-05
3.6690395e-05
2.7032490e-05
4.0503706e-06
-3.2298646e-05
-8.0160607e-05
-1.3622280e-04
-1.9629129e-04
-2.5591198e-04
-3.1094889e-04
-3.5804908e-04
-3.9494281e-04
-4.2055141e-04
-4.3490367e-04
-4.3889250e-04
-4.3392919e-04
-4.2156755e-04
-4.0317088e-04
-3.7967959e-04
-3.5151123e-04
-3.1859149e-04
-2.8048755e-04
-2.3660040e-04
-1.8637320e-04
-1.2948298e-04
-6.5994723e-05
3.5346494e-06
7.8007737e-05
1.5579324e-04
2.3478186e-04
3.1248259e-04
3.8614931e-04
4.5292782e-04
5.1001197e-04
5.5479614e-04
5.8501091e-04
5.9882878e-04
5.9493204e-04
5.7262577e-04
5.3208726e-04
4.7464930e-04
4.0296393e-04
3.2098337e-04
2.3373664e-04
1.4691285e-04
6.6294152e-05
-2.8919640e-06
-5.6613768e-05
-9.2577693e-05
-1.1058799e-04
-1.1265911e-04
-1.0284570e-04
-8.6793747e-05
-7.1060162e-05
-6.2286857e-05
-6.6336992e-05
-8.7502612e-05
-1.2788121e-04
-1.8700194e-04
-2.6175939e-04
-3.4667870e-04
-4.3448969e-04
-5.1694040e-04
-5.8574361e-04
-6.3353071e-04
-6.5468612e-04
-6.4595163e-04
-6.0672336e-04
-5.3901128e-04
-4.4708509e-04
-3.3687712e-04
-2.1524316e-04
-8.9191353e-05
3.4816337e-05
1.5140377e-04
2.5660544e-04
3.4796071e-04
4.2444492e-04
4.8629881e-04
5.3471707e-04
5.7142531e-04
5.9826144e-04
6.1683260e-04
6.2827650e-04
6.3313312e-04
6.3131635e-04
6.2217004e-04
6.0459478e-04
5.7723229e-04
5.3868910e-04
4.8777418e-04
4.2372569e-04
3.4640865e-04
2.5647277e-04
1.5545880e-04
4.5838291e-05
-6.9030440e-05
-1.8504030e-04
-2.9756789e-04
-4.0179077e-04
-4.9307110e-04
-5.6737511e-04
-6.2168308e-04
-6.5433240e-04
-6.6523502e-04
-6.5592317e-04
-6.2939849e-04
-5.8978519e-04
-5.4181808e-04
-4.9022959e-04
-4.3912852e-04
-3.9147430e-04
-3.4873571e-04
-3.1078817e-04
-2.7606341e-04
-2.4193011e-04
-2.0524909e-04
-1.6292142e-04
-1.1225568e-04
-5.1231504e-05
2.1240971e-05
1.0510320e-04
1.9901171e-04
3.0030262e-04
4.0507325e-04
5.0838573e-04
6.0458080e-04
6.8767716e-04
7.5182566e-04
7.9178515e-04
8.0338272e-04
7.8391642e-04
7.3246087e-04
6.5004661e-04
5.3969798e-04
4.0632162e-04
2.5644277e-04
9.7794831e-05
-6.1215561e-05
-2.1212756e-04
-3.4707557e-04
-4.5940964e-04
-5.4422719e-04
-5.9876094e-04
-6.2257811e-04
-6.1756245e-04
-5.8767203e-04
-5.3848969e-04
-4.7660790e-04
-4.0891209e-04
-3.4184279e-04
-2.8072429e-04
-2.2924419e-04
-1.8915266e-04
-1.6022466e-04
-1.4049264e-04
-1.2672094e-04
-1.1492190e-04
-1.0070936e-04
-7.9622168e-05
-4.7560753e-05
-1.2620266e-06
6.1274585e-05
1.4046264e-04
2.3494222e-04
3.4155040e-04
4.5545213e-04
5.7042325e-04
6.7927040e-04
7.7436419e-04
8.4825223e-04
8.9430552e-04
9.0734080e-04
8.8415501e-04
8.2390959e-04
7.2831300e-04
6.0157012e-04
4.5009212e-04
2.8198813e-04
1.0638347e-04
-6.7371435e-05
-2.3052554e-04
-3.7570059e-04
-4.9752681e-04
-5.9306057e-04
-6.6192310e-04
-7.0613155e-04
-7.2963321e-04
-7.3759580e-04
-7.3554723e-04
-7.2848878e-04
-7.2011637e-04
-7.1226908e-04
-7.0468658e-04
-6.9510720e-04
-6.7968744e-04
-6.5367776e-04
-6.1216502e-04
-5.5071857e-04
-4.6600486e-04
-3.5638687e-04
-2.2238076e-04
-6.6877246e-05
1.0491605e-04
2.8581625e-04
4.6725351e-04
6.4002965e-04
7.9514611e-04
9.2459550e-04
1.0220242e-03
1.0831967e-03
1.1062186e-03
1.0915063e-03
1.0415235e-03
9.6034253e-04
8.5310494e-04
7.2546681e-04
5.8309729e-04
4.3128411e-04
2.7467880e-04
1.1719190e-04
-3.7976928e-05
-1.8821136e-04
-3.3130021e-04
-4.6524880e-04
-5.8810768e-04
-6.9783960e-04
-7.9224632e-04
-8.6897583e-04
-9.2561943e-04
-9.5989017e-04
-9.6985864e-04
-9.5421546e-04
-9.1252798e-04
-8.4545588e-04
-7.5488604e-04
-6.4395198e-04
-5.1687936e-04
-3.7868861e-04
-2.3491961e-04
-9.1407805e-05
4.5972106e-05
1.7160993e-04
2.8048463e-04
3.6847914e-04
4.3266071e-04
4.7151083e-04
4.8508972e-04
4.7511559e-04
4.4493520e-04
3.9936714e-04
3.4441170e-04
2.8683607e-04
2.3365627e-04
1.9155007e-04
1.6624807e-04
1.6196054e-04
1.8090154e-04
2.2296623e-04
2.8560644e-04
3.6393387e-04
4.5106218e-04
5.3867413e-04
6.1776774e-04
6.7950332e-04
7.1605181e-04
7.2134237e-04
6.9162201e-04
6.2576903e-04
5.2533762e-04
3.9434897e-04
2.3887596e-04
6.6489065e-05
-1.1436347e-04
-2.9497272e-04
-4.6692376e-04
-6.2254507e-04
-7.5527892e-04
-8.6008849e-04
-9.3390659e-04
-9.7592412e-04
-9.8755304e-04
-9.7203638e-04
-9.3375480e-04
-8.7734478e-04
-8.0679050e-04
-7.2466625e-04
-6.3168518e-04
-5.2665744e-04
-4.0688724e-04
-2.6895480e-04
-1.0975286e-04
7.2403374e-05
2.7678705e-04
4.9956188e-04
7.3349406e-04
9.6812703e-04
1.1904057e-03
1.3856810e-03
1.5389816e-03
1.6364090e-03
1.6665033e-03
1.6214313e-03
1.4978686e-03
1.2974758e-03
1.0269128e-03
6.9740137e-04
3.2391098e-04
-7.5907480e-05
-4.8290275e-04
-8.7760066e-04
-1.2412940e-03
-1.5569954e-03
-1.8102296e-03
-1.9896608e-03
-2.0875580e-03
-2.1001098e-03
-2.0276945e-03
-1.8752073e-03
-1.6522669e-03
-1.3730315e-03
-1.0555196e-03
-7.2044928e-04
-3.8966537e-04
-8.4292758e-05
1.7718996e-04
3.8072889e-04
5.1810120e-04
5.8775929e-04
5.9497883e-04
5.5124969e-04
4.7293969e-04
3.7936329e-04
2.9048026e-04
2.2450992e-04
1.9576169e-04
2.1295788e-04
2.7826444e-04
3.8715426e-04
5.2911134e-04
6.8906443e-04
8.4934114e-04
9.9187459e-04
1.1003739e-03
1.1621830e-03
1.1695994e-03
1.1205063e-03
1.0182771e-03
8.7101408e-04
6.9027109e-04
4.8946707e-04
2.8222768e-04
8.0897284e-05
-1.0456867e-04
-2.6719050e-04
-4.0298814e-04
-5.1050857e-04
-5.9021590e-04
-6.4414287e-04
-6.7568050e-04
-6.8924297e-04
-6.8981505e-04
-6.8245421e-04
-6.7179302e-04
-6.6157933e-04
-6.5429066e-04
-6.5086129e-04
-6.5055740e-04
-6.5102402e-04
-6.4851320e-04
-6.3828684e-04
-6.1516935e-04
-5.7420147e-04
-5.1132143e-04
-4.2398535e-04
-3.1164381e-04
-1.7601190e-04
-2.1094838e-05
1.4704289e-04
3.2074916e-04
4.9144892e-04
6.5042554e-04
7.8962453e-04
9.0238442e-04
9.8401005e-04
1.0321199e-03
1.0467209e-03
1.0299995e-03
9.8585994e-04
9.1928337e-04
8.3561048e-04
7.3986007e-04
6.3619516e-04
5.2762733e-04
4.1601161e-04
3.0232889e-04
1.8719222e-04
7.1332793e-05
-4.4224403e-05
-1.5823601e-04
-2.6933996e-04
-3.7610426e-04
-4.7703048e-04
-5.7052362e-04
-6.5484383e-04
-7.2805893e-04
-7.8802177e-04
-8.3239914e-04
-8.5877298e-04
-8.6481968e-04
-8.4855552e-04
-8.0862195e-04
-7.4457463e-04
-6.5713539e-04
-5.4836606e-04
-4.2173002e-04
-2.8201896e-04
-1.3513592e-04
1.2260245e-05
1.5322796e-04
2.8109399e-04
3.9002555e-04
4.7555559e-04
5.3499296e-04
5.6765963e-04
5.7491646e-04
5.5996508e-04
5.2744203e-04
4.8285064e-04
4.3190121e-04
3.7984731e-04
3.3090994e-04
2.8787053e-04
2.5188863e-04
2.2256356e-04
1.9821784e-04
