6.6446645e-02
1.3491388e-01
2.2829534e-01
3.3443831e-01
4.3750272e-01
5.2425402e-01
5.8180539e-01
6.1399060e-01
6.2322814e-01
6.1902098e-01
6.1303325e-01
6.0509464e-01
6.0148344e-01
6.0024206e-01
5.9800395e-01
5.9132263e-01
5.7358834e-01
5.4951632e-01
5.1819874e-01
4.8019789e-01
4.3260659e-01
3.6983947e-01
2.9865188e-01
2.1463454e-01
1.0957275e-01
-9.2658516e-03
-1.1619653e-01
-1.9207654e-01
-2.4366061e-01
-2.7456589e-01
-2.9244211e-01
-3.0739772e-01
-3.1240786e-01
-3.0621809e-01
-2.8800365e-01
-2.6321292e-01
-2.4367527e-01
-2.2659787e-01
-2.1270404e-01
-2.0031997e-01
-1.9320179e-01
-2.0207087e-01
-2.2193857e-01
-2.4724645e-01
-2.6898633e-01
-2.8518450e-01
-3.0134033e-01
-3.1159819e-01
-3.1341198e-01
-2.9910017e-01
-2.6797342e-01
-2.2969817e-01
-1.8372718e-01
-1.3031112e-01
-6.5025564e-02
6.7395641e-03
7.0006105e-02
1.1935984e-01
1.5095539e-01
1.7366747e-01
1.9026672e-01
1.9266534e-01
1.8114456e-01
1.5591843e-01
1.2824799e-01
1.0257326e-01
7.3373261e-02
4.1722585e-02
4.0929858e-03
-3.1689239e-02
-6.1389555e-02
-8.8155614e-02
-1.0976509e-01
-1.3169833e-01
-1.4637365e-01
-1.5209394e-01
-1.6276755e-01
-1.8517729e-01
-2.2491791e-01
-2.7189904e-01
-3.1718595e-01
-3.6001391e-01
-3.9686475e-01
-4.3159330e-01
-4.5860274e-01
-4.7579638e-01
-4.8704482e-01
-4.9194759e-01
-4.9700652e-01
-4.9940722e-01
-4.9733456e-01
-4.9274919e-01
-4.8451974e-01
-4.7838163e-01
-4.6983233e-01
-4.5377505e-01
-4.2385082e-01
-3.6833152e-01
-2.8240357e-01
-1.4842078e-01
1.5578837e-02
1.5359384e-01
2.4714849e-01
3.0299143e-01
3.3475965e-01
3.4963268e-01
3.5167632e-01
3.4712242e-01
3.3369531e-01
3.1774886e-01
2.9821598e-01
2.7469937e-01
2.5349281e-01
2.3014392e-01
2.0706358e-01
1.8209840e-01
1.5316832e-01
1.2460758e-01
9.6124909e-02
7.6326675e-02
6.5921890e-02
6.5473166e-02
8.1228851e-02
1.1408574e-01
1.7647496e-01
2.4964807e-01
2.9016665e-01
2.8814108e-01
2.5502511e-01
2.0978131e-01
1.6168008e-01
1.1476609e-01
7.2932579e-02
3.5977641e-02
1.3111327e-02
4.1621610e-03
7.9933473e-03
2.5311151e-02
5.1615867e-02
9.2343510e-02
1.4486909e-01
2.0329729e-01
2.5987454e-01
3.0444278e-01
3.4082727e-01
3.6653845e-01
3.7843805e-01
3.6965034e-01
3.2862824e-01
2.5838195e-01
1.7288174e-01
1.0332957e-01
5.8699421e-02
2.6030954e-02
9.0442940e-03
4.9529891e-03
1.1526393e-02
2.2875555e-02
2.6813547e-02
2.9100181e-02
3.2722050e-02
4.1946740e-02
5.5858700e-02
6.4356965e-02
7.3365364e-02
8.6245725e-02
1.0705008e-01
1.3318309e-01
1.5308388e-01
1.7098684e-01
1.8660120e-01
1.9692496e-01
1.9168785e-01
1.5210046e-01
7.0296809e-02
-3.9870697e-02
-1.3278747e-01
-1.9028661e-01
-2.2851322e-01
-2.5222147e-01
-2.6426142e-01
-2.5906724e-01
-2.3656083e-01
-2.0733615e-01
-1.7356716e-01
-1.3797039e-01
-9.3641095e-02
-3.9493393e-02
1.4991120e-02
6.8227039e-02
1.1554076e-01
1.6112261e-01
2.0167657e-01
2.2490636e-01
2.2927501e-01
2.0864679e-01
1.6730966e-01
1.0685453e-01
2.0032599e-02
-9.4965130e-02
-2.2845058e-01
-3.4035019e-01
-4.1304315e-01
-4.5928628e-01
-4.8478338e-01
-4.9869713e-01
-5.0068459e-01
-4.9431542e-01
-4.8908928e-01
-4.8637393e-01
-4.9423963e-01
-5.0898079e-01
-5.2558843e-01
-5.4411341e-01
-5.5769904e-01
-5.6863895e-01
-5.7338330e-01
-5.6916847e-01
-5.5689554e-01
-5.3152900e-01
-4.9407773e-01
-4.3730973e-01
-3.5566579e-01
-2.4449836e-01
-9.2290751e-02
7.9366202e-02
2.3127240e-01
3.4645728e-01
4.2965126e-01
4.8905372e-01
5.2564572e-01
5.4852591e-01
5.6014654e-01
5.6080647e-01
5.5704103e-01
5.4764335e-01
5.3905887e-01
5.3137063e-01
5.2417857e-01
5.2287098e-01
5.2379652e-01
5.3249284e-01
5.4725497e-01
5.6185872e-01
5.7470746e-01
5.7601036e-01
5.6348338e-01
5.2501839e-01
4.4345761e-01
3.0658158e-01
1.3415851e-01
-5.1051160e-03
-8.8479478e-02
-1.3513690e-01
-1.5462088e-01
-1.5477920e-01
-1.3169400e-01
-9.0989855e-02
-4.1560173e-02
1.4569087e-02
7.4833425e-02
1.4764918e-01
2.3140621e-01
3.1914912e-01
4.0576966e-01
4.8426035e-01
5.5904713e-01
6.2461758e-01
6.7121138e-01
6.8776309e-01
6.6177143e-01
5.9820911e-01
4.9370467e-01
3.4060540e-01
1.2916858e-01
-1.2235530e-01
-3.4625020e-01
-5.1114511e-01
-6.1947967e-01
-6.7733182e-01
-6.9719002e-01
-6.7794044e-01
-6.2493039e-01
-5.4312131e-01
-4.4137419e-01
-3.3736813e-01
-2.3266529e-01
-1.3033345e-01
-3.1195383e-02
5.9944271e-02
1.3050568e-01
1.8614718e-01
2.3221671e-01
2.7248424e-01
3.0158595e-01
3.0352205e-01
2.7641622e-01
2.1681645e-01
1.2082350e-01
-2.4824729e-02
-2.0242931e-01
-3.4269674e-01
-4.2180834e-01
-4.5194811e-01
-4.4906412e-01
-4.3617452e-01
-4.2164518e-01
-4.0979401e-01
-3.9403405e-01
-3.7358426e-01
-3.5913872e-01
-3.5234887e-01
-3.5727808e-01
-3.6785473e-01
-3.7830856e-01
-3.8934397e-01
-3.9161459e-01
-3.8156772e-01
-3.5071183e-01
-2.9785692e-01
-2.3605932e-01
-1.7482934e-01
-1.2957295e-01
-1.0512967e-01
-1.0784519e-01
-1.3696042e-01
-1.6955736e-01
-2.0302451e-01
-2.3839845e-01
-2.7655664e-01
-3.2393927e-01
-3.7910416e-01
-4.4579305e-01
-5.1794184e-01
-5.9172209e-01
-6.6776585e-01
-7.3938186e-01
-8.0933950e-01
-8.7341993e-01
-9.2881970e-01
-9.7825493e-01
-1.0184239e+00
-1.0515269e+00
-1.0713834e+00
-1.0713319e+00
-1.0421335e+00
-9.6338452e-01
-8.1740055e-01
-5.7361111e-01
-1.9590592e-01
2.6169132e-01
6.5552832e-01
9.2697749e-01
1.1145859e+00
1.2440022e+00
1.3346214e+00
1.4063765e+00
1.4663140e+00
1.5264483e+00
1.5883161e+00
1.6503298e+00
1.7150371e+00
1.7746054e+00
1.8307194e+00
1.8789288e+00
1.9141151e+00
1.9380150e+00
1.9447632e+00
1.9350815e+00
1.8983588e+00
1.8191043e+00
1.6818726e+00
1.4594873e+00
1.1295718e+00
6.5450699e-01
9.3779824e-02
-3.8538744e-01
-7.2268270e-01
-9.4566862e-01
-1.0836975e+00
-1.1614158e+00
-1.1936311e+00
-1.1955138e+00
-1.1691347e+00
-1.1225472e+00
-1.0626210e+00
-9.9312457e-01
-9.2174997e-01
-8.4307559e-01
-7.5784517e-01
-6.6834347e-01
-5.7918301e-01
-4.9968329e-01
-4.2495005e-01
-3.5598582e-01
-2.9316914e-01
-2.3909251e-01
-2.0099915e-01
-1.7008961e-01
-1.4374447e-01
-1.1901809e-01
-9.4413312e-02
-7.6061764e-02
-5.8844253e-02
-4.3872427e-02
-3.1460675e-02
-2.6062735e-02
-3.6452520e-02
-5.3369664e-02
-7.1550115e-02
-8.5163079e-02
-9.5214851e-02
-1.1162630e-01
-1.2955099e-01
-1.4548942e-01
-1.5200155e-01
-1.4968806e-01
-1.4746779e-01
-1.3987266e-01
-1.2708223e-01
-1.0601400e-01
-7.7889763e-02
-5.3497733e-02
-3.3574686e-02
-2.0948169e-02
-9.4498990e-03
5.1338147e-03
1.8073739e-02
2.9686381e-02
3.5565458e-02
4.1005657e-02
4.6908522e-02
4.7576546e-02
4.4539288e-02
3.3950299e-02
2.2428025e-02
1.1232855e-02
-7.5050947e-03
-3.5354982e-02
-7.5041982e-02
-1.1625640e-01
-1.5397457e-01
-1.9012364e-01
-2.2282871e-01
-2.5611927e-01
-2.7945052e-01
-2.8456611e-01
-2.7059197e-01
-2.3364918e-01
-1.7652285e-01
-1.0147415e-01
-2.5667679e-02
3.8566425e-02
9.1512312e-02
1.2624550e-01
1.4970756e-01
1.6719348e-01
1.7931780e-01
1.8778631e-01
1.8655212e-01
1.8176033e-01
1.7776123e-01
1.7602311e-01
1.7781344e-01
1.7649341e-01
1.7585562e-01
1.7531134e-01
1.7456976e-01
1.7427537e-01
1.6563089e-01
1.5125742e-01
1.3150132e-01
1.0949491e-01
8.9264598e-02
6.4422046e-02
3.8981798e-02
1.3715963e-02
-8.0677317e-03
-2.2850939e-02
-3.4796713e-02
-3.6789659e-02
-2.8619583e-02
-1.0542105e-02
1.5782876e-02
4.1570533e-02
6.9920087e-02
9.7792845e-02
1.2638466e-01
1.6033608e-01
1.9632438e-01
2.3602665e-01
2.7026435e-01
2.9491553e-01
3.0997824e-01
3.0946314e-01
2.9758506e-01
2.7087717e-01
2.2593300e-01
1.5676444e-01
5.0664102e-02
-7.6283522e-02
-1.9492798e-01
-2.8955847e-01
-3.6363692e-01
-4.2461851e-01
-4.6839835e-01
-4.9764304e-01
-5.1153954e-01
-5.1282196e-01
-5.0852285e-01
-4.9536310e-01
-4.7852298e-01
-4.5848774e-01
-4.3894692e-01
-4.2663044e-01
-4.1537278e-01
-4.0534379e-01
-3.9288835e-01
-3.7907823e-01
-3.6516704e-01
-3.3926912e-01
-2.9686811e-01
-2.2812391e-01
-1.2923660e-01
1.7257637e-03
1.5158627e-01
2.7260938e-01
3.5232735e-01
3.9920182e-01
4.1492262e-01
4.1028004e-01
3.9036543e-01
3.6577100e-01
3.3652691e-01
2.9734690e-01
2.5362462e-01
2.0611973e-01
1.6405398e-01
1.2922115e-01
9.6719587e-02
6.9331689e-02
4.7450418e-02
3.9298286e-02
4.2290539e-02
4.8140909e-02
5.4802614e-02
5.7123072e-02
6.1825897e-02
7.0176315e-02
7.9300678e-02
8.8302736e-02
9.4454885e-02
1.0904242e-01
1.3257210e-01
1.5724618e-01
1.7631502e-01
1.8236220e-01
1.8321360e-01
1.7921439e-01
1.6812243e-01
1.4892266e-01
1.1866227e-01
8.8981224e-02
6.2305066e-02
3.8670324e-02
1.7240619e-02
-8.9172612e-03
-3.1222652e-02
-4.4525729e-02
-4.4808207e-02
-3.4198388e-02
-2.4763459e-02
-1.3429155e-02
1.3198268e-03
2.1063850e-02
4.0792525e-02
4.8907293e-02
5.1502545e-02
5.1788830e-02
5.4409754e-02
5.9468414e-02
5.8233554e-02
5.5123614e-02
5.1896698e-02
5.3006281e-02
5.7929430e-02
5.6797920e-02
4.8418204e-02
3.1435850e-02
1.5282922e-02
4.6594268e-03
-6.9567238e-03
-1.8748280e-02
-3.2425326e-02
-4.0303366e-02
-4.0468386e-02
-4.2334845e-02
-4.8169817e-02
-6.2577189e-02
-8.0020524e-02
-9.5168508e-02
-1.0615858e-01
-1.0922378e-01
-1.1142696e-01
-1.0913448e-01
-1.0156001e-01
-9.5288162e-02
-9.0441004e-02
-9.2656859e-02
-9.5440010e-02
-9.4395341e-02
-9.2634987e-02
-8.9594749e-02
-9.1780530e-02
-9.4616850e-02
-9.7132733e-02
-1.0504133e-01
-1.1803102e-01
-1.3823024e-01
-1.5633663e-01
-1.6876039e-01
-1.7685622e-01
-1.7793695e-01
-1.7593130e-01
-1.6346248e-01
-1.4004987e-01
-1.1295207e-01
-8.3911752e-02
-5.7269466e-02
-2.7221888e-02
7.6130730e-03
4.5712536e-02
8.4259240e-02
1.1339948e-01
1.3628184e-01
1.5347756e-01
1.6669777e-01
1.8020712e-01
1.9056494e-01
2.0164338e-01
2.0943425e-01
2.1342861e-01
2.1656277e-01
2.1348927e-01
2.0839076e-01
1.9648249e-01
1.7622814e-01
1.5025108e-01
1.1357758e-01
7.1787282e-02
2.6762468e-02
-1.3052450e-02
-4.2726973e-02
-6.9408351e-02
-8.8335126e-02
-1.0177414e-01
-1.1065613e-01
-1.1408875e-01
-1.1560090e-01
-1.0899871e-01
-9.6571145e-02
-7.9131408e-02
-5.8046067e-02
-3.9458038e-02
-1.9509030e-02
-1.2097116e-03
1.5767864e-02
3.1299907e-02
4.1917451e-02
5.4497285e-02
6.8088237e-02
8.2976484e-02
9.4524119e-02
9.4380880e-02
8.7142189e-02
7.0740127e-02
4.5582885e-02
9.8599601e-03
-3.7851468e-02
-8.7002759e-02
-1.3451606e-01
-1.7435136e-01
-2.0860674e-01
-2.4274966e-01
-2.7003361e-01
-2.9210052e-01
-3.0607664e-01
-3.1557270e-01
-3.2898294e-01
-3.4162452e-01
-3.5392242e-01
-3.6025411e-01
-3.6010900e-01
-3.5805910e-01
-3.4855725e-01
-3.2958794e-01
-2.9147924e-01
-2.3150599e-01
-1.5274404e-01
-4.8979715e-02
6.4711566e-02
1.6175533e-01
2.2659611e-01
2.5833915e-01
2.6297764e-01
2.4572464e-01
2.2291621e-01
1.9964994e-01
1.7409359e-01
1.4859545e-01
1.2213976e-01
1.0442132e-01
9.6053264e-02
9.3686698e-02
9.5464791e-02
9.4623324e-02
9.8486447e-02
1.0823039e-01
1.2011144e-01
1.2849429e-01
1.2631128e-01
1.2593491e-01
1.3222277e-01
1.4300020e-01
1.5139851e-01
1.4654945e-01
1.3723625e-01
1.2573705e-01
1.1128601e-01
9.1103505e-02
5.4155856e-02
6.2314170e-03
-4.6065245e-02
-9.4421556e-02
-1.3780211e-01
-1.8530383e-01
-2.2881925e-01
-2.6305282e-01
-2.8354693e-01
-2.9131284e-01
-2.9800356e-01
-3.0298396e-01
-3.0433821e-01
-2.9383028e-01
-2.6916424e-01
-2.3831505e-01
-1.9862432e-01
-1.5005956e-01
-8.4786181e-02
3.2862692e-03
1.0065576e-01
1.9108400e-01
2.6713546e-01
3.3940034e-01
4.0748825e-01
4.5624713e-01
4.7818015e-01
4.6712176e-01
4.3365445e-01
3.8672711e-01
3.3011461e-01
2.7716148e-01
2.3002431e-01
1.9852960e-01
1.8825916e-01
1.9181576e-01
2.0530592e-01
2.1746501e-01
2.3027190e-01
2.4481412e-01
2.5061260e-01
2.4107794e-01
2.0512380e-01
1.4293459e-01
5.3306456e-02
-4.9457873e-02
-1.2618952e-01
-1.6575074e-01
-1.6981271e-01
-1.4679783e-01
-1.1309995e-01
-7.9058259e-02
-5.5495200e-02
-4.0013256e-02
-2.9065864e-02
-1.7512056e-02
-3.3377032e-04
1.4216198e-02
2.6717831e-02
3.8968877e-02
5.2906790e-02
6.8978342e-02
8.0074470e-02
8.9641109e-02
9.5621274e-02
9.7058868e-02
9.5030449e-02
8.1607727e-02
5.5847406e-02
5.9323816e-03
-6.0455186e-02
-1.1183312e-01
-1.4192165e-01
-1.5264402e-01
-1.5199992e-01
-1.4336539e-01
-1.2581637e-01
-1.0665765e-01
-8.4007333e-02
-6.3545008e-02
-4.6269664e-02
-2.8617651e-02
-1.5703501e-02
-4.3470661e-03
-6.4654312e-04
-9.4685740e-03
-3.0060166e-02
-6.4050100e-02
-1.0043974e-01
-1.3405466e-01
-1.6078034e-01
-1.7768201e-01
-1.8790337e-01
-1.8830623e-01
-1.8641569e-01
-1.8761083e-01
-1.9163785e-01
-1.9641988e-01
-1.9141179e-01
-1.7653228e-01
-1.5086379e-01
-1.2054665e-01
-9.6793534e-02
-7.7382269e-02
-6.5862241e-02
-5.9690866e-02
-5.8575459e-02
-6.4090222e-02
-6.4412197e-02
-5.7251275e-02
-4.0794419e-02
-2.2894368e-02
-1.5112176e-02
-1.3552154e-02
-1.9474344e-02
-2.7191289e-02
-3.4343813e-02
-4.1428628e-02
-3.8501156e-02
-2.4022718e-02
2.2667952e-03
2.5727744e-02
3.3034970e-02
3.2579387e-02
3.0551463e-02
3.9195404e-02
5.9059345e-02
7.9081575e-02
9.8878358e-02
1.1865473e-01
1.4579613e-01
1.7572289e-01
1.9556517e-01
2.0628018e-01
2.1114591e-01
2.1949098e-01
2.3138136e-01
2.4184863e-01
2.4945062e-01
2.4831419e-01
2.4469687e-01
2.3874921e-01
2.2432832e-01
1.9727233e-01
1.5086143e-01
1.0173171e-01
6.5892032e-02
3.9799246e-02
1.3193427e-02
-2.2196456e-02
-5.7129110e-02
-8.8338320e-02
-1.1676909e-01
-1.4370951e-01
-1.7431514e-01
-1.9754312e-01
-2.1083205e-01
-2.1545673e-01
-2.1096486e-01
-2.0542139e-01
-1.9504817e-01
-1.7861860e-01
-1.5464723e-01
-1.2559743e-01
-1.0379349e-01
-8.6181479e-02
-7.2221401e-02
-6.0451593e-02
-4.9604873e-02
-4.7862280e-02
-5.1566878e-02
-5.7953426e-02
-6.0832233e-02
-5.6539388e-02
-5.2259212e-02
-4.4069214e-02
-2.8468389e-02
-5.6813933e-04
3.6433712e-02
7.0403421e-02
1.0197397e-01
1.3087829e-01
1.6192540e-01
1.9281428e-01
2.1190309e-01
2.1811501e-01
2.0704464e-01
1.8497885e-01
1.5716706e-01
1.1976453e-01
7.8263840e-02
3.1298141e-02
-1.4967170e-02
-5.6685938e-02
-1.0083255e-01
-1.4126982e-01
-1.7189959e-01
-1.8246038e-01
-1.7195653e-01
-1.5036996e-01
-1.1883308e-01
-8.5656524e-02
-4.9719020e-02
-9.7677978e-03
2.6746118e-02
6.0445559e-02
8.5097379e-02
1.0387688e-01
1.2184683e-01
1.3879275e-01
1.6086060e-01
1.8342023e-01
2.0558240e-01
2.2593348e-01
2.3997855e-01
2.4864445e-01
2.4395558e-01
2.2435687e-01
1.8522616e-01
1.1628550e-01
3.2546399e-02
-3.8405586e-02
-8.3117924e-02
-1.1129955e-01
-1.3392838e-01
-1.5365089e-01
-1.7601517e-01
-1.9699142e-01
-2.1787841e-01
-2.4024097e-01
-2.5724138e-01
-2.6881412e-01
-2.6828014e-01
-2.5870134e-01
-2.4563568e-01
-2.2618147e-01
-2.0484016e-01
-1.7883171e-01
-1.5243905e-01
-1.2997986e-01
-1.0746283e-01
-8.9093252e-02
-7.0184510e-02
-5.0249682e-02
-3.1325739e-02
-1.1973729e-02
3.2719111e-03
2.1793267e-02
4.1554855e-02
5.1897749e-02
5.0479358e-02
3.8658934e-02
2.9254871e-02
2.4493320e-02
2.1594417e-02
2.0353435e-02
1.6268977e-02
1.4677033e-02
1.1747664e-02
-4.8224937e-05
-2.6182645e-02
-7.0068049e-02
-1.1795631e-01
-1.6365728e-01
-2.0354810e-01
-2.3599747e-01
-2.6298846e-01
-2.6996249e-01
-2.4947240e-01
-1.9765013e-01
-1.2653580e-01
-6.3913424e-02
-8.3154050e-03
4.3765108e-02
9.1238036e-02
1.3108362e-01
1.5583150e-01
1.7329997e-01
1.8591220e-01
1.9757805e-01
2.0739286e-01
2.0641461e-01
2.0289093e-01
2.0136892e-01
2.0690118e-01
2.1825146e-01
2.2416976e-01
2.2969544e-01
2.3852652e-01
2.5471403e-01
2.7308964e-01
2.7800892e-01
2.6768663e-01
2.3840669e-01
1.9118197e-01
1.3016113e-01
5.9923716e-02
-9.9148454e-03
-7.8203737e-02
-1.3531601e-01
-1.7703537e-01
-2.1091474e-01
-2.3730939e-01
-2.5799204e-01
-2.6495434e-01
-2.5697529e-01
-2.4487471e-01
-2.3141021e-01
-2.1889063e-01
-1.9941187e-01
-1.7291712e-01
-1.4801268e-01
-1.2505399e-01
-1.0943309e-01
-9.4789989e-02
-7.7489007e-02
-6.0086269e-02
-3.8323973e-02
-1.6344397e-02
1.5539981e-02
6.1407714e-02
1.0889188e-01
1.5409645e-01
1.9149879e-01
2.2728534e-01
2.6509399e-01
2.9826275e-01
3.2281144e-01
3.2962222e-01
3.2285470e-01
3.0550664e-01
2.7728007e-01
2.4497917e-01
2.0816755e-01
1.7471648e-01
1.4900319e-01
1.3000378e-01
1.2000916e-01
1.1329106e-01
1.0998971e-01
1.0732416e-01
1.0249484e-01
9.2861999e-02
6.3172938e-02
6.6006729e-03
-6.6505882e-02
-1.2713280e-01
-1.6228059e-01
-1.8419184e-01
-1.9506471e-01
-2.0134591e-01
-2.0613919e-01
-2.0659748e-01
-2.0593923e-01
-1.9820523e-01
-1.8712139e-01
-1.7569712e-01
-1.6144855e-01
-1.5085435e-01
-1.4280017e-01
-1.4372265e-01
-1.5565762e-01
-1.7354258e-01
-1.9931171e-01
-2.2416073e-01
-2.4686141e-01
-2.6489709e-01
-2.7039175e-01
-2.6105034e-01
-2.2127203e-01
-1.5871461e-01
-9.9667834e-02
-5.2269046e-02
-1.4582158e-02
2.4039227e-02
6.2967263e-02
9.9438553e-02
1.3292517e-01
1.5921924e-01
1.8457705e-01
2.0712119e-01
2.2588191e-01
2.4005470e-01
2.4557147e-01
2.5053235e-01
2.5618413e-01
2.6483338e-01
2.7447116e-01
2.7779467e-01
2.8011498e-01
2.7823391e-01
2.7002346e-01
2.4915416e-01
2.0529117e-01
1.4322172e-01
6.9844174e-02
4.3324858e-03
-4.8878015e-02
-1.0080143e-01
-1.4578159e-01
-1.8437583e-01
-2.1376009e-01
-2.3469778e-01
-2.5454345e-01
-2.6563896e-01
-2.6590846e-01
-2.5162838e-01
-2.2735865e-01
-2.0702942e-01
-1.8943365e-01
-1.7397640e-01
-1.5383745e-01
-1.2972176e-01
-1.1239178e-01
-9.9650667e-02
-8.9245818e-02
-7.0801721e-02
-4.0870616e-02
-5.3298071e-03
4.0865168e-02
9.0917784e-02
1.3633420e-01
1.7069960e-01
1.8529553e-01
1.7963758e-01
1.5477435e-01
1.2408099e-01
9.3567259e-02
5.7884156e-02
1.7699954e-02
-2.6984026e-02
-6.3351905e-02
-8.6677769e-02
-1.0310805e-01
-1.1422650e-01
-1.2540062e-01
-1.2767414e-01
-1.1771498e-01
-1.0167868e-01
-8.1615542e-02
-6.5800368e-02
-4.7706142e-02
-2.3089189e-02
4.5801284e-03
3.6201002e-02
6.2941504e-02
8.5560543e-02
1.0560641e-01
1.2287971e-01
1.3948326e-01
1.4668597e-01
1.5003849e-01
1.5455684e-01
1.5662090e-01
1.5318391e-01
1.3492890e-01
1.0605964e-01
7.0128940e-02
3.0494887e-02
-7.4836535e-03
-4.9389385e-02
-9.0527368e-02
-1.2822007e-01
-1.6032085e-01
-1.8321250e-01
-2.0093060e-01
-2.0714421e-01
-2.0070167e-01
-1.8120417e-01
-1.4951492e-01
-1.1769893e-01
-8.6529751e-02
-5.9268608e-02
-3.7336428e-02
-1.9196700e-02
-8.9101068e-03
-1.1208728e-04
5.1082130e-03
7.0675478e-03
1.0449046e-02
1.1646893e-02
1.6274868e-02
2.1811996e-02
2.7305480e-02
3.3713637e-02
3.2682587e-02
2.6491995e-02
1.2300038e-02
-8.6098337e-03
-3.1815339e-02
-5.8553561e-02
-7.7334596e-02
-8.5346682e-02
-7.9766297e-02
-5.4548026e-02
-1.8511492e-02
2.0273213e-02
5.5378179e-02
8.9723085e-02
1.2490985e-01
1.5702050e-01
1.9221624e-01
2.2654805e-01
2.5832374e-01
2.8760488e-01
3.1087742e-01
3.3582221e-01
3.6202445e-01
3.9010299e-01
4.1710561e-01
4.3723048e-01
4.5732824e-01
4.7600523e-01
4.9381082e-01
5.0426967e-01
4.9629947e-01
4.7314782e-01
4.2717081e-01
3.4874662e-01
2.1885622e-01
4.5812654e-02
-1.1208774e-01
-2.3310045e-01
-3.2134103e-01
-3.8479839e-01
-4.3698072e-01
-4.7625436e-01
-5.0523884e-01
-5.2026039e-01
-5.2249263e-01
-5.2117893e-01
-5.1246849e-01
-4.9431016e-01
-4.6046878e-01
-4.1719187e-01
-3.8098751e-01
-3.5252001e-01
-3.3097013e-01
-3.0798918e-01
-2.8174358e-01
-2.5706858e-01
-2.2773022e-01
-1.9004367e-01
-1.3196801e-01
-4.5012169e-02
5.5056179e-02
1.3989130e-01
1.9718813e-01
2.4478120e-01
2.8950321e-01
3.2247541e-01
3.3605169e-01
3.2133327e-01
2.8766214e-01
2.4243589e-01
1.8615736e-01
1.2274253e-01
5.1872865e-02
-1.2835067e-02
-6.5810786e-02
-1.1068507e-01
-1.4667809e-01
-1.7795615e-01
-1.9660948e-01
-2.0079558e-01
-1.9430218e-01
-1.7828859e-01
-1.6148549e-01
-1.3916070e-01
-1.0988043e-01
-7.8373036e-02
-4.7794530e-02
-2.6654708e-02
-9.1674964e-03
8.4270752e-03
2.6633225e-02
4.6423853e-02
6.1486071e-02
7.9515755e-02
1.0533285e-01
1.3903945e-01
1.7911851e-01
2.1514260e-01
2.4765641e-01
2.7448473e-01
2.9455999e-01
3.0745053e-01
3.0421956e-01
2.8752922e-01
2.5855679e-01
2.2164952e-01
1.7922160e-01
1.2258554e-01
5.2232144e-02
-3.5600137e-02
-1.2639912e-01
-1.9303582e-01
-2.3246148e-01
-2.4715946e-01
-2.4766928e-01
-2.3776868e-01
-2.1746048e-01
-1.9535024e-01
-1.7004096e-01
-1.4790842e-01
-1.3065593e-01
-1.1589939e-01
-1.0722058e-01
-9.7426051e-02
-8.8340086e-02
-7.9406429e-02
-6.8750753e-02
-6.2857820e-02
-5.8379763e-02
-5.8689338e-02
-6.2364829e-02
-6.5495156e-02
-6.8967160e-02
-6.0949125e-02
-3.8516368e-02
-8.3467761e-03
1.4357383e-02
2.1150625e-02
2.4448478e-02
2.6868304e-02
3.1209746e-02
3.9309109e-02
4.8470022e-02
6.3082604e-02
7.7046435e-02
8.9559848e-02
9.8856336e-02
9.8821654e-02
9.6904640e-02
9.3368191e-02
9.0757969e-02
8.8188104e-02
8.1924280e-02
8.0920948e-02
8.5433577e-02
9.7541795e-02
1.1221749e-01
1.2049993e-01
1.2750982e-01
1.3130466e-01
1.3360814e-01
1.2955282e-01
1.1221003e-01
9.0153664e-02
6.6237679e-02
4.9936005e-02
4.1909281e-02
3.2642050e-02
2.5783874e-02
2.1295465e-02
2.6293617e-02
4.1775251e-02
5.8965312e-02
7.9246940e-02
1.0100819e-01
1.2958353e-01
1.6126253e-01
1.8429485e-01
2.0039171e-01
2.0877473e-01
2.1534091e-01
2.1755547e-01
2.0194155e-01
1.6359144e-01
9.5498894e-02
1.6293792e-02
-4.4230492e-02
-8.3688201e-02
-1.1309792e-01
-1.4168701e-01
-1.6229964e-01
-1.7411548e-01
-1.8483910e-01
-1.9787754e-01
-2.1793755e-01
-2.3399279e-01
-2.4243593e-01
-2.4762397e-01
-2.4958868e-01
-2.5283220e-01
-2.4729414e-01
-2.3016407e-01
-2.0719895e-01
-1.8053220e-01
-1.5842068e-01
-1.3422406e-01
-1.0347808e-01
-6.8392279e-02
-3.1643710e-02
-2.9653151e-03
2.2598337e-02
4.5930449e-02
6.4722130e-02
8.0263893e-02
8.5557190e-02
8.7064273e-02
8.8819442e-02
8.9423016e-02
8.7355114e-02
7.3799653e-02
5.2718141e-02
2.7912860e-02
4.6320332e-03
-1.3049344e-02
-3.2140877e-02
-4.9006186e-02
-6.2720477e-02
-7.1065486e-02
-7.1399450e-02
-6.9742946e-02
-6.2037043e-02
-4.7958488e-02
-2.5533222e-02
4.5224673e-03
3.1975007e-02
5.8796349e-02
8.1006800e-02
9.6459949e-02
1.0483970e-01
9.9503811e-02
8.5686661e-02
6.1830044e-02
3.1247923e-02
1.0826040e-03
-2.9649127e-02
-5.5508463e-02
-8.1149944e-02
-1.0613281e-01
-1.2930173e-01
-1.5870253e-01
-1.8977558e-01
-2.2428960e-01
-2.5991319e-01
-2.9204314e-01
-3.2367338e-01
-3.4498128e-01
-3.5320065e-01
-3.4482937e-01
-3.1259644e-01
-2.5171679e-01
-1.6595941e-01
-8.7337650e-02
-2.8123829e-02
1.7187296e-02
4.8446761e-02
7.4852421e-02
9.6294970e-02
1.1379760e-01
1.2643756e-01
1.3053586e-01
1.3291383e-01
1.3086281e-01
1.2517365e-01
1.1490602e-01
9.6437960e-02
7.6620190e-02
5.3656725e-02
2.9689749e-02
1.3974559e-03
-3.6289932e-02
-7.2824010e-02
-1.0499499e-01
-1.2646941e-01
-1.3606152e-01
-1.3429792e-01
-1.1820699e-01
-1.0241401e-01
-8.6541863e-02
-6.8401678e-02
-5.2953782e-02
-3.2591972e-02
-7.7713153e-03
2.4793957e-02
6.1233449e-02
8.9314538e-02
1.1096799e-01
1.2791788e-01
1.4786728e-01
1.6940220e-01
1.8242208e-01
1.8916782e-01
1.9190838e-01
2.0013924e-01
2.1417853e-01
2.2634889e-01
2.3739579e-01
2.4405618e-01
2.5123806e-01
2.5619462e-01
2.4800731e-01
2.2348290e-01
1.8052182e-01
1.3247471e-01
8.6555029e-02
4.0169830e-02
-4.7759275e-03
-4.8494887e-02
-7.8723483e-02
-9.1209376e-02
-9.0969940e-02
-8.1289255e-02
-6.8526322e-02
-4.4469271e-02
-8.9557090e-03
3.1004073e-02
7.0442384e-02
9.8971693e-02
1.2157989e-01
1.3823909e-01
1.4511685e-01
1.4271765e-01
1.2428281e-01
9.8347737e-02
7.3244960e-02
5.1702349e-02
3.3586818e-02
9.9420845e-03
-1.2648664e-02
-2.9069443e-02
-3.8463595e-02
-4.0670487e-02
-4.4201637e-02
-4.5396963e-02
-4.2286081e-02
-3.3497223e-02
-1.7804416e-02
-2.4822162e-03
1.5466196e-02
3.6767648e-02
6.5318435e-02
1.0234529e-01
1.3675953e-01
1.6928606e-01
1.9849774e-01
2.2466734e-01
2.4705901e-01
2.5616870e-01
2.5123330e-01
2.2358998e-01
1.6753112e-01
9.6041817e-02
3.2698230e-02
-7.2941872e-03
-3.6463909e-02
-6.0398899e-02
-7.9604606e-02
-1.0149023e-01
-1.2123594e-01
-1.4094713e-01
-1.5680167e-01
-1.6336948e-01
-1.6548477e-01
-1.5860324e-01
-1.4553096e-01
-1.2420936e-01
-9.3222681e-02
-6.1693742e-02
-2.8351121e-02
2.8414807e-03
3.1642174e-02
5.6243676e-02
6.9375651e-02
7.6338989e-02
7.3545500e-02
5.8951546e-02
3.7176875e-02
1.5329235e-02
4.1010657e-03
-3.7203584e-03
-1.3137591e-02
-2.7203569e-02
-5.1486682e-02
-8.0863684e-02
-1.1857241e-01
-1.6396684e-01
-2.1752111e-01
-2.8147413e-01
-3.4517127e-01
-4.0602943e-01
-4.5895389e-01
-5.0417157e-01
-5.4474062e-01
-5.7128169e-01
-5.8373207e-01
-5.7744316e-01
-5.5347876e-01
-5.1648285e-01
-4.5438655e-01
-3.6155441e-01
-2.2847371e-01
-7.6774781e-02
4.3362832e-02
1.2332998e-01
1.7459036e-01
2.1377706e-01
2.4786341e-01
2.7219873e-01
2.9201515e-01
3.0631098e-01
3.1886495e-01
3.2530746e-01
3.1387746e-01
2.8693251e-01
2.4730783e-01
2.0500415e-01
1.6093727e-01
1.0891007e-01
5.4441703e-02
2.9433021e-03
-3.3520940e-02
-5.3324824e-02
-6.3285592e-02
-6.6407229e-02
-6.8172912e-02
-5.8440620e-02
-3.4232233e-02
-5.2268335e-03
2.0086532e-02
3.4609032e-02
4.9969739e-02
6.9482751e-02
8.6661342e-02
9.7505128e-02
9.5523485e-02
9.0883124e-02
8.7702232e-02
8.3207349e-02
7.5260676e-02
5.5037500e-02
3.0645548e-02
8.2879318e-03
-1.0968286e-02
-2.7238021e-02
-4.9373237e-02
-7.0642913e-02
-8.6153163e-02
-9.5262480e-02
-9.8573611e-02
-1.0343944e-01
-9.9035516e-02
-7.9690793e-02
-4.8393887e-02
-9.7263397e-03
2.4472448e-02
5.7813870e-02
9.2652501e-02
1.3036478e-01
1.7162994e-01
2.0707044e-01
2.3758264e-01
2.6390779e-01
2.9137127e-01
3.2164629e-01
3.4330919e-01
3.5528013e-01
3.5405789e-01
3.4091095e-01
3.1784499e-01
2.7969315e-01
2.3429951e-01
1.8601786e-01
1.4119148e-01
9.9461653e-02
5.0032237e-02
-3.1489001e-03
-5.8126715e-02
-1.0516582e-01
-1.3768867e-01
-1.6107758e-01
-1.6962497e-01
-1.6723939e-01
-1.5517754e-01
-1.3293983e-01
-1.0896580e-01
-8.2499330e-02
-5.8037760e-02
-3.4730506e-02
-1.1866366e-02
4.8274118e-03
2.0030692e-02
2.9535993e-02
3.3874845e-02
3.4862633e-02
2.8541312e-02
2.2111167e-02
1.3512374e-02
3.4509902e-03
-6.5937012e-03
-2.0602894e-02
-3.4195913e-02
-5.0918920e-02
-6.8283176e-02
-8.3439543e-02
-9.7759746e-02
-1.0449516e-01
-1.0488547e-01
-9.5550455e-02
-7.8399767e-02
-6.1239344e-02
-4.1520072e-02
-2.2381822e-02
-1.9399766e-03
1.6747831e-02
2.7973535e-02
3.7460008e-02
4.4081017e-02
5.0808908e-02
5.3941317e-02
4.8863863e-02
4.5047921e-02
4.5069764e-02
5.5435663e-02
7.3004672e-02
8.7134317e-02
9.6873990e-02
9.6623176e-02
9.0029647e-02
7.3692231e-02
3.9816844e-02
-4.9208259e-03
-5.7077824e-02
-1.0535319e-01
-1.4717316e-01
-1.8899348e-01
-2.2561505e-01
-2.5291708e-01
-2.6218331e-01
-2.5714912e-01
-2.4937910e-01
-2.3990474e-01
-2.3037521e-01
-2.1485040e-01
-1.9616028e-01
-1.8146134e-01
-1.7087793e-01
-1.6687089e-01
-1.5889329e-01
-1.4181901e-01
-1.1684722e-01
-8.4910465e-02
-5.1983000e-02
-1.0222806e-02
4.0777648e-02
9.4309448e-02
1.4616025e-01
1.9195626e-01
2.4410080e-01
3.0713354e-01
3.7691107e-01
4.4517325e-01
4.9505578e-01
5.2527136e-01
5.3370618e-01
5.2113113e-01
4.9222189e-01
4.4806041e-01
4.0764264e-01
3.8211907e-01
3.7281916e-01
3.7182410e-01
3.5848280e-01
3.2760350e-01
2.7063986e-01
1.7764004e-01
3.4927806e-02
-1.4376622e-01
-2.9093697e-01
-3.7985513e-01
-4.2222520e-01
-4.3062712e-01
-4.2372049e-01
-4.0327513e-01
-3.7039437e-01
-3.2461802e-01
-2.7052503e-01
-2.2292904e-01
-1.8492906e-01
-1.5788736e-01
-1.3366142e-01
-1.0731827e-01
-8.5325827e-02
-6.4443240e-02
-4.5288133e-02
-2.4369209e-02
-5.0879551e-03
1.2152400e-03
-5.0963546e-03
-2.9417004e-02
-6.4535195e-02
-1.0200677e-01
-1.4358770e-01
-1.8286827e-01
-2.2167659e-01
-2.5330091e-01
-2.7076792e-01
-2.7690969e-01
-2.6891828e-01
-2.5243861e-01
-2.2310562e-01
-1.7933164e-01
-1.3325010e-01
-8.9509599e-02
-5.6858892e-02
-3.2978723e-02
-1.5545934e-02
-8.4367944e-03
-5.4310621e-03
-7.6788337e-03
-9.8025462e-03
-6.7827570e-03
1.2986525e-03
2.0702773e-02
4.7326623e-02
8.2366079e-02
1.2636714e-01
1.7163489e-01
2.1438740e-01
2.4779751e-01
2.7509449e-01
2.9613061e-01
3.0567169e-01
3.0430061e-01
2.8540807e-01
2.5260871e-01
2.0967101e-01
1.6044690e-01
1.1456030e-01
7.1308193e-02
3.6746999e-02
9.2363147e-03
-1.4693265e-02
-2.9876640e-02
-4.0416443e-02
-4.3098027e-02
-4.0312628e-02
-3.5331728e-02
-2.5390989e-02
-1.8129513e-02
-1.3525962e-02
-2.0015998e-02
-4.2025102e-02
-6.5946902e-02
-8.8414291e-02
-1.0138651e-01
-1.0442234e-01
-1.0371502e-01
-9.8523023e-02
-9.1065304e-02
-7.3408899e-02
-4.7218790e-02
-2.0114025e-02
7.0095099e-03
3.1539562e-02
5.9761447e-02
8.7167231e-02
1.0529360e-01
1.0942376e-01
9.1931659e-02
5.8929577e-02
1.2896229e-02
-4.1710271e-02
-9.6960282e-02
-1.4933171e-01
-1.8543859e-01
-2.0346105e-01
-2.1032990e-01
-2.1826567e-01
-2.3720544e-01
-2.5445329e-01
-2.6299978e-01
-2.5942047e-01
-2.4559361e-01
-2.3125798e-01
-2.1331313e-01
-1.9557902e-01
-1.7980937e-01
-1.7072369e-01
-1.7900502e-01
-1.9522491e-01
-2.1373893e-01
-2.2917011e-01
-2.4057246e-01
-2.5501251e-01
-2.6372013e-01
-2.6057981e-01
-2.3627462e-01
-1.8836238e-01
-1.2572899e-01
-4.0989083e-02
7.3408505e-02
2.0853755e-01
3.2972430e-01
4.1384332e-01
4.6922171e-01
4.9981516e-01
5.1411402e-01
5.1414719e-01
4.9383739e-01
4.5902246e-01
4.1416490e-01
3.7252705e-01
3.3946040e-01
3.0968701e-01
2.8545816e-01
2.6470456e-01
2.5603560e-01
2.6036222e-01
2.6667120e-01
2.7182395e-01
2.6914348e-01
2.6287475e-01
2.5101982e-01
2.2120313e-01
1.6472525e-01
6.3930463e-02
-6.2047498e-02
-1.6985959e-01
-2.4532083e-01
-2.9186400e-01
-3.1979773e-01
-3.2775127e-01
-3.1687274e-01
-2.9508978e-01
-2.6552349e-01
-2.3747282e-01
-2.0700046e-01
-1.7187246e-01
-1.3668886e-01
-1.0416256e-01
-8.5354348e-02
-7.9782989e-02
-8.5942147e-02
-1.0311114e-01
-1.2802562e-01
-1.6364526e-01
-2.0124115e-01
-2.3352030e-01
-2.5180573e-01
-2.4695202e-01
-2.2016697e-01
-1.7408702e-01
-1.2756474e-01
-8.7337104e-02
-4.9150665e-02
-2.0281929e-02
2.4016665e-03
1.7975146e-02
2.8104074e-02
3.5127561e-02
3.2650856e-02
2.5023220e-02
1.1263538e-02
-4.7189069e-03
-1.7751701e-02
-3.2300206e-02
-4.1835050e-02
-4.7215469e-02
-4.6774546e-02
-3.6441946e-02
-2.1020611e-02
3.7671811e-03
3.4214766e-02
7.0415527e-02
1.1377630e-01
1.5700688e-01
1.9645478e-01
2.1423480e-01
2.0652239e-01
1.8254002e-01
1.4511648e-01
1.0570945e-01
6.6589876e-02
3.0969099e-02
1.5799479e-03
-2.3209514e-02
-3.5631888e-02
-3.8200525e-02
-3.2688735e-02
-2.1555821e-02
-1.0102230e-02
6.0386429e-03
2.3681144e-02
4.2662165e-02
5.9090677e-02
6.7693738e-02
7.5638817e-02
8.2016398e-02
8.9646835e-02
9.5138267e-02
9.1890478e-02
8.8011439e-02
8.6103412e-02
9.4013692e-02
1.0955042e-01
1.2303382e-01
1.3817811e-01
1.5079865e-01
1.6167624e-01
1.6656453e-01
1.5577764e-01
1.3167758e-01
9.4286749e-02
5.3839183e-02
1.3309797e-02
-3.2485497e-02
-7.6928358e-02
-1.1570563e-01
-1.3894173e-01
-1.4741640e-01
-1.4936054e-01
-1.4403952e-01
-1.3274201e-01
-1.0823382e-01
-7.2842420e-02
-3.4664583e-02
1.1388640e-03
2.2889422e-02
3.5933906e-02
4.2507211e-02
3.8870346e-02
2.5846716e-02
1.6650512e-03
-2.2721028e-02
-4.4161446e-02
-6.3801840e-02
-8.0950962e-02
-9.8188266e-02
-1.0469130e-01
-1.0038806e-01
-9.1339859e-02
-8.4405618e-02
-9.1227595e-02
-1.0707701e-01
-1.2978343e-01
-1.5519440e-01
-1.8041280e-01
-2.1071677e-01
-2.3511145e-01
-2.4489505e-01
-2.3205619e-01
-2.0111867e-01
-1.7286575e-01
-1.4446242e-01
-1.1035203e-01
-6.7781973e-02
-2.0171265e-02
1.9867570e-02
5.6467582e-02
9.1309505e-02
1.2590013e-01
1.5793626e-01
1.7827165e-01
1.9254117e-01
2.0184583e-01
2.0892265e-01
2.1518065e-01
2.1493536e-01
2.1149254e-01
2.0477413e-01
2.0265257e-01
2.0634294e-01
2.0293370e-01
1.8752885e-01
1.5090075e-01
9.1735548e-02
2.1198066e-02
-4.3478841e-02
-9.1263033e-02
-1.2628322e-01
-1.4048362e-01
-1.3336431e-01
-1.1337880e-01
-7.8647895e-02
-3.5855183e-02
1.5873902e-02
7.3519894e-02
1.2526495e-01
1.6654742e-01
1.9169478e-01
2.1387910e-01
2.4191644e-01
2.6814886e-01
2.8822618e-01
2.9439240e-01
2.9109496e-01
2.7985097e-01
2.5483986e-01
2.1358035e-01
1.4574969e-01
4.7440852e-02
-6.6840991e-02
-1.5836156e-01
-2.0781894e-01
-2.3229122e-01
-2.3830538e-01
-2.3181677e-01
-2.1836745e-01
-1.9634743e-01
-1.6954270e-01
-1.3425623e-01
-9.2439896e-02
-4.5845594e-02
6.2533366e-03
5.6355787e-02
1.0771735e-01
1.5927391e-01
2.1027645e-01
2.5999785e-01
2.9852612e-01
3.2704536e-01
3.4095844e-01
3.3885973e-01
3.2200490e-01
2.8244131e-01
2.2137303e-01
1.4435945e-01
7.3187975e-02
2.0111179e-02
-2.4058731e-02
-5.8281265e-02
-8.7540596e-02
-1.1197623e-01
-1.2980528e-01
-1.4815396e-01
-1.6440643e-01
-1.8362551e-01
-2.0760091e-01
-2.3618408e-01
-2.7440966e-01
-3.1540685e-01
-3.5929382e-01
-4.0334037e-01
-4.4413167e-01
-4.8188623e-01
-5.0794783e-01
-5.2317743e-01
-5.2324020e-01
-5.0295373e-01
-4.5986324e-01
-3.8153562e-01
-2.8058115e-01
-1.8162030e-01
-9.7687296e-02
-3.1189942e-02
2.7047706e-02
7.9682931e-02
1.3174288e-01
1.7922550e-01
2.1290360e-01
2.3687374e-01
2.5096677e-01
2.6155926e-01
2.6879662e-01
2.6822919e-01
2.6513889e-01
2.5618194e-01
2.4473286e-01
2.2861044e-01
2.0145385e-01
1.6903027e-01
1.3259459e-01
1.0122586e-01
7.5054995e-02
4.5718526e-02
1.4896668e-02
-1.5026830e-02
-3.1032356e-02
-3.3118390e-02
-3.2262296e-02
-2.9808261e-02
-2.6575315e-02
-1.4317157e-02
4.9753434e-03
2.2507172e-02
3.5776098e-02
4.0892835e-02
4.5096244e-02
4.9806139e-02
5.2733320e-02
5.4125720e-02
5.2126509e-02
5.6564042e-02
6.8057961e-02
8.1163001e-02
8.8810094e-02
8.1797947e-02
6.9547253e-02
5.5462932e-02
3.7837131e-02
1.3797335e-02
-2.2119529e-02
-5.9251205e-02
-9.4870242e-02
-1.2803375e-01
-1.5857883e-01
-1.9130738e-01
-2.1412411e-01
-2.2260871e-01
-2.1715012e-01
-2.0328645e-01
-1.9393915e-01
-1.8445932e-01
-1.7237139e-01
-1.5515671e-01
-1.3573447e-01
-1.2453206e-01
-1.1549964e-01
-1.0498989e-01
-8.7784390e-02
-6.4882091e-02
-4.6855738e-02
-2.9586871e-02
-9.1905339e-03
2.3129291e-02
6.9382276e-02
1.1375170e-01
1.4515390e-01
1.5902134e-01
1.6534717e-01
1.6781920e-01
1.6002596e-01
1.4495530e-01
1.2444661e-01
1.1007352e-01
1.0589450e-01
1.0511436e-01
1.0991225e-01
1.1998461e-01
1.4309471e-01
1.7797497e-01
2.1528214e-01
2.5251348e-01
2.7870872e-01
2.9727370e-01
3.1187021e-01
3.1633350e-01
3.0857430e-01
2.8094127e-01
2.3404570e-01
1.5918492e-01
6.0666941e-02
-2.8501176e-02
-1.0063555e-01
-1.5514464e-01
-1.9293527e-01
-2.2104942e-01
-2.4391234e-01
-2.7320209e-01
-3.0636352e-01
-3.3904161e-01
-3.6770157e-01
-3.8713524e-01
-4.0360367e-01
-4.1590218e-01
-4.2630257e-01
-4.3618978e-01
-4.4232719e-01
-4.4744660e-01
-4.4298367e-01
-4.2476209e-01
-3.8976696e-01
-3.3514883e-01
-2.6549971e-01
-1.7495582e-01
-6.1826575e-02
6.2031052e-02
1.6927258e-01
2.4553639e-01
3.0437781e-01
3.4786245e-01
3.7942692e-01
4.0388675e-01
4.1576718e-01
4.1642974e-01
3.9971030e-01
3.6550323e-01
3.1814580e-01
2.6122089e-01
2.0971873e-01
1.6229288e-01
1.1766945e-01
7.5487112e-02
2.5027791e-02
-3.3363769e-02
-9.8891514e-02
-1.5893244e-01
-1.9886335e-01
-2.1280138e-01
-1.9169974e-01
-1.4616801e-01
-9.3361805e-02
-4.9868054e-02
-2.7084959e-02
-1.9310148e-02
-2.3794468e-02
-2.9254384e-02
-2.7054968e-02
-1.9163764e-02
-3.9361571e-03
1.1443206e-02
2.5994389e-02
3.6755518e-02
3.9115088e-02
3.9696767e-02
3.6838406e-02
3.2977009e-02
2.4088519e-02
3.3785513e-03
-2.2844262e-02
-5.4122935e-02
-8.2878013e-02
-1.0710028e-01
-1.2669273e-01
-1.2987734e-01
-1.1295299e-01
-7.4743642e-02
-3.1505985e-02
1.9227029e-03
2.8998576e-02
4.9951162e-02
7.4194217e-02
1.0252230e-01
1.2886850e-01
1.5512520e-01
1.7935703e-01
2.0784682e-01
2.3629096e-01
2.5387918e-01
2.6081218e-01
2.5992153e-01
2.6485007e-01
2.7675267e-01
2.8983124e-01
3.0365126e-01
3.1082989e-01
3.1268393e-01
3.0494625e-01
2.7889544e-01
2.2712552e-01
1.4042866e-01
3.7618461e-02
-5.5887588e-02
-1.3237614e-01
-1.9838877e-01
-2.6039194e-01
-3.0719417e-01
-3.3614238e-01
-3.4789325e-01
-3.4447886e-01
-3.3126848e-01
-3.0069542e-01
-2.5592872e-01
-2.0291240e-01
-1.5229539e-01
-1.1769778e-01
-9.0804929e-02
-6.6400968e-02
-3.9497544e-02
-1.1463986e-02
7.1918887e-03
2.1792663e-02
3.3817132e-02
4.6560123e-02
5.7496686e-02
5.4250386e-02
4.4262650e-02
3.7241407e-02
4.1254335e-02
5.3275747e-02
5.9164702e-02
5.6930337e-02
4.3873617e-02
2.4613912e-02
-1.0068260e-03
-3.9196195e-02
-8.2631290e-02
-1.2820794e-01
-1.6582546e-01
-1.9126134e-01
-2.1195438e-01
-2.2787346e-01
-2.4056777e-01
-2.4062461e-01
-2.2550247e-01
-2.0321403e-01
-1.7563586e-01
-1.4769721e-01
-1.1197581e-01
-6.7844616e-02
-2.2324419e-02
2.0929680e-02
4.9207759e-02
6.9091540e-02
8.8134940e-02
1.0447394e-01
1.1923328e-01
1.2590769e-01
1.3101523e-01
1.3839104e-01
1.4553093e-01
1.5228917e-01
1.4862955e-01
1.3764290e-01
1.2258669e-01
1.0295016e-01
8.1986562e-02
5.5107478e-02
2.7181256e-02
5.1831051e-04
-2.2522160e-02
-3.7506556e-02
-5.0728155e-02
-5.8897125e-02
-6.0074088e-02
-5.1547162e-02
-3.1765929e-02
-1.0088438e-02
1.5134920e-02
4.2998512e-02
7.3994376e-02
1.0824476e-01
1.3614178e-01
1.5915079e-01
1.7599795e-01
1.8990421e-01
2.0515091e-01
2.1695609e-01
2.2931944e-01
2.3881965e-01
2.4588555e-01
2.5206418e-01
2.5112660e-01
2.4714400e-01
2.3465228e-01
2.1346417e-01
1.8691603e-01
1.4854284e-01
1.0158647e-01
3.9664891e-02
-4.1630966e-02
-1.3146306e-01
-2.1296849e-01
-2.7089335e-01
-3.0897575e-01
-3.2748942e-01
-3.2695791e-01
-3.1541866e-01
-2.9252957e-01
-2.6597034e-01
-2.3936510e-01
-2.1445999e-01
-1.9605914e-01
-1.7949103e-01
-1.6806820e-01
-1.5945877e-01
-1.5011554e-01
-1.4122026e-01
-1.2590809e-01
-1.0660648e-01
-8.3285839e-02
-6.0702074e-02
-4.7293210e-02
-3.5873432e-02
-2.1769043e-02
5.2802682e-03
3.8340261e-02
5.4965324e-02
5.6420987e-02
4.8594421e-02
3.9553062e-02
2.8733479e-02
1.3711998e-02
4.2317988e-03
6.8219435e-04
7.1157257e-03
1.9974313e-02
3.1416896e-02
4.4074360e-02
5.4409619e-02
6.8331749e-02
8.5673290e-02
9.8318445e-02
1.0706067e-01
1.0956948e-01
1.1443762e-01
1.2319919e-01
1.2790931e-01
1.2816555e-01
1.2166941e-01
1.1337423e-01
1.0122058e-01
8.2630256e-02
6.1331105e-02
3.4814941e-02
1.0725954e-02
-1.0590947e-02
-3.4862424e-02
-6.2249538e-02
-9.4317502e-02
-1.2056762e-01
-1.3761835e-01
-1.4780545e-01
-1.5323702e-01
-1.5802363e-01
-1.4981469e-01
-1.2694445e-01
-9.6352873e-02
-6.4959789e-02
-4.2742959e-02
-2.1562237e-02
1.3959947e-03
2.4274200e-02
4.2958298e-02
4.8415164e-02
4.9654802e-02
5.0217785e-02
5.1871130e-02
5.4653918e-02
5.0708447e-02
4.9062243e-02
5.2137612e-02
5.7725949e-02
6.0790683e-02
4.7260689e-02
1.8953703e-02
-2.0996055e-02
-6.6178321e-02
-1.1454234e-01
-1.7333784e-01
-2.3417682e-01
-2.9139605e-01
-3.3821958e-01
-3.7028599e-01
-3.9302964e-01
-4.0199256e-01
-3.9397460e-01
-3.6078676e-01
-2.9952972e-01
-2.1595182e-01
-1.0442513e-01
1.8948193e-02
1.2687137e-01
2.0691792e-01
2.5639245e-01
2.8414510e-01
2.9643329e-01
3.0706922e-01
3.2135296e-01
3.3029418e-01
3.3460170e-01
3.3298794e-01
3.3258812e-01
3.3508721e-01
3.3406852e-01
3.3068713e-01
3.1667962e-01
2.9559607e-01
2.7230158e-01
2.4217961e-01
2.0686881e-01
1.6156301e-01
1.1221831e-01
6.1693807e-02
2.3235862e-03
-6.8373318e-02
-1.4649432e-01
-2.0380604e-01
-2.2958785e-01
-2.3578637e-01
-2.2487041e-01
-2.0495451e-01
-1.7730842e-01
-1.4318324e-01
-1.0593324e-01
-6.4159699e-02
-2.5565769e-02
1.0388404e-02
4.3106149e-02
7.0819388e-02
9.8281365e-02
1.2161646e-01
1.4390020e-01
1.6340105e-01
1.7474927e-01
1.7842957e-01
1.6905897e-01
1.5066170e-01
1.2214593e-01
8.1267673e-02
3.1432363e-02
-2.7239366e-02
-8.0699218e-02
-1.2679483e-01
-1.6863968e-01
-2.0019243e-01
-2.2226661e-01
-2.2843269e-01
-2.2113696e-01
-2.0443279e-01
-1.7649494e-01
-1.4488172e-01
-1.0887589e-01
-7.4054357e-02
-4.6071839e-02
-2.2073976e-02
-3.0674826e-03
1.8943479e-02
4.1268570e-02
5.8731447e-02
7.3048553e-02
8.1752757e-02
9.1917907e-02
1.0029497e-01
1.0057189e-01
9.1653239e-02
7.0630263e-02
4.6773149e-02
2.1406845e-02
-5.7455642e-03
-3.4873304e-02
-7.0159842e-02
-1.0203921e-01
-1.2973819e-01
-1.5425625e-01
-1.7676036e-01
-2.0168046e-01
-2.1917933e-01
-2.2741647e-01
-2.2639173e-01
-2.2145272e-01
-2.2097745e-01
-2.1482521e-01
-2.0202015e-01
-1.8281359e-01
-1.5979005e-01
-1.4004885e-01
-1.1333919e-01
-7.4865270e-02
-1.7598590e-02
6.2315658e-02
1.4655514e-01
2.1799648e-01
2.6914533e-01
3.0728211e-01
3.3101530e-01
3.2947078e-01
3.1097100e-01
2.8327479e-01
2.5658520e-01
2.3298274e-01
2.0302990e-01
1.7246851e-01
1.4625647e-01
1.3173418e-01
1.2790796e-01
1.2559549e-01
1.2777312e-01
1.3350553e-01
1.4886479e-01
1.7209835e-01
1.8859394e-01
1.9283055e-01
1.7763203e-01
1.4736436e-01
1.0055142e-01
3.7584297e-02
-1.9372093e-02
-6.3889756e-02
-9.0573205e-02
-9.9096702e-02
-9.8893632e-02
-9.2637832e-02
-8.7501734e-02
-7.7447939e-02
-6.2097493e-02
-5.1185360e-02
-4.6625744e-02
-5.4957429e-02
-6.8810792e-02
-8.3127757e-02
-1.0076492e-01
-1.1925716e-01
-1.4388650e-01
-1.6571943e-01
-1.7658010e-01
-1.7824930e-01
-1.7025529e-01
-1.6063317e-01
-1.4587600e-01
-1.2314469e-01
-9.6141374e-02
-6.5946387e-02
-4.1578921e-02
-2.0672796e-02
-1.5672601e-03
1.3767556e-02
2.6574723e-02
2.9789842e-02
2.6582753e-02
2.0333553e-02
1.3361974e-02
7.8856829e-03
-3.9011287e-03
-2.0328759e-02
-4.3254921e-02
-7.4466960e-02
-1.1181633e-01
-1.5839590e-01
-2.0420854e-01
-2.4595647e-01
-2.8160821e-01
-3.0446950e-01
-3.1544252e-01
-3.0364724e-01
-2.6317143e-01
-2.0366150e-01
-1.4774938e-01
-1.0966963e-01
-7.7315058e-02
-4.9253988e-02
-2.6035486e-02
-4.0969628e-03
1.1897978e-02
2.8414622e-02
4.3760261e-02
5.4380761e-02
6.2406838e-02
6.4660485e-02
6.9932280e-02
7.8655057e-02
8.8077627e-02
9.9267576e-02
1.0762204e-01
1.1904214e-01
1.3126317e-01
1.3934877e-01
1.4137884e-01
1.3485846e-01
1.3033721e-01
1.3073511e-01
1.3445543e-01
1.3503283e-01
1.2681419e-01
1.2083365e-01
1.1878566e-01
1.2068327e-01
1.2404457e-01
1.2435196e-01
1.3228870e-01
1.4935167e-01
1.7391548e-01
1.9911199e-01
2.1639145e-01
2.3501815e-01
2.5572566e-01
2.7872188e-01
2.9988373e-01
3.1033313e-01
3.1800569e-01
3.2275487e-01
3.2402135e-01
3.1494829e-01
2.7962252e-01
2.1686913e-01
1.2053604e-01
7.2434066e-03
-9.3304170e-02
-1.8033460e-01
-2.5419972e-01
-3.1487172e-01
-3.5900308e-01
-3.9075621e-01
-4.2178740e-01
-4.4626329e-01
-4.6098677e-01
-4.6198606e-01
-4.5220130e-01
-4.4244686e-01
-4.3188716e-01
-4.1997689e-01
-3.9871521e-01
-3.7011042e-01
-3.4566689e-01
-3.2313464e-01
-3.0074672e-01
-2.6702626e-01
-2.1769446e-01
-1.5900439e-01
-8.5907983e-02
6.1780048e-03
1.1383361e-01
2.0974038e-01
2.7539748e-01
3.1606932e-01
3.3268012e-01
3.3682110e-01
3.3163924e-01
3.1250563e-01
2.8325137e-01
2.4090833e-01
1.9541036e-01
1.5330057e-01
1.1184665e-01
7.3269421e-02
3.2046485e-02
-5.3341000e-03
-3.3869568e-02
-5.5105728e-02
-6.6395350e-02
-7.3515876e-02
-7.1050837e-02
-5.7607292e-02
-4.0836798e-02
-2.2710824e-02
-1.0412377e-02
4.7466762e-05
1.2267513e-02
2.6318165e-02
4.5666286e-02
6.4911697e-02
8.6578550e-02
1.0953422e-01
1.3123622e-01
1.5394527e-01
1.7072477e-01
1.8343782e-01
1.9141112e-01
1.9312751e-01
1.8980659e-01
1.7548270e-01
1.5521683e-01
1.2902727e-01
9.7596309e-02
6.5804702e-02
3.0529526e-02
-1.4042514e-03
-3.0082558e-02
-5.5081142e-02
-7.3202468e-02
-9.1938793e-02
-1.0492829e-01
-1.0904351e-01
-1.0602795e-01
-9.6979990e-02
-8.9263213e-02
-7.9126156e-02
-7.0363195e-02
-6.4823041e-02
-5.9127687e-02
-5.7142296e-02
-5.0640199e-02
-4.0774453e-02
-3.1175326e-02
-1.9277020e-02
-6.2247385e-03
1.7591290e-02
5.0011015e-02
8.2504730e-02
1.0915462e-01
1.2105950e-01
1.2152959e-01
1.0790953e-01
8.0525531e-02
4.4869219e-02
2.4518214e-03
-3.6007516e-02
-7.0264517e-02
-1.0084622e-01
-1.2940714e-01
-1.6045280e-01
-1.8239034e-01
-1.9222959e-01
-1.8907857e-01
-1.7594907e-01
-1.6118837e-01
-1.4076177e-01
-1.1964505e-01
-1.0025822e-01
-8.7066271e-02
-8.7356352e-02
-9.2136951e-02
-9.9599520e-02
-1.0322196e-01
-1.0207194e-01
-1.0522939e-01
-1.0472727e-01
-9.7737903e-02
-7.7668689e-02
-4.1496876e-02
3.3356903e-03
5.6486624e-02
1.0682213e-01
1.5178587e-01
1.8582844e-01
1.9261593e-01
1.7490251e-01
1.3788442e-01
9.3701691e-02
4.9794620e-02
4.3454442e-03
-3.4519259e-02
-6.6127858e-02
-8.6783462e-02
-9.8755344e-02
-1.1265339e-01
-1.2600975e-01
-1.3535397e-01
-1.2841851e-01
-1.0195573e-01
-6.7324130e-02
-3.1244081e-02
-3.1196947e-03
2.0566290e-02
3.9773438e-02
4.7845415e-02
4.9257383e-02
4.6621995e-02
5.2899077e-02
7.0794537e-02
9.1255483e-02
1.1330071e-01
1.3015414e-01
1.4698305e-01
1.6644154e-01
1.8471428e-01
2.0349289e-01
2.1374874e-01
2.1768628e-01
2.1516483e-01
1.9825826e-01
1.6681378e-01
1.1659443e-01
6.0182176e-02
1.0345737e-02
-3.0871634e-02
-6.1409094e-02
-8.8091977e-02
-1.0561228e-01
-1.1189522e-01
-1.1112001e-01
-1.0254821e-01
-9.4226574e-02
-8.3510143e-02
-6.8467918e-02
-5.1319418e-02
-3.0918476e-02
-1.5091359e-02
-2.8334521e-03
5.9345250e-03
1.1676445e-02
1.9223113e-02
2.4024981e-02
3.0922021e-02
4.2899690e-02
6.0805689e-02
8.5577510e-02
1.0864408e-01
1.3027789e-01
1.4552225e-01
1.5100542e-01
1.4882921e-01
1.3470403e-01
1.1453368e-01
8.5932192e-02
4.8495608e-02
8.7475669e-03
-3.4670106e-02
-7.2449648e-02
-1.0350370e-01
-1.2758831e-01
-1.3988150e-01
-1.4338861e-01
-1.3154064e-01
-1.0849972e-01
-8.2570581e-02
-5.6251783e-02
-3.3265000e-02
-6.2185840e-03
2.2091335e-02
4.6566455e-02
6.5842105e-02
7.6337221e-02
8.6599591e-02
9.5219767e-02
1.0011222e-01
1.0378346e-01
1.0420202e-01
1.0879194e-01
1.1307507e-01
1.0787315e-01
9.1996535e-02
6.9279370e-02
4.9271183e-02
2.8640216e-02
6.1910642e-03
-2.0335906e-02
-5.5557551e-02
-8.9011636e-02
-1.1894938e-01
-1.4356120e-01
-1.6317704e-01
-1.8208552e-01
-1.8882968e-01
-1.8124822e-01
-1.6044637e-01
-1.3146657e-01
-1.0353415e-01
-7.1635202e-02
-3.8538772e-02
-5.1361350e-03
2.5026774e-02
4.3184045e-02
5.6991221e-02
6.9763279e-02
8.6821388e-02
1.0612190e-01
1.1640446e-01
1.2369053e-01
1.3185457e-01
1.4655987e-01
1.6499582e-01
1.7375780e-01
1.7360547e-01
1.6342043e-01
1.4684371e-01
1.2271695e-01
8.3465969e-02
3.3762745e-02
-2.4176193e-02
-7.9679627e-02
-1.2988015e-01
-1.8311225e-01
-2.3580558e-01
-2.8475580e-01
-3.1740990e-01
-3.2800493e-01
-3.2233750e-01
-3.0138956e-01
-2.6913854e-01
-2.1704023e-01
-1.5084867e-01
-9.3429472e-02
-5.1040761e-02
-2.4296449e-02
-2.3141841e-03
1.9172921e-02
3.6470458e-02
5.1233553e-02
5.8325920e-02
6.8286701e-02
8.8175785e-02
1.1309620e-01
1.4048278e-01
1.5997353e-01
1.7501158e-01
1.8693047e-01
1.8994604e-01
1.8311787e-01
1.5966969e-01
1.2791702e-01
9.5191166e-02
6.1472112e-02
2.9368490e-02
-5.4340450e-03
-3.8393008e-02
-6.4891886e-02
-7.7755514e-02
-7.2057452e-02
-5.6358651e-02
-2.8334968e-02
1.0555341e-02
5.6885132e-02
1.0878805e-01
1.5543329e-01
1.9676783e-01
2.3110455e-01
2.5875238e-01
2.8178253e-01
2.9503758e-01
3.0478718e-01
3.1282612e-01
3.2194141e-01
3.3237539e-01
3.3524662e-01
3.3296295e-01
3.1836179e-01
2.8831171e-01
2.4585491e-01
1.8514279e-01
1.0848170e-01
2.0704674e-02
-5.9522884e-02
-1.2236431e-01
-1.7786994e-01
-2.2483662e-01
-2.6654971e-01
-3.0147864e-01
-3.2578458e-01
-3.4435857e-01
-3.5279611e-01
-3.5524825e-01
-3.5472132e-01
-3.5107380e-01
-3.4921887e-01
-3.4386392e-01
-3.3631832e-01
-3.2590109e-01
-3.1145011e-01
-2.9614252e-01
-2.7372198e-01
-2.4695731e-01
-2.1534809e-01
-1.7820828e-01
-1.3901582e-01
-8.6951257e-02
-2.8029088e-02
2.0861992e-02
5.1238740e-02
6.2719715e-02
6.5970265e-02
6.4226616e-02
6.3753840e-02
6.3930259e-02
5.9248103e-02
5.7897450e-02
5.9296463e-02
6.5564487e-02
7.2706485e-02
7.1770889e-02
6.8369740e-02
6.4171471e-02
6.6543749e-02
7.3454151e-02
7.5890231e-02
7.8502379e-02
8.0520380e-02
8.7451518e-02
9.7526758e-02
1.0059710e-01
1.0060455e-01
1.0002716e-01
1.0468296e-01
1.0898881e-01
9.9771434e-02
7.8639169e-02
4.8506400e-02
2.1248289e-02
8.3973558e-04
-1.9268984e-02
-4.0159529e-02
-6.4395212e-02
-8.3023694e-02
-9.4532355e-02
-1.0483768e-01
-1.1404748e-01
-1.2480651e-01
-1.2635933e-01
-1.1445020e-01
-9.3957975e-02
-6.8545602e-02
-4.4466241e-02
-1.4263358e-02
1.9523003e-02
4.7682029e-02
6.6621149e-02
7.1214321e-02
7.1941980e-02
7.4995326e-02
8.0674888e-02
8.5083171e-02
7.8489527e-02
6.8816249e-02
5.8758850e-02
4.8466065e-02
3.7255595e-02
1.7049427e-02
-3.3493356e-03
-1.9731181e-02
-3.1407540e-02
-4.1079831e-02
-5.9696027e-02
-7.9823130e-02
-9.4885752e-02
-9.9639875e-02
-9.2633394e-02
-8.3449969e-02
-6.9899526e-02
-5.2377340e-02
-3.0932159e-02
-9.6135223e-03
1.4598263e-03
6.9287682e-03
9.0137831e-03
1.2321855e-02
1.6930385e-02
1.5979770e-02
1.2917423e-02
6.4904947e-03
2.3872221e-03
1.3171448e-03
-5.0089596e-03
-1.4091347e-02
-2.7626311e-02
-3.8594592e-02
-4.5029392e-02
-5.4198363e-02
-6.3913643e-02
-7.8784866e-02
-9.2478817e-02
-9.9857135e-02
-1.0558401e-01
-1.0712004e-01
-1.0872621e-01
-1.0442956e-01
-9.0153597e-02
-7.1640282e-02
-5.0313453e-02
-3.4229189e-02
-1.8053201e-02
1.4256731e-03
1.8269252e-02
3.4063933e-02
4.4481655e-02
5.4671677e-02
6.7095520e-02
7.8744728e-02
9.2236537e-02
1.0067710e-01
1.0427069e-01
1.0178029e-01
9.1708058e-02
7.7846616e-02
5.4119652e-02
2.4425056e-02
-7.3089835e-03
-3.8844430e-02
-6.5370751e-02
-8.8923396e-02
-1.0257539e-01
-1.0531998e-01
-9.9084487e-02
-8.5360534e-02
-7.1136769e-02
-5.1467062e-02
-2.9004203e-02
-6.3026048e-03
1.8499602e-02
3.9848948e-02
6.1490195e-02
7.9726507e-02
9.4601354e-02
1.1211612e-01
1.2837585e-01
1.4663613e-01
1.6241920e-01
1.7329678e-01
1.8225389e-01
1.8605521e-01
1.8857663e-01
1.8294801e-01
1.6392409e-01
1.3369553e-01
9.2473989e-02
5.0022037e-02
6.6150644e-03
-3.4235137e-02
-6.5451620e-02
-8.7586798e-02
-9.3620091e-02
-8.7842652e-02
-7.5776638e-02
-5.9429313e-02
-4.0846266e-02
-1.2283337e-02
2.3852059e-02
6.6149075e-02
1.0890532e-01
1.4442320e-01
1.7984147e-01
2.1281044e-01
2.4357499e-01
2.6936253e-01
2.8473883e-01
2.9879938e-01
3.1256035e-01
3.2752030e-01
3.3522878e-01
3.1942176e-01
2.7500347e-01
1.9035958e-01
8.0583485e-02
-2.4489942e-02
-1.1797044e-01
-1.9810642e-01
-2.6674476e-01
-3.1629092e-01
-3.4533005e-01
-3.6173346e-01
-3.6484783e-01
-3.5698729e-01
-3.3207309e-01
-2.9374448e-01
-2.5443341e-01
-2.1699784e-01
-1.8617018e-01
-1.5716957e-01
-1.3017123e-01
-1.0872474e-01
-8.9624575e-02
-7.3656497e-02
-5.2879539e-02
-2.8880259e-02
-9.2849357e-03
3.4859555e-03
6.3069371e-03
1.0622989e-02
2.0889026e-02
3.4750998e-02
4.7626856e-02
4.9788347e-02
4.5692250e-02
3.2804775e-02
6.5600433e-03
-3.5404146e-02
-9.5112663e-02
-1.5722167e-01
-2.1507231e-01
-2.6510503e-01
-3.0750510e-01
-3.5011521e-01
-3.8361219e-01
-4.0262114e-01
-4.0411464e-01
-3.9037812e-01
-3.7188284e-01
-3.4335575e-01
-3.0167810e-01
-2.4099350e-01
-1.5835826e-01
-5.8407906e-02
5.2555145e-02
1.4895716e-01
2.2402292e-01
2.8183379e-01
3.1851134e-01
3.4362101e-01
3.6221535e-01
3.8271243e-01
4.0733669e-01
4.2738891e-01
4.4322958e-01
4.5315900e-01
4.6206394e-01
4.6720866e-01
4.5822426e-01
4.3490163e-01
3.9651796e-01
3.5495198e-01
3.1503266e-01
2.7113190e-01
2.2321653e-01
1.6583580e-01
1.0344567e-01
3.2110340e-02
-6.1599430e-02
-1.6479535e-01
-2.4955884e-01
-2.9678213e-01
-3.1220088e-01
-3.0808382e-01
-2.9107017e-01
-2.7163622e-01
-2.4650741e-01
-2.1595873e-01
-1.8489360e-01
-1.5461288e-01
-1.3301290e-01
-1.1282556e-01
-9.0137382e-02
-6.6389143e-02
-3.9721257e-02
-1.6578948e-02
4.9312211e-03
2.3222583e-02
3.6808816e-02
4.4907679e-02
3.9505503e-02
2.4829975e-02
5.1202960e-03
-1.1114163e-02
-2.0947454e-02
-3.5363683e-02
-5.2783094e-02
-7.0557235e-02
-7.9572045e-02
-7.6272892e-02
-7.0532322e-02
-5.9599820e-02
-4.3376588e-02
-1.9802987e-02
8.5753403e-03
3.3018045e-02
5.5920291e-02
7.1300493e-02
8.1625821e-02
9.1439052e-02
9.6091783e-02
9.9410304e-02
9.8359968e-02
9.7583337e-02
1.0050064e-01
1.0149621e-01
1.0420202e-01
1.0485451e-01
1.0604016e-01
1.0906693e-01
1.0793728e-01
1.0335327e-01
8.7975078e-02
6.3472740e-02
3.2256465e-02
-6.9872320e-03
-4.7657886e-02
-9.1916053e-02
-1.3492582e-01
-1.7245725e-01
-2.0487354e-01
-2.2798759e-01
-2.4419411e-01
-2.4866725e-01
-2.4265385e-01
-2.3071051e-01
-2.1301796e-01
-1.9704783e-01
-1.7924644e-01
-1.6045029e-01
-1.4329804e-01
-1.2484610e-01
-1.0954105e-01
-9.2286241e-02
-7.4382277e-02
-5.8806722e-02
-4.2072420e-02
-2.5570093e-02
-1.1851701e-03
2.8188994e-02
5.7333333e-02
8.7885455e-02
1.1565473e-01
1.4593658e-01
1.7578684e-01
2.0097442e-01
2.1947426e-01
2.2239544e-01
2.1315576e-01
1.9009527e-01
1.5295849e-01
1.0690378e-01
5.4427631e-02
7.7032435e-03
-3.1529629e-02
-6.2267829e-02
-8.2247500e-02
-9.4666889e-02
-9.3802616e-02
-8.3026152e-02
-6.5769214e-02
-4.5564012e-02
-2.7383768e-02
-5.5043652e-03
1.7158780e-02
4.0398854e-02
5.9924547e-02
6.8489277e-02
7.5442784e-02
8.5292489e-02
1.0308559e-01
1.2598783e-01
1.4851806e-01
1.7683610e-01
2.0717502e-01
2.4088391e-01
2.7516074e-01
3.0420239e-01
3.3358492e-01
3.5981670e-01
3.8085944e-01
3.8270460e-01
3.4544176e-01
2.6356420e-01
1.4689955e-01
3.4824172e-02
-5.5873002e-02
-1.3441925e-01
-1.9953688e-01
-2.5239949e-01
-2.8772155e-01
-3.0886043e-01
-3.2332114e-01
-3.3004717e-01
-3.3208129e-01
-3.2269414e-01
-3.0355360e-01
-2.8362627e-01
-2.6680742e-01
-2.5764664e-01
-2.4866311e-01
-2.3979644e-01
-2.3546772e-01
-2.3804305e-01
-2.4804090e-01
-2.4975578e-01
-2.3607076e-01
-2.0343296e-01
-1.4914409e-01
-8.4718047e-02
-1.9525430e-02
3.8102223e-02
8.8537597e-02
1.2952494e-01
1.5344776e-01
1.6773541e-01
1.7312050e-01
1.7038296e-01
1.5788067e-01
1.2820039e-01
8.9266180e-02
4.5023352e-02
2.3405517e-03
-3.6432237e-02
-7.7772151e-02
-1.1239067e-01
-1.3471838e-01
-1.3995706e-01
-1.3097144e-01
-1.1916155e-01
-1.0203752e-01
-8.0013456e-02
-4.9077966e-02
-9.6301741e-03
2.7565413e-02
5.7698114e-02
7.5416879e-02
9.0278332e-02
1.0712952e-01
1.1880708e-01
1.2609845e-01
1.2814144e-01
1.3546459e-01
1.5176985e-01
1.6984696e-01
1.8825492e-01
2.0212667e-01
2.1765921e-01
2.3274908e-01
2.3606019e-01
2.2347593e-01
1.9062816e-01
1.4947603e-01
1.0758700e-01
6.4561872e-02
2.1588730e-02
-2.6574855e-02
-7.0177618e-02
-1.0376873e-01
-1.2834364e-01
-1.4232723e-01
-1.5208473e-01
-1.5089357e-01
-1.3466195e-01
-1.0637132e-01
-7.2906987e-02
-4.8499317e-02
-2.9665436e-02
-1.3173716e-02
2.2871656e-03
1.7978693e-02
2.6863645e-02
3.3324167e-02
4.0272879e-02
5.2382735e-02
7.1414539e-02
8.8903513e-02
1.0578843e-01
1.2032352e-01
1.3525194e-01
1.4855118e-01
1.4898985e-01
1.3730403e-01
1.1171289e-01
7.9189816e-02
4.4246573e-02
2.1811792e-03
-3.9703438e-02
-7.8592182e-02
-1.0619022e-01
-1.1982220e-01
-1.2683153e-01
-1.2472704e-01
-1.1935152e-01
-1.0780532e-01
-8.6353490e-02
-6.1184938e-02
-3.1515598e-02
-4.5968291e-03
2.0711238e-02
4.7142073e-02
7.1278254e-02
9.3980775e-02
1.0670980e-01
1.1322120e-01
1.1848087e-01
1.1736807e-01
1.0876822e-01
8.3726500e-02
4.8570840e-02
1.6738250e-02
-1.1206566e-02
-3.5652881e-02
-6.2182030e-02
-8.8659480e-02
-1.1384044e-01
-1.3590295e-01
-1.4890916e-01
-1.5944138e-01
-1.6997740e-01
-1.8435998e-01
-2.0161692e-01
-2.1488867e-01
-2.2523605e-01
-2.2694005e-01
-2.2174254e-01
-2.1089511e-01
-1.9245899e-01
-1.7207638e-01
-1.4603405e-01
-1.1981703e-01
-9.6652279e-02
-7.2415897e-02
-4.8358979e-02
-2.0239876e-02
2.7980569e-03
2.0087984e-02
3.8889080e-02
5.5119290e-02
7.2938768e-02
8.7968910e-02
9.6655405e-02
9.7779701e-02
8.5000350e-02
6.2805853e-02
2.9530807e-02
-1.1822262e-02
-5.7083527e-02
-1.0833097e-01
-1.5747044e-01
-2.0482667e-01
-2.4739054e-01
-2.8017640e-01
-3.0177705e-01
-3.0247888e-01
-2.8297291e-01
-2.4054381e-01
-1.7433691e-01
-8.6561021e-02
1.7390085e-02
1.0910532e-01
1.7962216e-01
2.3089485e-01
2.6113207e-01
2.8066755e-01
2.9149302e-01
2.9801499e-01
2.9836921e-01
2.8905021e-01
2.7930964e-01
2.7051173e-01
2.6760732e-01
2.6624230e-01
2.5773560e-01
2.4436102e-01
2.2257348e-01
1.9856191e-01
1.7162652e-01
1.3519041e-01
9.3153222e-02
4.5726838e-02
2.5218765e-03
-3.5303057e-02
-7.2383957e-02
-1.0501060e-01
-1.3274116e-01
-1.4422713e-01
-1.3950558e-01
-1.2823497e-01
-1.1305733e-01
-9.8252947e-02
-7.8735886e-02
-5.6344566e-02
-3.6046462e-02
-2.1726056e-02
-1.8551168e-02
-1.4582975e-02
-5.8372701e-03
4.1217624e-03
1.0171548e-02
5.4907420e-03
2.0332905e-04
-1.5420390e-03
6.8329268e-04
2.0391001e-03
-6.3879127e-03
-1.5320288e-02
-2.2656699e-02
-2.7362762e-02
-3.2478844e-02
-4.7571307e-02
-6.4142865e-02
-7.8844083e-02
-8.7840410e-02
-9.1731159e-02
-9.9585550e-02
-1.0467079e-01
-1.0356562e-01
-9.0499946e-02
-6.8059209e-02
-5.0531798e-02
-3.5175473e-02
-1.9534124e-02
1.9732934e-03
2.7999666e-02
4.8113519e-02
6.5360308e-02
8.0890543e-02
1.0072395e-01
1.2467128e-01
1.4331808e-01
1.5611448e-01
1.6198386e-01
1.6888798e-01
1.7552662e-01
1.7177078e-01
1.5597765e-01
1.2538028e-01
9.2607842e-02
6.4237583e-02
3.5272875e-02
4.8401508e-03
-2.9632663e-02
-5.6476769e-02
-7.1455210e-02
-7.9800789e-02
-8.4003987e-02
-9.0784212e-02
-9.2143777e-02
-8.4924559e-02
-7.2140223e-02
-5.5478993e-02
-4.4460659e-02
-3.3464549e-02
-1.8989279e-02
-2.8731555e-03
1.2568078e-02
1.7491137e-02
1.8063126e-02
1.9670352e-02
2.3761843e-02
3.0098124e-02
2.9427527e-02
2.4669961e-02
1.6742540e-02
6.2723930e-03
-6.7217190e-03
-3.0316773e-02
-6.0710402e-02
-9.5202500e-02
-1.2663640e-01
-1.4891038e-01
-1.6581096e-01
-1.7239124e-01
-1.6935321e-01
-1.5467811e-01
-1.3176735e-01
-1.1461018e-01
-1.0287593e-01
-9.4630642e-02
-7.9196796e-02
-4.8149437e-02
-2.7960013e-03
6.0371708e-02
1.2763506e-01
1.8669713e-01
2.3201824e-01
2.5811230e-01
2.7191082e-01
2.7384186e-01
2.7151925e-01
2.6982296e-01
2.6346636e-01
2.5607210e-01
2.4364680e-01
2.3138004e-01
2.2317786e-01
2.1224930e-01
1.9831482e-01
1.7330413e-01
1.4067376e-01
1.0818023e-01
7.8178659e-02
5.8044683e-02
4.2985220e-02
2.9371096e-02
9.0796573e-03
-3.0538485e-02
-9.8041239e-02
-1.8973905e-01
-2.7030531e-01
-3.2385296e-01
-3.5574886e-01
-3.6628203e-01
-3.6282851e-01
-3.4279580e-01
-3.0764477e-01
-2.6252545e-01
-2.1050244e-01
-1.6102946e-01
-1.1316111e-01
-7.2075564e-02
-4.1839375e-02
-2.1473026e-02
-1.7008979e-02
-2.3552745e-02
-4.3060021e-02
-7.3617213e-02
-1.0572835e-01
-1.3834709e-01
-1.6087199e-01
-1.7089830e-01
-1.6344241e-01
-1.2600514e-01
-6.9366367e-02
-1.0635091e-02
3.8498296e-02
7.7356077e-02
1.0692560e-01
1.2505814e-01
1.4161866e-01
1.5687439e-01
1.6905565e-01
1.7853825e-01
1.8251120e-01
1.8828514e-01
1.9359813e-01
1.9774240e-01
2.0248741e-01
2.0551026e-01
2.1349124e-01
2.2282246e-01
2.3036569e-01
2.3005996e-01
2.1261527e-01
1.8324357e-01
1.4160053e-01
9.0461404e-02
2.7119983e-02
-4.8180171e-02
-1.1530385e-01
-1.6866990e-01
-2.0649660e-01
-2.3372057e-01
-2.5759876e-01
-2.7097314e-01
-2.7518706e-01
-2.6690436e-01
-2.4928296e-01
-2.3124511e-01
-2.0907910e-01
-1.8546276e-01
-1.5714640e-01
-1.2814781e-01
-1.0854277e-01
-9.3980053e-02
-8.2040841e-02
-6.3768257e-02
-3.8816560e-02
-1.4750734e-02
1.0212865e-02
3.6366328e-02
7.3253787e-02
1.2001555e-01
1.6200160e-01
1.8961209e-01
1.9832310e-01
1.9941389e-01
1.9664201e-01
1.8666242e-01
1.6880225e-01
1.4035697e-01
1.1367601e-01
9.4026157e-02
8.0269825e-02
7.1684402e-02
6.5684965e-02
7.4283502e-02
9.6452620e-02
1.2434479e-01
1.5108669e-01
1.6718187e-01
1.8140393e-01
1.9477564e-01
2.0435488e-01
2.0531859e-01
1.8447248e-01
1.4400120e-01
8.1711218e-02
9.5500248e-03
-4.8862266e-02
-9.4305712e-02
-1.2660321e-01
-1.4656987e-01
-1.5488272e-01
-1.5945718e-01
-1.7690208e-01
-2.0361456e-01
-2.3582920e-01
-2.6866781e-01
-3.0232912e-01
-3.4464380e-01
-3.8782217e-01
-4.2694883e-01
-4.5369816e-01
-4.6568785e-01
-4.7154851e-01
-4.6867176e-01
-4.5517483e-01
-4.2126717e-01
-3.6397536e-01
-2.9099378e-01
-2.0003662e-01
-8.8230831e-02
3.9852246e-02
1.5362248e-01
2.3274384e-01
2.8502149e-01
3.1422679e-01
3.3464098e-01
3.5238481e-01
3.6259156e-01
3.6668514e-01
3.5773792e-01
3.4115188e-01
3.2188560e-01
2.9793818e-01
2.7174378e-01
2.3732359e-01
2.0249133e-01
1.7284758e-01
1.4527193e-01
1.1903250e-01
8.4863054e-02
5.0436092e-02
2.3025479e-02
-5.6764592e-05
-2.0410629e-02
-4.8917662e-02
-7.6171990e-02
-8.7481430e-02
-8.3672685e-02
-6.9743797e-02
-5.5859553e-02
-4.0512285e-02
-2.2434428e-02
-2.9825657e-04
2.7025247e-02
5.1136664e-02
7.6024151e-02
1.0186532e-01
1.2694760e-01
1.4948749e-01
1.5967405e-01
1.5965643e-01
1.4795097e-01
1.2752156e-01
1.0347919e-01
7.0502804e-02
3.3971697e-02
-6.1666324e-03
-4.8388364e-02
-8.9962115e-02
-1.3530098e-01
-1.7401570e-01
-2.0043235e-01
-2.1139225e-01
-2.0693424e-01
-1.9450696e-01
-1.7200884e-01
-1.4721737e-01
-1.2159397e-01
-9.2606848e-02
-6.6047110e-02
-3.6621664e-02
-7.1654786e-03
2.2260082e-02
5.2643053e-02
7.8909126e-02
1.0725691e-01
1.3547775e-01
1.6291951e-01
1.8835732e-01
2.0636359e-01
2.2041229e-01
2.2419752e-01
2.1505631e-01
1.9005478e-01
1.4455616e-01
9.0691966e-02
3.7510586e-02
-8.4369435e-03
-4.8605974e-02
-8.6166223e-02
-1.1490754e-01
-1.3585131e-01
-1.4365711e-01
-1.4135751e-01
-1.3657227e-01
-1.2475378e-01
-1.0991746e-01
-9.1315544e-02
-7.4617584e-02
-6.6731375e-02
-6.1098362e-02
-5.8314300e-02
-5.3777792e-02
-5.0648068e-02
-5.3939155e-02
-5.6862263e-02
-5.9853440e-02
-5.5673348e-02
-4.3750962e-02
-2.8703856e-02
-9.1163226e-03
7.9294747e-03
2.5014601e-02
3.8247833e-02
3.7163927e-02
2.1470830e-02
-7.5543827e-03
-3.8056103e-02
-6.7163565e-02
-9.7597812e-02
-1.2716416e-01
-1.5625431e-01
-1.7542975e-01
-1.8309678e-01
-1.8149091e-01
-1.7182025e-01
-1.5835825e-01
-1.3345683e-01
-9.9044504e-02
-6.1622335e-02
-2.8814996e-02
-7.9008276e-03
1.2622032e-02
3.4614757e-02
5.6585339e-02
7.6142183e-02
8.7248473e-02
1.0020844e-01
1.1764432e-01
1.4063006e-01
1.6641279e-01
1.8593759e-01
2.0648066e-01
2.2913289e-01
2.5334127e-01
2.7064461e-01
2.6411082e-01
2.3760450e-01
1.9600949e-01
1.4855609e-01
9.9543770e-02
4.3230822e-02
-1.0436608e-02
-5.4912819e-02
-8.3697922e-02
-9.8441369e-02
-1.1073117e-01
-1.1915309e-01
-1.2494246e-01
-1.2421403e-01
-1.1714406e-01
-1.1070958e-01
-1.0359325e-01
-9.8839451e-02
-8.9367638e-02
-7.4000461e-02
-6.1873692e-02
-5.3640047e-02
-5.1057569e-02
-4.2787182e-02
-2.5089919e-02
-5.8416262e-03
1.3246817e-02
2.7703309e-02
4.6293173e-02
6.8311389e-02
8.3285181e-02
8.9391204e-02
8.0684584e-02
6.6176971e-02
5.1510456e-02
3.3702413e-02
1.4130478e-02
-1.2258554e-02
-3.5333745e-02
-4.8550219e-02
-5.5608508e-02
-5.6992144e-02
-5.9218404e-02
-5.4624413e-02
-3.8982087e-02
-1.6473125e-02
9.7166004e-03
2.8682372e-02
4.3408376e-02
5.6308901e-02
6.7377449e-02
7.8412251e-02
8.2546023e-02
8.4299107e-02
8.5670916e-02
8.7900501e-02
9.3837563e-02
9.7866484e-02
1.0355679e-01
1.0960800e-01
1.1429000e-01
1.1462846e-01
9.9609420e-02
7.0646914e-02
2.9770738e-02
-1.4335073e-02
-5.6317703e-02
-1.0213716e-01
-1.4669187e-01
-1.9103770e-01
-2.2998149e-01
-2.5675916e-01
-2.7557949e-01
-2.8226963e-01
-2.8239549e-01
-2.7528624e-01
-2.5729728e-01
-2.3686750e-01
-2.1379678e-01
-1.9409571e-01
-1.7701067e-01
-1.5851182e-01
-1.4210522e-01
-1.2245313e-01
-1.0162282e-01
-7.4767635e-02
-3.6337078e-02
1.3816250e-02
8.7647593e-02
1.7411524e-01
2.5161802e-01
3.0990376e-01
3.4621473e-01
3.6754000e-01
3.7084688e-01
3.5742072e-01
3.3013463e-01
2.8948371e-01
2.4456211e-01
1.9610381e-01
1.4975326e-01
1.0766738e-01
6.8870733e-02
4.1255345e-02
2.3531189e-02
1.8500726e-02
2.2277668e-02
2.8493764e-02
3.9816039e-02
4.9051852e-02
5.5807448e-02
5.4193857e-02
3.6157590e-02
4.6464668e-03
-3.5781275e-02
-6.5648719e-02
-8.1859709e-02
-9.1529824e-02
-9.0566268e-02
-8.2338693e-02
-6.3233303e-02
-3.8511397e-02
-1.8547690e-02
-3.8330332e-03
1.5545941e-03
5.5200410e-03
8.7846623e-03
4.6720013e-03
-5.3394653e-03
-2.1756654e-02
-3.6477544e-02
-5.0064446e-02
-6.5777694e-02
-8.0082330e-02
-9.2766751e-02
-9.3965686e-02
-8.1833860e-02
-5.9782306e-02
-3.2926676e-02
-8.4955780e-03
2.0652813e-02
5.0732034e-02
7.5327619e-02
9.0295797e-02
8.9412880e-02
8.3387603e-02
7.7038989e-02
7.4750443e-02
7.5905316e-02
7.0061689e-02
6.3433683e-02
5.7280079e-02
5.1748597e-02
4.3417960e-02
2.3578213e-02
7.4899437e-04
-2.2957359e-02
-4.4417105e-02
-6.3494308e-02
-8.9419588e-02
-1.1691415e-01
-1.4241601e-01
-1.5762458e-01
-1.6107408e-01
-1.6305067e-01
-1.5917316e-01
-1.4783693e-01
-1.2532344e-01
-9.5714345e-02
-7.1288963e-02
-4.7988123e-02
-2.3509638e-02
8.9950785e-03
4.8591643e-02
8.3608220e-02
1.1474927e-01
1.4087755e-01
1.6866182e-01
1.9883014e-01
2.1968105e-01
2.2749384e-01
2.2014102e-01
2.0891465e-01
1.9647804e-01
1.7242580e-01
1.3649842e-01
8.7577305e-02
3.4825103e-02
-1.8824113e-02
-7.5017607e-02
-1.2412613e-01
-1.6615771e-01
-1.9369894e-01
-2.0360878e-01
-2.0139733e-01
-1.8921502e-01
-1.7682128e-01
-1.5865643e-01
-1.3165392e-01
-1.0194443e-01
-7.2188738e-02
-5.1512463e-02
-3.3219257e-02
-1.2676106e-02
7.3179481e-03
2.8202393e-02
4.3208190e-02
5.6858863e-02
7.1482043e-02
8.3704505e-02
9.2516915e-02
8.9508088e-02
7.6804877e-02
5.6290180e-02
3.1196473e-02
5.8999182e-03
-2.4852795e-02
-5.5530376e-02
-8.3965531e-02
-1.0822256e-01
-1.2600507e-01
-1.4340082e-01
-1.5451582e-01
-1.5793729e-01
-1.5189690e-01
-1.3501344e-01
-1.1497992e-01
-8.9273860e-02
-6.3124355e-02
-3.8565876e-02
-1.3360167e-02
6.1420082e-03
2.3978328e-02
3.7713402e-02
4.9071407e-02
6.3704100e-02
7.8265146e-02
9.7520189e-02
1.1679111e-01
1.3464786e-01
1.5156093e-01
1.5943128e-01
1.6189516e-01
1.5558076e-01
1.3949679e-01
1.1577648e-01
8.2962462e-02
5.0783381e-02
1.8346796e-02
-1.4052375e-02
-4.3185060e-02
-6.9893373e-02
-8.5049365e-02
-9.0264121e-02
-8.7461209e-02
-7.7964398e-02
-6.7105255e-02
-5.1458809e-02
-3.6552037e-02
-2.4139596e-02
-1.5682361e-02
-1.4441909e-02
-1.2714911e-02
-1.0837687e-02
-5.7315610e-03
-1.7852170e-04
1.2334383e-03
7.7724468e-03
1.8403668e-02
3.4406745e-02
4.9337494e-02
5.2662371e-02
4.9858879e-02
4.2129446e-02
3.7072634e-02
3.4696962e-02
2.7892870e-02
1.9022737e-02
-8.0426138e-05
-3.0993027e-02
-7.6081326e-02
-1.3764006e-01
-1.9895449e-01
-2.4517903e-01
-2.6127082e-01
-2.4910561e-01
-2.2244085e-01
-1.8421203e-01
-1.3954073e-01
-8.8427563e-02
-4.0947300e-02
-8.9034706e-03
1.2133127e-02
2.7931855e-02
5.1134287e-02
8.2284079e-02
1.1354789e-01
1.4128861e-01
1.6066965e-01
1.8196828e-01
2.0917735e-01
2.3814326e-01
2.6532020e-01
2.8494689e-01
3.0662107e-01
3.3117537e-01
3.5149416e-01
3.6099969e-01
3.4865070e-01
3.1936435e-01
2.7342310e-01
2.0854351e-01
1.2435533e-01
1.5572594e-02
-9.7318103e-02
-1.9132424e-01
-2.5879762e-01
-3.0068788e-01
-3.2561146e-01
-3.3084508e-01
-3.1920914e-01
-2.9543634e-01
-2.6559753e-01
-2.4334954e-01
-2.2461944e-01
-2.0595905e-01
-1.8589892e-01
-1.6727594e-01
-1.5923144e-01
-1.5307145e-01
-1.4363715e-01
-1.2693996e-01
-1.0285752e-01
-8.0088803e-02
-5.3843210e-02
-2.2464625e-02
1.9456572e-02
7.3716150e-02
1.3008149e-01
1.8292852e-01
2.1812806e-01
2.3438715e-01
2.3468575e-01
2.1301563e-01
1.7523908e-01
1.2506052e-01
7.3847155e-02
2.8430463e-02
-1.6336251e-02
-5.5784432e-02
-8.9589846e-02
-1.0993558e-01
-1.1323225e-01
-1.0707948e-01
-9.0775341e-02
-7.2665973e-02
-5.3171812e-02
-3.1430281e-02
-1.4066494e-02
7.6367722e-04
7.5698476e-03
1.1291736e-02
1.6227729e-02
1.7117636e-02
1.8044223e-02
1.7092044e-02
2.1085193e-02
3.4343404e-02
5.2383517e-02
7.8250019e-02
1.0520294e-01
1.3297892e-01
1.6022726e-01
1.7822467e-01
1.8537932e-01
1.7583455e-01
1.5439314e-01
1.2534401e-01
8.9826409e-02
5.4145124e-02
1.4859411e-02
-2.1751599e-02
-5.1792930e-02
-7.5702631e-02
-8.7487372e-02
-9.1120315e-02
-8.5958250e-02
-7.7675970e-02
-7.3924737e-02
-7.0180345e-02
-6.5097296e-02
-5.3760515e-02
-4.1602045e-02
-3.2769196e-02
-2.1232122e-02
-9.7091004e-03
6.2803512e-03
2.3412528e-02
3.8048193e-02
5.5877150e-02
7.4770059e-02
1.0221542e-01
1.3726461e-01
1.7467271e-01
2.1446959e-01
2.4768394e-01
2.7556134e-01
2.9156492e-01
2.8503901e-01
2.5556407e-01
2.0221057e-01
1.3464267e-01
5.3159904e-02
-4.7170591e-02
-1.5625778e-01
-2.5444113e-01
-3.2160409e-01
-3.5975509e-01
-3.7542704e-01
-3.7360146e-01
-3.6389580e-01
-3.4263213e-01
-3.1286875e-01
-2.8121074e-01
-2.5439119e-01
-2.4002482e-01
-2.2865371e-01
-2.1764664e-01
-2.0748324e-01
-2.0098136e-01
-2.0291699e-01
-2.0091038e-01
-1.9157057e-01
-1.7440654e-01
-1.5087659e-01
-1.2467397e-01
-8.3035967e-02
-2.2487869e-02
6.0604241e-02
1.5419823e-01
2.2365826e-01
2.6230263e-01
2.7506916e-01
2.6976085e-01
2.4628057e-01
1.9666012e-01
1.3383919e-01
6.7088022e-02
4.6727983e-03
-5.0773621e-02
-1.0590055e-01
-1.5306558e-01
-1.8799624e-01
-2.0537987e-01
-2.0632064e-01
-2.0163747e-01
-1.9165805e-01
-1.7971162e-01
-1.6182437e-01
-1.3803686e-01
-1.1654110e-01
-9.3767059e-02
-6.8496395e-02
-3.0651015e-02
1.7362157e-02
5.6897481e-02
8.6350235e-02
1.0749829e-01
1.3033030e-01
1.5830048e-01
1.8671430e-01
2.1780755e-01
2.4755351e-01
2.8092773e-01
3.1345100e-01
3.3088100e-01
3.3119175e-01
3.1243020e-01
2.8838534e-01
2.6582870e-01
2.3555348e-01
1.9395801e-01
1.3535260e-01
7.3777266e-02
2.5539027e-02
-5.8470716e-03
-2.1463806e-02
-3.6239482e-02
-5.3756428e-02
-7.2768798e-02
-8.8934016e-02
-9.3004868e-02
-8.9304046e-02
-7.5221264e-02
-5.2925410e-02
-2.9943713e-02
-9.0519001e-03
6.4302293e-04
3.7368066e-03
6.1511189e-03
1.2395616e-02
2.8255603e-02
4.7039139e-02
6.8650097e-02
8.9557614e-02
1.0676265e-01
1.2250651e-01
1.3269353e-01
1.4178300e-01
1.4567576e-01
1.4032671e-01
1.2687245e-01
9.9058657e-02
6.2239391e-02
1.5996781e-02
-3.7197629e-02
-8.7983610e-02
-1.3489212e-01
-1.6837436e-01
-1.8822501e-01
-1.9257398e-01
-1.7636191e-01
-1.4877847e-01
-1.1580544e-01
-9.1635748e-02
-8.4737830e-02
-9.5171099e-02
-1.2294665e-01
-1.4720641e-01
-1.5360373e-01
-1.3630261e-01
-9.5282815e-02
-4.4018125e-02
1.0718648e-02
5.6329783e-02
8.6943019e-02
1.0636564e-01
1.1887864e-01
1.3876876e-01
1.6143067e-01
1.7394024e-01
1.6748517e-01
1.3656673e-01
9.2698511e-02
4.4021947e-02
9.8494673e-04
-3.3093271e-02
-6.4701521e-02
-8.8237897e-02
-1.0653300e-01
-1.2027835e-01
-1.3076941e-01
-1.4198206e-01
-1.4491860e-01
-1.3871887e-01
-1.1887716e-01
-8.9235561e-02
-6.2854914e-02
-3.6228455e-02
-1.1311198e-02
1.2641309e-02
3.2220418e-02
3.9963259e-02
4.4783970e-02
5.0220217e-02
6.4346499e-02
8.8512372e-02
1.1162519e-01
1.3367347e-01
1.5032639e-01
1.6276777e-01
1.6698115e-01
1.5213011e-01
1.2361500e-01
8.3104809e-02
3.3015531e-02
-3.1715995e-02
-1.2047679e-01
-2.2564665e-01
-3.3405757e-01
-4.1748357e-01
-4.5862231e-01
-4.6504965e-01
-4.4998663e-01
-4.3125516e-01
-4.0977248e-01
-3.8727814e-01
-3.6209760e-01
-3.1034219e-01
-2.2870770e-01
-1.3012633e-01
-2.7291981e-02
6.7787503e-02
1.4640624e-01
1.9961328e-01
2.3699539e-01
2.6442447e-01
2.8245938e-01
2.9931179e-01
3.1312411e-01
3.3038510e-01
3.5341043e-01
3.7768481e-01
4.0011589e-01
4.1109868e-01
4.1751791e-01
4.2229999e-01
4.1991124e-01
4.0522670e-01
3.6566534e-01
3.0786500e-01
2.3959262e-01
1.6230838e-01
7.8297211e-02
-1.2342777e-02
-8.9911882e-02
-1.4310862e-01
-1.7327929e-01
-1.8265432e-01
-1.8196484e-01
-1.7165802e-01
-1.5412089e-01
-1.2973107e-01
-9.8074338e-02
-7.0506401e-02
-4.8767918e-02
-3.7034689e-02
-3.6529844e-02
-4.4811258e-02
-6.5763658e-02
-9.0518890e-02
-1.1104288e-01
-1.1640634e-01
-1.0162073e-01
-7.6403073e-02
-4.3718101e-02
-1.5672909e-02
8.2138373e-04
1.7327350e-03
-1.8072049e-02
-3.8159450e-02
-4.6128867e-02
-3.7246656e-02
-1.0971268e-02
1.8443761e-02
4.2436263e-02
4.7660482e-02
3.3740134e-02
8.5772043e-03
-2.6748096e-02
-5.8240772e-02
-8.3209355e-02
-1.0135967e-01
-1.0914321e-01
-1.1012877e-01
-1.0015650e-01
-8.4118916e-02
-6.6128034e-02
-4.9773709e-02
-4.0483326e-02
-3.0833767e-02
-2.4862749e-02
-2.6502865e-02
-3.6921348e-02
-5.4169836e-02
-6.1233674e-02
-5.6437437e-02
-4.1518719e-02
-1.9818082e-02
2.2713251e-03
3.0538985e-02
6.2931183e-02
9.9640418e-02
1.3459370e-01
1.6001377e-01
1.8531216e-01
2.1207400e-01
2.4374202e-01
2.7544957e-01
2.9595496e-01
3.0876387e-01
3.1026343e-01
3.0144276e-01
2.7861128e-01
2.3489209e-01
1.7919574e-01
1.1226198e-01
3.9254345e-02
-4.0780364e-02
-1.2823246e-01
-2.0061796e-01
-2.4980706e-01
-2.7280100e-01
-2.7498917e-01
-2.7173965e-01
-2.6440035e-01
-2.5447706e-01
-2.3707819e-01
-2.1564784e-01
-2.0010076e-01
-1.8714917e-01
-1.7614618e-01
-1.5934236e-01
-1.3723563e-01
-1.1883194e-01
-1.0367668e-01
-9.2332237e-02
-7.4891199e-02
-4.9033763e-02
-2.0142987e-02
1.2367746e-02
4.5972984e-02
8.9612889e-02
1.4261472e-01
1.8984063e-01
2.1685548e-01
2.1440494e-01
1.9542084e-01
1.6817373e-01
1.3340851e-01
9.3131001e-02
4.4878455e-02
1.6641829e-03
-3.0597418e-02
-5.3852518e-02
-6.8625097e-02
-8.2623119e-02
-8.8093885e-02
-8.0920958e-02
-6.3851399e-02
-4.1263470e-02
-2.6274702e-02
-1.5668527e-02
-7.2344487e-03
-9.0867121e-04
4.5971552e-03
1.9200332e-03
-2.2935908e-03
-3.1008291e-03
1.2989387e-03
1.1327872e-02
1.9710430e-02
3.1038349e-02
4.6590559e-02
6.8649855e-02
9.7466249e-02
1.2234438e-01
1.4273518e-01
1.5386456e-01
1.5466121e-01
1.4512552e-01
1.1791435e-01
7.8983267e-02
3.1808040e-02
-1.4876219e-02
-5.4456019e-02
-9.1898983e-02
-1.2186295e-01
-1.4539671e-01
-1.5966490e-01
-1.6231320e-01
-1.6093714e-01
-1.5570285e-01
-1.5636103e-01
-1.5974896e-01
-1.5397992e-01
-1.4136551e-01
-1.2047503e-01
-9.8121357e-02
-7.3658799e-02
-4.4835402e-02
-1.8904791e-02
7.5038544e-03
3.0687703e-02
5.2977272e-02
7.8038561e-02
1.0162697e-01
1.3036814e-01
1.6179538e-01
1.9304519e-01
2.2040817e-01
2.3766086e-01
2.4875073e-01
2.4614491e-01
2.2635005e-01
1.8809839e-01
1.2966166e-01
6.2169567e-02
-1.3357550e-02
-8.7684065e-02
-1.4916693e-01
-1.9779726e-01
-2.2843111e-01
-2.4319239e-01
-2.4030704e-01
-2.2334710e-01
-2.0022055e-01
-1.6743331e-01
-1.3104919e-01
-9.2829409e-02
-5.8438350e-02
-3.5310203e-02
-1.6453239e-02
-1.7614751e-03
1.3185284e-02
2.6071183e-02
3.1629081e-02
3.7734742e-02
4.4816243e-02
5.9289043e-02
8.0082700e-02
9.9912939e-02
1.2436836e-01
1.5185907e-01
1.8462293e-01
2.1739974e-01
2.3710833e-01
2.4096684e-01
2.2673099e-01
2.0358500e-01
1.7248340e-01
1.2855479e-01
7.8499844e-02
2.6182820e-02
-1.7258048e-02
-4.9671707e-02
-7.5985649e-02
-9.6833887e-02
-1.1664173e-01
-1.2679062e-01
-1.2560544e-01
-1.1950399e-01
-1.1303652e-01
-1.1412101e-01
-1.1458639e-01
-1.1198221e-01
-1.1187799e-01
-1.1780471e-01
-1.3424594e-01
-1.4944812e-01
-1.5881554e-01
-1.6466112e-01
-1.6929404e-01
-1.7801166e-01
-1.7951366e-01
-1.7098091e-01
-1.5612615e-01
-1.3928194e-01
-1.3188586e-01
-1.2945331e-01
-1.3191719e-01
-1.4222121e-01
-1.6385283e-01
-2.0597281e-01
-2.5825586e-01
-3.1170364e-01
-3.5892668e-01
-3.9568764e-01
-4.2754883e-01
-4.4314285e-01
-4.3285043e-01
-3.8957476e-01
-3.0954420e-01
-1.9715948e-01
-6.2307395e-02
6.1856016e-02
1.6285270e-01
2.4620216e-01
3.0762136e-01
3.5277608e-01
3.8393736e-01
4.0824914e-01
4.2765378e-01
4.3459676e-01
4.3715260e-01
4.4000062e-01
4.5073124e-01
4.7121852e-01
4.9168489e-01
5.1148556e-01
5.2482953e-01
5.3319334e-01
5.3345434e-01
5.1316463e-01
4.7383034e-01
4.1157605e-01
3.2923040e-01
2.2890955e-01
1.0431324e-01
-2.7962417e-02
-1.4584657e-01
-2.3388549e-01
-2.9075762e-01
-3.2510950e-01
-3.3862349e-01
-3.3970440e-01
-3.2776704e-01
-3.0419327e-01
-2.7999022e-01
-2.5637873e-01
-2.4065969e-01
-2.3120039e-01
-2.2430958e-01
-2.2260606e-01
-2.2077567e-01
-2.2019715e-01
-2.1688691e-01
-2.0816275e-01
-1.9460208e-01
-1.6948218e-01
-1.3493060e-01
-8.9766773e-02
-3.6591193e-02
2.1422599e-02
7.9613912e-02
1.1706492e-01
1.3337554e-01
1.3373947e-01
1.1942241e-01
9.9955697e-02
7.6565274e-02
5.6645043e-02
3.9978860e-02
2.4830724e-02
1.9514826e-02
2.3197274e-02
4.0059225e-02
6.4034264e-02
8.7145455e-02
1.1328468e-01
1.3819083e-01
1.6420540e-01
1.8609241e-01
1.9645008e-01
1.9845169e-01
1.8984945e-01
1.7659016e-01
1.5545979e-01
1.1816201e-01
7.4315890e-02
3.8639274e-02
2.2983985e-02
1.8954279e-02
1.4502239e-02
5.9744374e-03
-1.0589851e-02
-2.5689064e-02
-3.9361556e-02
-5.7498759e-02
-7.8930800e-02
-1.0314458e-01
-1.2010425e-01
-1.2844570e-01
-1.2934238e-01
-1.2506396e-01
-1.2085161e-01
-1.0627670e-01
-8.1804282e-02
-5.3248298e-02
-2.7020140e-02
-1.4499180e-02
-1.1484157e-02
-2.0047028e-02
-4.4727660e-02
-8.1834632e-02
-1.2042025e-01
-1.4309276e-01
-1.5058917e-01
-1.4443452e-01
-1.2946818e-01
-1.1648287e-01
-9.8488990e-02
-7.4435704e-02
-4.2231518e-02
-5.3629640e-03
2.0270760e-02
3.7097047e-02
4.5903416e-02
4.7001884e-02
3.7292870e-02
8.4808941e-03
-2.9846554e-02
-7.1262068e-02
-1.0739897e-01
-1.3450758e-01
-1.5785548e-01
-1.6990695e-01
-1.6623879e-01
-1.3507588e-01
-8.1038278e-02
-3.1828534e-02
6.8620148e-03
3.6785381e-02
6.7889521e-02
1.0402267e-01
1.3476087e-01
1.5822802e-01
1.7228893e-01
1.8679030e-01
2.0582389e-01
2.2163784e-01
2.3453895e-01
2.4190200e-01
2.5353729e-01
2.7336978e-01
2.9419525e-01
3.1722172e-01
3.3788242e-01
3.6194103e-01
3.8922207e-01
4.0827054e-01
4.1182780e-01
3.8213131e-01
3.1395154e-01
2.1932014e-01
1.1969631e-01
2.7014907e-02
-6.6919300e-02
-1.5299942e-01
-2.2385498e-01
-2.8178301e-01
-3.2446573e-01
-3.5895639e-01
-3.8114442e-01
-3.8877326e-01
-3.8642206e-01
-3.7381247e-01
-3.6014582e-01
-3.4576241e-01
-3.3092106e-01
-3.1671458e-01
-3.0043479e-01
-2.8947646e-01
-2.8051400e-01
-2.6930892e-01
-2.5104730e-01
-2.1910197e-01
-1.7628362e-01
-1.1278510e-01
-3.4626774e-02
3.7462757e-02
9.8421189e-02
1.4639039e-01
1.8761701e-01
2.2156936e-01
2.4727402e-01
2.6733169e-01
2.7653787e-01
2.7990929e-01
2.7240103e-01
2.4809593e-01
2.0981102e-01
1.5677249e-01
9.8990830e-02
3.7712317e-02
-2.3489833e-02
-7.5729456e-02
-1.2070254e-01
-1.5083920e-01
-1.6799403e-01
-1.7580477e-01
-1.7181419e-01
-1.5708023e-01
-1.2306715e-01
-7.8290218e-02
-3.7707994e-02
-6.7897353e-03
1.1967787e-02
2.7749346e-02
3.8895654e-02
4.3873548e-02
4.5405991e-02
4.3155498e-02
4.6001780e-02
5.2418951e-02
6.1879447e-02
7.3109470e-02
8.0445769e-02
9.1296983e-02
1.0425894e-01
1.1847738e-01
1.3033323e-01
1.3284017e-01
1.3454176e-01
1.3433097e-01
1.2859956e-01
1.0875062e-01
6.6681823e-02
1.4649324e-02
-4.0300489e-02
-8.7742784e-02
-1.2544958e-01
-1.6155495e-01
-1.8867474e-01
-2.0418489e-01
-2.0400581e-01
-1.9199099e-01
-1.7927411e-01
-1.6124874e-01
-1.3728854e-01
-1.0250298e-01
-6.1243363e-02
-2.9609804e-02
-7.5491095e-03
5.9612840e-03
1.7857773e-02
2.8251162e-02
2.8939437e-02
2.4069415e-02
1.6554865e-02
1.6676266e-02
2.6536013e-02
3.8164383e-02
5.1943422e-02
6.5461999e-02
8.6848305e-02
1.1698339e-01
1.4633298e-01
1.7027227e-01
1.8077347e-01
1.8329045e-01
1.7696577e-01
1.5467899e-01
1.1866597e-01
6.9360731e-02
2.0477594e-02
-2.1331128e-02
-5.9178069e-02
-9.2818006e-02
-1.2544699e-01
-1.4559637e-01
-1.4852157e-01
-1.3851591e-01
-1.1886798e-01
-1.0076213e-01
-8.1015010e-02
-5.9729626e-02
-4.1767261e-02
-2.7985797e-02
-2.4804970e-02
-2.3676170e-02
-2.0391473e-02
-1.6318307e-02
-1.0758911e-02
-9.8427528e-03
-5.2484428e-03
6.9784196e-03
2.6140524e-02
5.2266118e-02
7.6347257e-02
1.0209449e-01
1.3133295e-01
1.6429396e-01
1.9876420e-01
2.2090170e-01
2.2867054e-01
2.2040923e-01
1.9955771e-01
1.6990827e-01
1.2627640e-01
7.5453813e-02
1.9636072e-02
-3.5816398e-02
-8.7834215e-02
-1.3906093e-01
-1.7531780e-01
-1.9457639e-01
-1.9648730e-01
-1.8091844e-01
-1.5798628e-01
-1.2722100e-01
-9.5791892e-02
-6.5185329e-02
-3.4952446e-02
-1.1543202e-02
1.0834966e-02
2.8167354e-02
4.1679228e-02
5.4854556e-02
6.2410148e-02
7.0330669e-02
7.6353120e-02
8.1628240e-02
8.8388207e-02
9.1150502e-02
9.4876579e-02
9.7823829e-02
9.9770717e-02
9.7401154e-02
8.3959184e-02
6.4697866e-02
3.3764280e-02
-1.0458093e-02
-6.5962527e-02
-1.3198784e-01
-1.9784574e-01
-2.6277984e-01
-3.2244440e-01
-3.7491517e-01
-4.2113912e-01
-4.5190753e-01
-4.6751432e-01
-4.6483737e-01
-4.4769031e-01
-4.2516668e-01
-3.9563033e-01
-3.6407573e-01
-3.2783706e-01
-2.9043666e-01
-2.5864716e-01
-2.2338086e-01
-1.7927775e-01
-1.1400972e-01
-2.2305380e-02
7.8960787e-02
1.6687200e-01
2.3042319e-01
2.8296968e-01
3.2797076e-01
3.6166043e-01
3.8976489e-01
4.1238917e-01
4.3885769e-01
4.6791567e-01
4.8799294e-01
4.9772193e-01
4.9328086e-01
4.8151090e-01
4.6216358e-01
4.2788136e-01
3.8139161e-01
3.2477318e-01
2.7018581e-01
2.2112178e-01
1.7240715e-01
1.2249876e-01
6.6327334e-02
7.7762502e-03
-5.8696590e-02
-1.2861259e-01
-1.8115950e-01
-2.1403601e-01
-2.2394484e-01
-2.1587947e-01
-2.0139389e-01
-1.8951402e-01
-1.8759055e-01
-1.8365309e-01
-1.7462256e-01
-1.6333194e-01
-1.5312532e-01
-1.5078584e-01
-1.4510681e-01
-1.3268065e-01
-1.1396983e-01
-9.1532346e-02
-7.6155161e-02
-6.2017271e-02
-4.8385590e-02
-3.6247311e-02
-2.7224646e-02
-2.8960745e-02
-2.9894767e-02
-1.6922059e-02
1.0063800e-02
2.9878169e-02
2.5315093e-02
1.0309171e-02
-6.1890395e-03
-1.8192060e-02
-2.3594559e-02
-2.9407383e-02
-3.0593295e-02
-2.4962676e-02
-8.5947073e-03
1.5740485e-02
3.4905374e-02
4.7661138e-02
5.1861279e-02
5.4702976e-02
5.9860488e-02
5.9099331e-02
5.4771894e-02
4.8340543e-02
4.8289661e-02
5.5837234e-02
6.3702676e-02
7.5773456e-02
8.9810027e-02
1.1217156e-01
1.4434995e-01
1.7648201e-01
2.0637400e-01
2.2361953e-01
2.2889293e-01
2.2394595e-01
2.0399801e-01
1.7394571e-01
1.3242971e-01
8.9597576e-02
5.2828215e-02
2.0232576e-02
-2.6680437e-03
-2.0249947e-02
-2.8296930e-02
-2.3927087e-02
-1.1271908e-02
1.1699325e-02
3.5822579e-02
5.6837776e-02
6.8635761e-02
6.2970397e-02
3.9503107e-02
-1.1983146e-02
-8.0697063e-02
-1.4238611e-01
-1.8796060e-01
-2.1507862e-01
-2.3056878e-01
-2.3400919e-01
-2.2795650e-01
-2.1705932e-01
-1.9878550e-01
-1.7761820e-01
-1.4997293e-01
-1.1903282e-01
-9.1275756e-02
-6.6676559e-02
-5.1497953e-02
-4.2497024e-02
-4.4123895e-02
-6.0465444e-02
-8.4061488e-02
-1.1233289e-01
-1.3533093e-01
-1.5286036e-01
-1.6313880e-01
-1.5555294e-01
-1.2762214e-01
-7.8593122e-02
-2.8137947e-02
1.2674777e-02
4.8358358e-02
7.4740590e-02
9.9008975e-02
1.2065180e-01
1.3437832e-01
1.4005707e-01
1.3531253e-01
1.2883837e-01
1.2013069e-01
1.0611365e-01
8.7921167e-02
6.4665630e-02
4.7295962e-02
3.7269538e-02
3.2231943e-02
3.0309152e-02
2.7413179e-02
3.1510920e-02
4.1743345e-02
5.5970993e-02
6.8573591e-02
7.0738895e-02
7.0527939e-02
6.7842916e-02
6.1226618e-02
4.4692978e-02
9.1712008e-03
-3.3384529e-02
-7.6595668e-02
-1.1603966e-01
-1.5305707e-01
-1.9349211e-01
-2.2511326e-01
-2.4302101e-01
-2.4436703e-01
-2.3421717e-01
-2.2479035e-01
-2.0981480e-01
-1.8822186e-01
-1.5840457e-01
-1.2507088e-01
-1.0135126e-01
-8.2110272e-02
-6.3158749e-02
-3.7551989e-02
-5.8382414e-03
2.2549571e-02
5.0459298e-02
7.5423192e-02
1.0250601e-01
1.3119925e-01
1.5202376e-01
1.6945623e-01
1.8379116e-01
2.0287725e-01
2.2815153e-01
2.4944706e-01
2.6501591e-01
2.6975320e-01
2.6902944e-01
2.6153989e-01
2.3696426e-01
1.9583401e-01
1.3907938e-01
8.1820671e-02
3.1648931e-02
-1.4954159e-02
-5.4347769e-02
-8.8232985e-02
-1.0790570e-01
-1.1253341e-01
-1.1236559e-01
-1.0923872e-01
-1.0663281e-01
-9.6983330e-02
-8.0339112e-02
-6.4106273e-02
-4.9999219e-02
-4.6707625e-02
-4.6128768e-02
-4.0841457e-02
-3.2256547e-02
-1.8858515e-02
-6.6661779e-03
1.0737585e-02
3.6972387e-02
6.9709897e-02
1.0756091e-01
1.4046523e-01
1.7170152e-01
2.0260305e-01
2.3056572e-01
2.5303354e-01
2.5811954e-01
2.4504255e-01
2.1034664e-01
1.5237980e-01
8.0379361e-02
2.7456089e-03
-6.8180251e-02
-1.3048304e-01
-1.8089034e-01
-2.1532394e-01
-2.3890599e-01
-2.4809990e-01
-2.4697776e-01
-2.3707151e-01
-2.1810155e-01
-1.9808784e-01
-1.7382425e-01
-1.5006108e-01
-1.2867019e-01
-1.0802184e-01
-9.4204171e-02
-8.2213142e-02
-7.4380684e-02
-6.8283829e-02
-5.8529263e-02
-4.8860168e-02
-3.0760707e-02
-3.2105447e-03
3.6858669e-02
8.7978008e-02
1.3508491e-01
1.8057521e-01
2.2232452e-01
2.5716104e-01
2.8298945e-01
2.9255644e-01
2.9020173e-01
2.7367126e-01
2.4499072e-01
2.0797770e-01
1.6285197e-01
1.2157461e-01
8.5298817e-02
5.5205612e-02
3.2548744e-02
1.4434981e-02
7.7143015e-03
1.0454657e-02
2.1636915e-02
3.4214598e-02
3.6404307e-02
2.8126356e-02
2.2865894e-03
-4.4848630e-02
-1.0847675e-01
-1.6970505e-01
-2.0919721e-01
-2.3119434e-01
-2.3669677e-01
-2.3361460e-01
-2.3202137e-01
-2.2419632e-01
-2.0940152e-01
-1.8416305e-01
-1.5241185e-01
-1.2319355e-01
-9.1924816e-02
-6.1291790e-02
-3.0202172e-02
-5.7672353e-03
-1.3001413e-03
-1.4707822e-02
-4.4693579e-02
-8.0845101e-02
-1.1856614e-01
-1.5886946e-01
-1.9112933e-01
-2.0807212e-01
-1.9335293e-01
-1.5281582e-01
-1.1594995e-01
-8.9844493e-02
-7.1396483e-02
-5.1437967e-02
-2.9850526e-02
-1.2995835e-02
-1.9775539e-03
2.5853507e-06
2.2650955e-03
5.6389137e-03
5.2517781e-03
1.7234461e-04
-1.2869074e-02
-2.0952361e-02
-1.9840150e-02
-1.3924937e-02
-5.6599634e-03
-1.1648672e-05
1.2397162e-02
3.3316650e-02
6.1672542e-02
9.4977137e-02
1.2176145e-01
1.4701000e-01
1.6991650e-01
1.8714821e-01
1.9517255e-01
1.8210572e-01
1.5713788e-01
1.2738154e-01
9.5287080e-02
6.1895262e-02
1.9528379e-02
-2.1520736e-02
-5.2473815e-02
-6.9410800e-02
-7.3094443e-02
-7.3602645e-02
-6.8101905e-02
-5.6443167e-02
-3.7292718e-02
-1.2337940e-02
7.8662540e-03
2.3461966e-02
3.3345591e-02
4.5597387e-02
6.3282450e-02
7.6347460e-02
8.5873550e-02
8.9277515e-02
9.3294915e-02
1.0265712e-01
1.0980370e-01
1.1854315e-01
1.2881271e-01
1.4537711e-01
1.6737369e-01
1.8526771e-01
2.0062234e-01
2.0715884e-01
2.0830783e-01
2.0752863e-01
1.9786615e-01
1.8067608e-01
1.5145394e-01
1.1896533e-01
9.1550690e-02
6.5602160e-02
4.4975887e-02
2.4126165e-02
4.8893676e-03
-1.2826355e-02
-3.9551952e-02
-7.9639623e-02
-1.3271528e-01
-1.7479400e-01
-1.9416002e-01
-1.9892971e-01
-1.8887922e-01
-1.7203401e-01
-1.4943787e-01
-1.2370068e-01
-1.0117367e-01
-7.9631754e-02
-6.5956189e-02
-5.8530434e-02
-5.4230908e-02
-5.3011515e-02
-4.8272396e-02
-4.0725092e-02
-2.5720098e-02
-5.9621225e-03
1.0568364e-02
2.2159471e-02
2.0251489e-02
6.5146323e-03
-2.0163256e-02
-5.7655034e-02
-9.1229188e-02
-1.1877999e-01
-1.3699545e-01
-1.4758114e-01
-1.5101654e-01
-1.4176008e-01
-1.2423267e-01
-9.5623088e-02
-6.2500909e-02
-3.2455528e-02
-4.7065654e-03
1.4661176e-02
3.2521172e-02
4.8358649e-02
5.6281793e-02
5.8081003e-02
5.3513250e-02
5.3289981e-02
5.7005198e-02
6.0378200e-02
6.5342697e-02
6.9463334e-02
8.2237468e-02
1.0172774e-01
1.2039973e-01
1.3675590e-01
1.4470777e-01
1.4743973e-01
1.4096683e-01
1.2184481e-01
8.9636798e-02
4.2890935e-02
-3.7823517e-03
-4.4442465e-02
-7.7193049e-02
-1.0362000e-01
-1.2969257e-01
-1.4641427e-01
-1.5304756e-01
-1.4942301e-01
-1.3764923e-01
-1.2466016e-01
-1.0336708e-01
-7.5254884e-02
-4.1939111e-02
-1.0206147e-02
8.5929757e-03
2.2247367e-02
3.2143846e-02
4.2427332e-02
5.5353877e-02
6.2123597e-02
6.6153536e-02
7.0043227e-02
8.1139066e-02
9.8402419e-02
1.1160533e-01
1.2595295e-01
1.4071094e-01
1.5732501e-01
1.7095061e-01
1.6803606e-01
1.5110039e-01
1.2148348e-01
8.6955076e-02
5.0821641e-02
6.8988394e-03
-4.1176792e-02
-9.1699603e-02
-1.3335053e-01
-1.6156111e-01
-1.8252387e-01
-1.9474621e-01
-2.0035076e-01
-1.9117593e-01
-1.6821437e-01
-1.4385272e-01
-1.2162079e-01
-1.0723658e-01
-9.3468018e-02
-7.9293799e-02
-7.1317997e-02
-6.6643951e-02
-6.8096563e-02
-6.7813590e-02
-6.2249955e-02
-5.4941729e-02
-4.3765167e-02
-3.4300616e-02
-2.0896493e-02
-1.1206657e-03
2.0577628e-02
4.1560697e-02
5.0843985e-02
5.2063025e-02
4.7976410e-02
3.7487972e-02
2.4114223e-02
5.5911352e-03
-5.6376436e-03
5.4006113e-04
1.8931253e-02
3.5836931e-02
3.9589923e-02
3.8956958e-02
3.7409475e-02
3.6490975e-02
3.9718881e-02
4.0426551e-02
4.2488765e-02
4.6351204e-02
5.2307152e-02
6.0906425e-02
6.3282923e-02
6.3098900e-02
5.9627793e-02
5.3071955e-02
4.5359347e-02
3.1663462e-02
2.1400137e-02
1.6803830e-02
1.9046315e-02
2.9047331e-02
3.8118157e-02
4.7383558e-02
4.8330729e-02
3.9302574e-02
2.5864902e-02
4.0486084e-03
-2.0570277e-02
-4.9416898e-02
-7.8324767e-02
-1.0206562e-01
-1.2476188e-01
-1.3817473e-01
-1.4251411e-01
-1.3564373e-01
-1.1649608e-01
-9.4232667e-02
-6.6823424e-02
-4.0256147e-02
-1.6223449e-02
5.8893126e-03
2.1089766e-02
3.5397827e-02
4.5403015e-02
5.2035559e-02
5.6929188e-02
5.5415451e-02
5.3096875e-02
4.8786032e-02
4.7223105e-02
4.9835531e-02
5.1530683e-02
5.8349972e-02
6.8464096e-02
8.3579892e-02
9.7492263e-02
9.7295037e-02
8.6154076e-02
6.3665482e-02
3.4946519e-02
-4.3101345e-04
-4.6662875e-02
-9.4971977e-02
-1.4353032e-01
-1.8274185e-01
-2.1050950e-01
-2.3303952e-01
-2.4484014e-01
-2.4699738e-01
-2.3297832e-01
-2.0500994e-01
-1.7448088e-01
-1.3947031e-01
-1.0072419e-01
-5.3272198e-02
-3.6411138e-03
3.6436784e-02
6.9432515e-02
9.3727007e-02
1.1718974e-01
1.4116286e-01
1.6033737e-01
1.7809340e-01
1.9194685e-01
2.0875681e-01
2.2710100e-01
2.3698639e-01
2.3543401e-01
2.1654721e-01
1.8924156e-01
1.5779773e-01
1.1979666e-01
7.7014085e-02
2.7202900e-02
-1.6933441e-02
-4.9987591e-02
-7.5255496e-02
-9.4571848e-02
-1.1490028e-01
-1.2609740e-01
-1.2212545e-01
-1.0650432e-01
-8.5696797e-02
-7.0116257e-02
-5.2211910e-02
-3.1747321e-02
-1.3572340e-02
1.2622850e-03
6.4948057e-03
1.1114577e-02
1.9399209e-02
3.2409417e-02
4.9934784e-02
6.1687070e-02
7.3120531e-02
8.8203140e-02
1.0868262e-01
1.3137613e-01
1.4315472e-01
1.4797485e-01
1.4494768e-01
1.3215627e-01
1.1043444e-01
7.4289586e-02
3.2661303e-02
-7.8881302e-03
-4.0693475e-02
-6.4076342e-02
-8.6068995e-02
-1.0163286e-01
-1.1021999e-01
-1.0794783e-01
-9.2760883e-02
-7.3741097e-02
-5.1765796e-02
-3.0486060e-02
-6.2036906e-03
1.9013872e-02
3.3671080e-02
4.0611972e-02
3.8965755e-02
3.5449952e-02
3.4649111e-02
3.1257718e-02
2.9183618e-02
2.4813769e-02
2.2773376e-02
2.6148264e-02
2.8548909e-02
3.4735058e-02
4.2500837e-02
5.5711006e-02
7.3523696e-02
8.4347655e-02
8.7717118e-02
7.7746543e-02
5.9113165e-02
3.8122153e-02
1.3509762e-02
-7.4249403e-03
-2.5878820e-02
-3.7176050e-02
-3.8190256e-02
-3.2102313e-02
-1.3679175e-02
1.3350760e-02
4.8216055e-02
8.5521213e-02
1.1587066e-01
1.3823145e-01
1.4271289e-01
1.2823463e-01
9.2969014e-02
3.0836492e-02
