2.7715919e-03
3.5503418e-03
4.3095958e-03
5.0212256e-03
5.6578620e-03
6.1895351e-03
6.5786758e-03
6.7811521e-03
6.7602079e-03
6.4935810e-03
5.9754359e-03
5.2185899e-03
4.2504511e-03
3.1073801e-03
1.8304341e-03
4.5453421e-04
-1.0184040e-03
-2.6162518e-03
-4.3546000e-03
-6.2315183e-03
-8.2443960e-03
-1.0395756e-02
-1.2687346e-02
-1.5077905e-02
-1.7437211e-02
-1.9539511e-02
-2.1118751e-02
-2.1935448e-02
-2.1788989e-02
-2.0528661e-02
-1.8087823e-02
-1.4531297e-02
-1.0082191e-02
-5.0610883e-03
2.2589067e-04
5.5578717e-03
1.0767033e-02
1.5696923e-02
2.0234058e-02
2.4306972e-02
2.7842385e-02
3.0730838e-02
3.2829452e-02
3.4012264e-02
3.4230212e-02
3.3549841e-02
3.2039218e-02
2.9591449e-02
2.6010356e-02
2.1316950e-02
1.5925599e-02
1.0448199e-02
5.3394416e-03
7.4536493e-04
-3.4010698e-03
-7.1572694e-03
-1.0488705e-02
-1.3407857e-02
-1.6074059e-02
-1.8709859e-02
-2.1441137e-02
-2.4274788e-02
-2.7175165e-02
-3.0105286e-02
-3.3031988e-02
-3.5888441e-02
-3.8579964e-02
-4.1001630e-02
-4.2982834e-02
-4.4168394e-02
-4.3912039e-02
-4.1424180e-02
-3.6103281e-02
-2.7782015e-02
-1.6841907e-02
-4.2025606e-03
8.8293938e-03
2.0930148e-02
3.1136915e-02
3.8998626e-02
4.4588763e-02
4.8281934e-02
5.0381315e-02
5.0898323e-02
4.9575555e-02
4.6116862e-02
4.0384966e-02
3.2518856e-02
2.2989740e-02
1.2522680e-02
1.9843042e-03
-7.7747532e-03
-1.6017922e-02
-2.2117778e-02
-2.5645322e-02
-2.6442963e-02
-2.4531908e-02
-2.0020902e-02
-1.3240870e-02
-4.9239710e-03
3.8493087e-03
1.1880368e-02
1.8183513e-02
2.2215362e-02
2.3920503e-02
2.3634883e-02
2.1756542e-02
1.8478726e-02
1.3828021e-02
7.8802204e-03
9.3856568e-04
-6.5417063e-03
-1.4112796e-02
-2.1402286e-02
-2.8106199e-02
-3.3959387e-02
-3.8764863e-02
-4.2315641e-02
-4.4303000e-02
-4.4382605e-02
-4.2237862e-02
-3.7655992e-02
-3.0590945e-02
-2.1232237e-02
-1.0157173e-02
1.6432014e-03
1.2999762e-02
2.2912475e-02
3.0667383e-02
3.5799490e-02
3.8172466e-02
3.7981113e-02
3.5640370e-02
3.1669216e-02
2.6623344e-02
2.1096524e-02
1.5650102e-02
1.0721421e-02
6.5206833e-03
2.9923509e-03
-2.7996717e-05
-2.6556986e-03
-4.8695647e-03
-6.5712738e-03
-7.7295854e-03
-8.3824903e-03
-8.6025048e-03
-8.4705497e-03
-8.0798366e-03
-7.5027463e-03
-6.6513853e-03
-5.3231214e-03
-3.4375369e-03
-1.2230298e-03
8.4670723e-04
2.3694731e-03
3.2329972e-03
3.5877552e-03
3.6383304e-03
3.4761862e-03
3.1449322e-03
2.7691958e-03
2.5803103e-03
2.7344269e-03
3.1251024e-03
3.4839105e-03
3.6041261e-03
3.4276937e-03
2.8980176e-03
1.8136381e-03
-1.4441320e-04
-3.2714831e-03
-7.5856416e-03
-1.2799212e-02
-1.8509441e-02
-2.4183683e-02
-2.9094729e-02
-3.2500118e-02
-3.3961761e-02
-3.3420945e-02
-3.1028357e-02
-2.7016465e-02
-2.1584924e-02
-1.4884333e-02
-7.0842592e-03
1.5990516e-03
1.0925901e-02
2.0714251e-02
3.0750907e-02
4.0658352e-02
4.9892046e-02
5.7735368e-02
6.3449495e-02
6.6470914e-02
6.6420173e-02
6.2991245e-02
5.5957853e-02
4.5504993e-02
3.2447566e-02
1.8027297e-02
3.5676801e-03
-9.8115331e-03
-2.1303176e-02
-3.0429502e-02
-3.7027143e-02
-4.1227992e-02
-4.3435043e-02
-4.4130167e-02
-4.3741574e-02
-4.2718057e-02
-4.1605618e-02
-4.0935931e-02
-4.0934508e-02
-4.1450426e-02
-4.2168220e-02
-4.2820403e-02
-4.3207068e-02
-4.2996171e-02
-4.1631544e-02
-3.8436663e-02
-3.2831278e-02
-2.4527833e-02
-1.3518155e-02
-7.3971768e-05
1.5108344e-02
3.0759786e-02
4.5246669e-02
5.7154173e-02
6.5579549e-02
7.0095294e-02
7.0671285e-02
6.7622998e-02
6.1605051e-02
5.3400968e-02
4.3721994e-02
3.3255093e-02
2.2745257e-02
1.3006413e-02
4.7990297e-03
-1.3192403e-03
-5.1320073e-03
-6.8360803e-03
-6.9029420e-03
-5.9173891e-03
-4.5124753e-03
-3.4370804e-03
-3.5299807e-03
-5.3830239e-03
-9.0751321e-03
-1.4139006e-02
-1.9760015e-02
-2.5143166e-02
-2.9711259e-02
-3.3120542e-02
-3.5187423e-02
-3.5804390e-02
-3.4912454e-02
-3.2507461e-02
-2.8666428e-02
-2.3504632e-02
-1.7248039e-02
-1.0383755e-02
-3.5194031e-03
2.9169942e-03
8.7720025e-03
1.3922949e-02
1.8105239e-02
2.1079125e-02
2.2788465e-02
2.3350589e-02
2.2845430e-02
2.1163417e-02
1.8196108e-02
1.4067742e-02
9.1666036e-03
3.9631570e-03
-1.1535590e-03
-5.8422188e-03
-9.7537016e-03
-1.2576282e-02
-1.4267010e-02
-1.5143015e-02
-1.5556271e-02
-1.5533278e-02
-1.4694527e-02
-1.2605632e-02
-9.2139522e-03
-4.8486573e-03
8.5753819e-05
5.3457906e-03
1.0725367e-02
1.5840590e-02
2.0149909e-02
2.3112570e-02
2.4413111e-02
2.3966975e-02
2.1794105e-02
1.8060922e-02
1.3162138e-02
7.7949605e-03
2.8247182e-03
-1.1132900e-03
-3.9113344e-03
-5.8909408e-03
-7.3745647e-03
-8.4799885e-03
-9.2734519e-03
-9.9371975e-03
-1.0725450e-02
-1.1716795e-02
-1.2746308e-02
-1.3543095e-02
-1.3882949e-02
-1.3656593e-02
-1.2724110e-02
-1.0891971e-02
-8.0751076e-03
-4.3855670e-03
-9.6720861e-05
4.5169940e-03
9.2055878e-03
1.3659544e-02
1.7451865e-02
2.0053287e-02
2.1124901e-02
2.0746374e-02
1.9286914e-02
1.7090207e-02
1.4271077e-02
1.0872396e-02
7.0478306e-03
3.0508113e-03
-8.7340012e-04
-4.5965254e-03
-8.0300644e-03
-1.1054568e-02
-1.3622327e-02
-1.5918055e-02
-1.8320485e-02
-2.1041622e-02
-2.3867574e-02
-2.6251117e-02
-2.7661485e-02
-2.7850326e-02
-2.6786733e-02
-2.4543458e-02
-2.1195558e-02
-1.6772434e-02
-1.1317553e-02
-4.9993458e-03
1.6549983e-03
7.7911098e-03
1.2559642e-02
1.5349067e-02
1.5921087e-02
1.4462905e-02
1.1581372e-02
8.1051110e-03
4.8032705e-03
2.3389010e-03
1.2509742e-03
1.8649041e-03
4.1888142e-03
7.9587399e-03
1.2867022e-02
1.8628911e-02
2.4916252e-02
3.1243973e-02
3.6948857e-02
4.1358626e-02
4.3878357e-02
4.4070295e-02
4.1717175e-02
3.6796877e-02
2.9522431e-02
2.0359306e-02
9.9739982e-03
-9.2492773e-04
-1.1719109e-02
-2.1863006e-02
-3.0849497e-02
-3.8166435e-02
-4.3437746e-02
-4.6583045e-02
-4.7685379e-02
-4.6845610e-02
-4.4139584e-02
-3.9732741e-02
-3.4038459e-02
-2.7672230e-02
-2.1319797e-02
-1.5560152e-02
-1.0743149e-02
-6.9396364e-03
-3.8994936e-03
-1.1822774e-03
1.6004043e-03
4.6237763e-03
7.9074214e-03
1.1397437e-02
1.4895644e-02
1.8118808e-02
2.0791047e-02
2.2635451e-02
2.3414037e-02
2.3001734e-02
2.1459138e-02
1.8933721e-02
1.5524773e-02
1.1358337e-02
6.7076750e-03
2.0516655e-03
-2.0716656e-03
-5.2844214e-03
-7.3710773e-03
-8.2059407e-03
-7.7334102e-03
-6.0833641e-03
-3.6835448e-03
-1.1343766e-03
1.0184992e-03
2.4488729e-03
3.0175525e-03
2.7000478e-03
1.6793492e-03
4.3177730e-04
-3.0567316e-04
1.7107228e-04
2.1036869e-03
5.1319740e-03
8.5225028e-03
1.1525122e-02
1.3520099e-02
1.4057092e-02
1.2951549e-02
1.0246725e-02
6.1525457e-03
1.0312569e-03
-4.6218401e-03
-1.0188882e-02
-1.5047902e-02
-1.8718929e-02
-2.0991337e-02
-2.1928808e-02
-2.1638549e-02
-2.0137653e-02
-1.7464137e-02
-1.3820296e-02
-9.5622402e-03
-5.1003114e-03
-8.4282300e-04
2.8914806e-03
5.9081995e-03
8.0905749e-03
9.3700199e-03
9.7045710e-03
9.1599067e-03
8.0231252e-03
6.7465639e-03
5.7146514e-03
5.0714092e-03
4.7983076e-03
4.8087927e-03
4.9572390e-03
5.0673186e-03
4.9185048e-03
4.2465028e-03
2.8151777e-03
5.2613167e-04
-2.5024175e-03
-5.9580476e-03
-9.3992857e-03
-1.2342309e-02
-1.4397529e-02
-1.5449769e-02
-1.5699403e-02
-1.5453444e-02
-1.4913785e-02
-1.4080903e-02
-1.2795992e-02
-1.0884844e-02
-8.2358002e-03
-4.8335611e-03
-7.5383723e-04
3.8226489e-03
8.5807164e-03
1.3196686e-02
1.7507626e-02
2.1575496e-02
2.5575741e-02
2.9569664e-02
3.3406165e-02
3.6822489e-02
3.9569025e-02
4.1304585e-02
4.1495735e-02
3.9633986e-02
3.5457818e-02
2.9005918e-02
2.0619053e-02
1.0975067e-02
1.0611885e-03
-8.1362129e-03
-1.5949950e-02
-2.2059766e-02
-2.6377779e-02
-2.9009838e-02
-3.0341881e-02
-3.1042811e-02
-3.1890758e-02
-3.3503879e-02
-3.6166048e-02
-3.9840729e-02
-4.4156153e-02
-4.8439658e-02
-5.1941335e-02
-5.4058090e-02
-5.4314103e-02
-5.2120757e-02
-4.6810380e-02
-3.8007883e-02
-2.5890062e-02
-1.1173351e-02
5.0719695e-03
2.1504395e-02
3.6516507e-02
4.8512528e-02
5.6440974e-02
6.0136479e-02
6.0091026e-02
5.6987002e-02
5.1466951e-02
4.4150905e-02
3.5787796e-02
2.7255485e-02
1.9349087e-02
1.2589223e-02
7.1981953e-03
3.2736752e-03
8.4861212e-04
-2.3687663e-04
-3.8167649e-04
-1.0308291e-04
2.2239040e-04
4.6152885e-04
5.5296568e-04
4.2594043e-04
1.1520907e-04
-2.1394133e-04
-4.0365310e-04
-3.6780072e-04
-1.0356424e-04
2.8839930e-04
6.8419058e-04
9.9664059e-04
1.1235307e-03
8.0257892e-04
-4.3726215e-04
-3.0591274e-03
-7.2714808e-03
-1.2860660e-02
-1.9180927e-02
-2.5365751e-02
-3.0553687e-02
-3.4055253e-02
-3.5462683e-02
-3.4788676e-02
-3.2485221e-02
-2.9135792e-02
-2.5229684e-02
-2.1168292e-02
-1.7295567e-02
-1.3893165e-02
-1.1093986e-02
-8.8312641e-03
-6.8528744e-03
-4.8018563e-03
-2.3541616e-03
7.2608711e-04
4.5669730e-03
9.1644559e-03
1.4337984e-02
1.9728620e-02
2.4919666e-02
2.9539677e-02
3.3336875e-02
3.6205800e-02
3.8161093e-02
3.9330850e-02
3.9921052e-02
4.0180969e-02
4.0285011e-02
4.0176535e-02
3.9555684e-02
3.7961551e-02
3.4953543e-02
3.0197922e-02
2.3375225e-02
1.4250027e-02
3.0770191e-03
-8.9852043e-03
-2.0196246e-02
-2.9123032e-02
-3.5122231e-02
-3.8242209e-02
-3.8889228e-02
-3.7588129e-02
-3.4926377e-02
-3.1539498e-02
-2.8078016e-02
-2.5071879e-02
-2.2825898e-02
-2.1480361e-02
-2.1124246e-02
-2.1854113e-02
-2.3689990e-02
-2.6445479e-02
-2.9670636e-02
-3.2743291e-02
-3.5031398e-02
-3.5871544e-02
-3.4585816e-02
-3.0684127e-02
-2.4012361e-02
-1.4905987e-02
-4.3228455e-03
6.3910081e-03
1.6111165e-02
2.4293900e-02
3.0779543e-02
3.5516659e-02
3.8484452e-02
3.9773075e-02
3.9701454e-02
3.8806858e-02
3.7732201e-02
3.7088402e-02
3.7292801e-02
3.8302460e-02
3.9531622e-02
4.0265817e-02
4.0081093e-02
3.8817910e-02
3.6298324e-02
3.2206324e-02
2.6222212e-02
1.8135979e-02
7.9525827e-03
-3.9344929e-03
-1.6608690e-02
-2.8722319e-02
-3.8929934e-02
-4.6337371e-02
-5.0700039e-02
-5.2319159e-02
-5.1712612e-02
-4.9363184e-02
-4.5599912e-02
-4.0632692e-02
-3.4685152e-02
-2.8007616e-02
-2.0859844e-02
-1.3536664e-02
-6.3624523e-03
4.2915617e-04
6.8055856e-03
1.2835902e-02
1.8529250e-02
2.3704063e-02
2.8014075e-02
3.1156560e-02
3.2991916e-02
3.3572789e-02
3.3057696e-02
3.1507591e-02
2.8795692e-02
2.4766536e-02
1.9514775e-02
1.3358732e-02
6.6243624e-03
-3.6114706e-04
-7.2230195e-03
-1.3544362e-02
-1.8937860e-02
-2.3208296e-02
-2.6477264e-02
-2.9097656e-02
-3.1335986e-02
-3.3220278e-02
-3.4703828e-02
-3.5830796e-02
-3.6615915e-02
-3.6751904e-02
-3.5675571e-02
-3.2894117e-02
-2.8095092e-02
-2.1068481e-02
-1.1674253e-02
-3.3285314e-05
1.3166703e-02
2.6514102e-02
3.8232745e-02
4.6977906e-02
5.2199976e-02
5.3889085e-02
5.2221423e-02
4.7467991e-02
4.0204665e-02
3.1366711e-02
2.1971073e-02
1.2776513e-02
4.1969838e-03
-3.4354878e-03
-9.6407293e-03
-1.3898549e-02
-1.6014801e-02
-1.6242814e-02
-1.4954060e-02
-1.2387007e-02
-8.6571162e-03
-3.8983108e-03
1.6022174e-03
7.4471628e-03
1.3227455e-02
1.8553470e-02
2.2962225e-02
2.5864502e-02
2.6714321e-02
2.5202334e-02
2.1345024e-02
1.5406620e-02
7.7783509e-03
-1.0467351e-03
-1.0518123e-02
-1.9991333e-02
-2.8725865e-02
-3.6126544e-02
-4.1955206e-02
-4.6218398e-02
-4.8882311e-02
-4.9855992e-02
-4.9132632e-02
-4.6773921e-02
-4.2869210e-02
-3.7505594e-02
-3.0754917e-02
-2.2705215e-02
-1.3539276e-02
-3.6099322e-03
6.5995181e-03
1.6428852e-02
2.5004034e-02
3.1449111e-02
3.5163146e-02
3.6028883e-02
3.4400242e-02
3.0895307e-02
2.6153223e-02
2.0686631e-02
1.5030279e-02
9.8326898e-03
5.6245969e-03
2.6654582e-03
1.0776499e-03
9.8169962e-04
2.3962107e-03
5.1346169e-03
8.7840375e-03
1.2728049e-02
1.6311729e-02
1.8922230e-02
1.9991128e-02
1.9051314e-02
1.5870649e-02
1.0829719e-02
5.0876395e-03
5.3943239e-05
-3.3722685e-03
-5.0993014e-03
-5.6136543e-03
-5.6189908e-03
-5.7116290e-03
-6.2769155e-03
-7.5430020e-03
-9.4774397e-03
-1.1796795e-02
-1.4160060e-02
-1.6276233e-02
-1.7922262e-02
-1.8890767e-02
-1.8973464e-02
-1.7996506e-02
-1.5891650e-02
-1.2789854e-02
-9.0099318e-03
-4.9795305e-03
-1.1182611e-03
2.2053692e-03
4.6435646e-03
6.0262626e-03
6.5389464e-03
6.5952301e-03
6.5193005e-03
6.4297007e-03
6.3582884e-03
6.3006193e-03
6.2197376e-03
6.0302268e-03
5.5853229e-03
4.8114845e-03
3.8199922e-03
2.8502412e-03
2.0837918e-03
1.5097188e-03
9.7339978e-04
2.5694900e-04
-8.4990593e-04
-2.4769000e-03
-4.5688040e-03
-6.7952693e-03
-8.6563172e-03
-9.7065287e-03
-9.8045329e-03
-9.1654537e-03
-8.0618712e-03
-6.5655821e-03
-4.5521974e-03
-1.8746746e-03
1.4817098e-03
5.3631352e-03
9.4717412e-03
1.3507911e-02
1.7198648e-02
2.0167575e-02
2.2027668e-02
2.2587308e-02
2.1882300e-02
2.0028387e-02
1.7111508e-02
1.3231686e-02
8.5511505e-03
3.3220280e-03
-2.1904900e-03
-7.8190513e-03
-1.3388141e-02
-1.8567416e-02
-2.2861013e-02
-2.5775583e-02
-2.7089009e-02
-2.6896808e-02
-2.5435581e-02
-2.2970103e-02
-1.9862649e-02
-1.6578543e-02
-1.3533859e-02
-1.1042973e-02
-9.2996112e-03
-8.3290730e-03
-7.9593515e-03
-7.8108043e-03
-7.4484302e-03
-6.5514346e-03
-4.9242354e-03
-2.4291340e-03
1.0442486e-03
5.5427771e-03
1.1077148e-02
1.7572868e-02
2.4681644e-02
3.1738918e-02
3.7908888e-02
4.2380932e-02
4.4518605e-02
4.4021008e-02
4.1042978e-02
3.6083379e-02
2.9766836e-02
2.2658202e-02
1.5194109e-02
7.7294697e-03
5.8060670e-04
-5.9207532e-03
-1.1427687e-02
-1.5678506e-02
-1.8637738e-02
-2.0530816e-02
-2.1655175e-02
-2.2195082e-02
-2.2213507e-02
-2.1799056e-02
-2.1207944e-02
-2.0767868e-02
-2.0701865e-02
-2.1096495e-02
-2.1978127e-02
-2.3321990e-02
-2.4939863e-02
-2.6452510e-02
-2.7360507e-02
-2.7213918e-02
-2.5808902e-02
-2.3139005e-02
-1.9265230e-02
-1.4346659e-02
-8.7315187e-03
-2.8573692e-03
3.0187268e-03
8.8953552e-03
1.4898203e-02
2.1094706e-02
2.7380782e-02
3.3547534e-02
3.9330855e-02
4.4438563e-02
4.8547635e-02
5.1222361e-02
5.2000716e-02
5.0593458e-02
4.6942453e-02
4.1134371e-02
3.3326280e-02
2.3711369e-02
1.2501224e-02
4.4851219e-05
-1.3018779e-02
-2.5715861e-02
-3.6898861e-02
-4.5640481e-02
-5.1486980e-02
-5.4420303e-02
-5.4697503e-02
-5.2707610e-02
-4.8871841e-02
-4.3497680e-02
-3.6799906e-02
-2.9083127e-02
-2.0748868e-02
-1.2147790e-02
-3.4814393e-03
5.1059300e-03
1.3399648e-02
2.1096443e-02
2.7829107e-02
3.3237034e-02
3.6961134e-02
3.8638727e-02
3.8019714e-02
3.5063992e-02
3.0007672e-02
2.3369509e-02
1.5901765e-02
8.4218807e-03
1.5463146e-03
-4.3940749e-03
-9.3176754e-03
-1.3288324e-02
-1.6386938e-02
-1.8677450e-02
-2.0119554e-02
-2.0555757e-02
-1.9838211e-02
-1.7913471e-02
-1.4819998e-02
-1.0575121e-02
-5.2072346e-03
1.0363675e-03
7.6630145e-03
1.4103549e-02
1.9858016e-02
2.4496966e-02
2.7632375e-02
2.8922882e-02
2.8139978e-02
2.5340278e-02
2.0888700e-02
1.5315416e-02
9.1713990e-03
2.9512023e-03
-2.8480635e-03
-7.7304230e-03
-1.1317568e-02
-1.3496109e-02
-1.4483625e-02
-1.4650345e-02
-1.4354629e-02
-1.3924785e-02
-1.3651932e-02
-1.3781676e-02
-1.4531676e-02
-1.6183783e-02
-1.9035280e-02
-2.3138094e-02
-2.8112559e-02
-3.3133685e-02
-3.7110619e-02
-3.8990936e-02
-3.8059815e-02
-3.4117021e-02
-2.7435559e-02
-1.8664795e-02
-8.7535124e-03
1.1800048e-03
1.0051440e-02
1.7073379e-02
2.1957537e-02
2.4944382e-02
2.6576836e-02
2.7388298e-02
2.7767160e-02
2.7967522e-02
2.8210734e-02
2.8738851e-02
2.9750328e-02
3.1365688e-02
3.3630300e-02
3.6471229e-02
3.9579500e-02
4.2400124e-02
4.4284333e-02
4.4632400e-02
4.3040015e-02
3.9304653e-02
3.3333479e-02
2.5250561e-02
1.5563341e-02
5.1351248e-03
-5.1464699e-03
-1.4711536e-02
-2.3284413e-02
-3.0704966e-02
-3.6828261e-02
-4.1553242e-02
-4.4904684e-02
-4.7022026e-02
-4.8063423e-02
-4.8144481e-02
-4.7491401e-02
-4.6542443e-02
-4.5739979e-02
-4.5279245e-02
-4.4990190e-02
-4.4495446e-02
-4.3516168e-02
-4.1941329e-02
-3.9645902e-02
-3.6313832e-02
-3.1546805e-02
-2.5104071e-02
-1.6976051e-02
-7.4080977e-03
3.0180920e-03
1.3402506e-02
2.2866148e-02
3.0912608e-02
3.7421252e-02
4.2471527e-02
4.6162709e-02
4.8568788e-02
4.9825131e-02
5.0120153e-02
4.9719746e-02
4.9043895e-02
4.8591005e-02
4.8695013e-02
4.9354455e-02
5.0331779e-02
5.1312375e-02
5.1922187e-02
5.1564451e-02
4.9334542e-02
4.4339822e-02
3.6091208e-02
2.4612672e-02
1.0332787e-02
-5.9092054e-03
-2.2646789e-02
-3.7981134e-02
-5.0273300e-02
-5.8648329e-02
-6.2963891e-02
-6.3493902e-02
-6.0799027e-02
-5.5711259e-02
-4.9189872e-02
-4.2163552e-02
-3.5450103e-02
-2.9735243e-02
-2.5482998e-02
-2.2851988e-02
-2.1746427e-02
-2.1903591e-02
-2.2967668e-02
-2.4464375e-02
-2.5788900e-02
-2.6301847e-02
-2.5376228e-02
-2.2459441e-02
-1.7220021e-02
-9.7902893e-03
-9.5412663e-04
7.9951664e-03
1.5725546e-02
2.1437499e-02
2.5019748e-02
2.6747208e-02
2.7072135e-02
2.6600405e-02
2.6043854e-02
2.5959285e-02
2.6508813e-02
2.7644846e-02
2.9324855e-02
3.1402296e-02
3.3461471e-02
3.4927255e-02
3.5413812e-02
3.4912393e-02
3.3670816e-02
3.1813178e-02
2.9060152e-02
2.5005481e-02
1.9554311e-02
1.2932328e-02
5.4092567e-03
-2.7220940e-03
-1.0941529e-02
-1.8533816e-02
-2.4789281e-02
-2.9217604e-02
-3.1735248e-02
-3.2661480e-02
-3.2528376e-02
-3.1826147e-02
-3.0927994e-02
-3.0159056e-02
-2.9721806e-02
-2.9553261e-02
-2.9273578e-02
-2.8354048e-02
-2.6399743e-02
-2.3239202e-02
-1.8852626e-02
-1.3278560e-02
-6.6165786e-03
9.3638267e-04
9.1198661e-03
1.7584571e-02
2.5910438e-02
3.3652926e-02
4.0274165e-02
4.5159497e-02
4.7824833e-02
4.8109451e-02
4.6096716e-02
4.1957981e-02
3.5955560e-02
2.8414038e-02
1.9649833e-02
9.9377483e-03
-4.1059099e-04
-1.0925651e-02
-2.1087423e-02
-3.0483998e-02
-3.8831311e-02
-4.5962547e-02
-5.1792137e-02
-5.6193131e-02
-5.8900700e-02
-5.9650381e-02
-5.8289790e-02
-5.4673230e-02
-4.8584153e-02
-3.9758497e-02
-2.8112469e-02
-1.4065838e-02
1.3629052e-03
1.6751121e-02
3.0720170e-02
4.2334159e-02
5.1149485e-02
5.7038899e-02
6.0091676e-02
6.0578496e-02
5.8746208e-02
5.4712490e-02
4.8640000e-02
4.0868458e-02
3.1913193e-02
2.2391517e-02
1.2920070e-02
4.0211709e-03
-3.8918429e-03
-1.0439909e-02
-1.5283364e-02
-1.8184154e-02
-1.9121748e-02
-1.8402980e-02
-1.6524840e-02
-1.3968042e-02
-1.1124166e-02
-8.3046857e-03
-5.7732998e-03
-3.7047950e-03
-2.1086517e-03
-8.3182478e-04
2.7813356e-04
1.2134528e-03
1.8675139e-03
2.1414356e-03
1.9492512e-03
1.1258879e-03
-6.0413325e-04
-3.4702807e-03
-7.5227528e-03
-1.2621650e-02
-1.8563281e-02
-2.5159572e-02
-3.2086114e-02
-3.8760623e-02
-4.4345133e-02
-4.7871207e-02
-4.8493536e-02
-4.5702537e-02
-3.9457172e-02
-3.0318878e-02
-1.9562355e-02
-8.8721316e-03
3.2917808e-04
7.2694588e-03
1.1853302e-02
1.4458946e-02
1.5646751e-02
1.6076473e-02
1.6510151e-02
1.7699679e-02
2.0191765e-02
2.4218172e-02
2.9762818e-02
3.6681120e-02
4.4762600e-02
5.3600015e-02
6.2442663e-02
7.0335456e-02
7.6342791e-02
7.9577319e-02
7.9065534e-02
7.3835228e-02
6.3332549e-02
4.7804984e-02
2.8488250e-02
7.4169064e-03
-1.3167557e-02
-3.1426217e-02
-4.6225634e-02
-5.7095428e-02
-6.4110446e-02
-6.7782944e-02
-6.8844018e-02
-6.7959394e-02
-6.5591191e-02
-6.2174331e-02
-5.8220555e-02
-5.4130597e-02
-5.0040890e-02
-4.5789719e-02
-4.1052364e-02
-3.5563639e-02
-2.9239538e-02
-2.2202896e-02
-1.4660497e-02
-6.7495137e-03
1.5234836e-03
1.0205144e-02
1.9209394e-02
2.8210485e-02
3.6559039e-02
4.3342342e-02
4.7718379e-02
4.9228055e-02
4.7923623e-02
4.4260937e-02
3.8848122e-02
3.2246198e-02
2.4916284e-02
1.7328944e-02
9.9813978e-03
3.2588720e-03
-2.6412847e-03
-7.6410542e-03
-1.1662478e-02
-1.4627498e-02
-1.6499319e-02
-1.7340643e-02
-1.7373250e-02
-1.6877800e-02
-1.6125494e-02
-1.5364860e-02
-1.4763456e-02
-1.4407804e-02
-1.4267850e-02
-1.4135093e-02
-1.3644761e-02
-1.2515141e-02
-1.0823128e-02
-8.8001634e-03
-6.4237700e-03
-3.3949216e-03
5.4166403e-04
5.3361158e-03
1.0680906e-02
1.6181106e-02
2.1482044e-02
2.6292556e-02
3.0319125e-02
3.3301635e-02
3.5141708e-02
3.6002976e-02
3.6189503e-02
3.5847765e-02
3.4871272e-02
3.2994285e-02
2.9868692e-02
2.5071921e-02
1.8256310e-02
9.5944687e-03
-1.6231305e-05
-9.3142596e-03
-1.7213070e-02
-2.3114153e-02
-2.6886236e-02
-2.8726559e-02
-2.9018240e-02
-2.8226650e-02
-2.6934246e-02
-2.5851319e-02
-2.5624105e-02
-2.6556469e-02
-2.8583312e-02
-3.1445237e-02
-3.4724035e-02
-3.7853404e-02
-4.0259936e-02
-4.1535608e-02
-4.1440806e-02
-3.9724576e-02
-3.6080869e-02
-3.0268349e-02
-2.2232910e-02
-1.2184047e-02
-6.7102193e-04
1.1347675e-02
2.2748361e-02
3.2657826e-02
4.0585302e-02
4.6289960e-02
4.9638442e-02
5.0637112e-02
4.9445396e-02
4.6301994e-02
4.1589855e-02
3.5880074e-02
2.9810309e-02
2.3911811e-02
1.8519665e-02
1.3827276e-02
1.0023062e-02
7.3161946e-03
5.6886482e-03
4.7967922e-03
4.2220878e-03
3.5916480e-03
2.5633157e-03
8.2599607e-04
-1.9051333e-03
-5.7920879e-03
-1.0757528e-02
-1.6470231e-02
-2.2476858e-02
-2.8328986e-02
-3.3544755e-02
-3.7558786e-02
-3.9803543e-02
-3.9963684e-02
-3.8154760e-02
-3.4763441e-02
-3.0130989e-02
-2.4396133e-02
-1.7673324e-02
-1.0220361e-02
-2.3319044e-03
5.7188270e-03
1.3639044e-02
2.1110241e-02
2.7816573e-02
3.3448559e-02
3.7640156e-02
3.9984228e-02
4.0154237e-02
3.8049654e-02
3.3871748e-02
2.8121748e-02
2.1489147e-02
1.4517522e-02
7.4645705e-03
5.1584045e-04
-6.0671898e-03
-1.1940308e-02
-1.6796871e-02
-2.0456497e-02
-2.2795696e-02
-2.3742030e-02
-2.3333093e-02
-2.1748553e-02
-1.9283006e-02
-1.6280828e-02
-1.3092109e-02
-1.0028674e-02
-7.3400148e-03
-5.1593842e-03
-3.5086853e-03
-2.3597917e-03
-1.5921243e-03
-1.0441449e-03
-6.1437239e-04
-2.5872501e-04
1.9307467e-05
2.5490286e-04
6.1442292e-04
1.3195212e-03
2.4130472e-03
3.6702332e-03
4.8392945e-03
5.8424010e-03
6.7567015e-03
7.6680720e-03
8.5464496e-03
9.3432680e-03
1.0136281e-02
1.1090935e-02
1.2238192e-02
1.3336408e-02
1.4036321e-02
1.4085113e-02
1.3417083e-02
1.2147635e-02
1.0474963e-02
8.5636644e-03
6.4426453e-03
4.0592910e-03
1.3962942e-03
-1.5206953e-03
-4.6113087e-03
-7.6612798e-03
-1.0240394e-02
-1.1870488e-02
-1.2348157e-02
-1.1824151e-02
-1.0671050e-02
-9.2871592e-03
-8.0571359e-03
-7.4295253e-03
-7.7977784e-03
-9.3907079e-03
-1.2317955e-02
-1.6592858e-02
-2.2040035e-02
-2.8180621e-02
-3.4250616e-02
-3.9259975e-02
-4.2109838e-02
-4.1771423e-02
-3.7433111e-02
-2.8677234e-02
-1.5638983e-02
7.9675373e-04
1.8906518e-02
3.6516928e-02
5.1616194e-02
6.2704421e-02
6.8883075e-02
6.9936856e-02
6.6311108e-02
5.8877510e-02
4.8786026e-02
3.7321786e-02
2.5613623e-02
1.4489215e-02
4.5411202e-03
-3.8084217e-03
-1.0402393e-02
-1.5435297e-02
-1.9316421e-02
-2.2426292e-02
-2.4896534e-02
-2.6627157e-02
-2.7523404e-02
-2.7590797e-02
-2.6820794e-02
-2.5137270e-02
-2.2640586e-02
-1.9770559e-02
-1.7046930e-02
-1.4725785e-02
-1.2654907e-02
-1.0498579e-02
-8.1208584e-03
-5.6403634e-03
-3.1837665e-03
-6.9997764e-04
1.8922995e-03
4.4918671e-03
6.8191817e-03
8.5244975e-03
9.3956545e-03
9.4729615e-03
8.9866680e-03
8.2580501e-03
7.5773478e-03
7.1953595e-03
7.3124145e-03
7.9407062e-03
8.8611647e-03
9.7705982e-03
1.0483077e-02
1.0937741e-02
1.1099869e-02
1.0953815e-02
1.0527345e-02
9.9172803e-03
9.2202857e-03
8.4051842e-03
7.2985625e-03
5.7040085e-03
3.5247599e-03
7.1688820e-04
-2.7272037e-03
-6.6738482e-03
-1.0840433e-02
-1.4857531e-02
-1.8391083e-02
-2.1251116e-02
-2.3392988e-02
-2.4856604e-02
-2.5636974e-02
-2.5638064e-02
-2.4744873e-02
-2.2951161e-02
-2.0445541e-02
-1.7466395e-02
-1.4165643e-02
-1.0682246e-02
-7.2676246e-03
-4.2668918e-03
-1.8991461e-03
-8.8860829e-05
1.4992288e-03
3.2220107e-03
5.2584328e-03
7.7206370e-03
1.0754047e-02
1.4456204e-02
1.8798673e-02
2.3655538e-02
2.8917541e-02
3.4444729e-02
3.9907689e-02
4.4760947e-02
4.8376260e-02
5.0227224e-02
4.9959142e-02
4.7365436e-02
4.2260468e-02
3.4413756e-02
2.3806905e-02
1.0957093e-02
-2.9807435e-03
-1.6523027e-02
-2.8453215e-02
-3.8121265e-02
-4.5301602e-02
-4.9956861e-02
-5.2204361e-02
-5.2328359e-02
-5.0646806e-02
-4.7436356e-02
-4.2934325e-02
-3.7385185e-02
-3.1121700e-02
-2.4597266e-02
-1.8346575e-02
-1.2817877e-02
-8.2472556e-03
-4.5747462e-03
-1.3994555e-03
1.7775385e-03
5.3173264e-03
9.4376002e-03
1.4271089e-02
1.9861317e-02
2.6021390e-02
3.2268833e-02
3.7922805e-02
4.2285206e-02
4.4837518e-02
4.5330345e-02
4.3771204e-02
4.0275937e-02
3.4935312e-02
2.7827993e-02
1.9068222e-02
8.9230194e-03
-2.1534092e-03
-1.3668589e-02
-2.5208819e-02
-3.6353494e-02
-4.6451960e-02
-5.4683343e-02
-6.0359048e-02
-6.3014056e-02
-6.2329345e-02
-5.8098494e-02
-5.0301870e-02
-3.9186811e-02
-2.5325507e-02
-9.6755339e-03
6.5327449e-03
2.2037494e-02
3.5760442e-02
4.6886704e-02
5.4836539e-02
5.9363439e-02
6.0602783e-02
5.8888158e-02
5.4570723e-02
4.8001048e-02
3.9614803e-02
2.9939122e-02
1.9546677e-02
8.9984513e-03
-1.2470901e-03
-1.0783335e-02
-1.9194912e-02
-2.6147518e-02
-3.1482901e-02
-3.5197421e-02
-3.7321360e-02
-3.7925031e-02
-3.7174868e-02
-3.5256306e-02
-3.2289443e-02
-2.8314945e-02
-2.3434852e-02
-1.7954125e-02
-1.2315764e-02
-6.9434302e-03
-2.0887283e-03
2.2036089e-03
6.0107213e-03
9.3568336e-03
1.2069026e-02
1.3942795e-02
1.4956372e-02
1.5261216e-02
1.5107423e-02
1.4800378e-02
1.4678322e-02
1.4970555e-02
1.5617054e-02
1.6272845e-02
1.6567325e-02
1.6438876e-02
1.6043896e-02
1.5420652e-02
1.4445552e-02
1.2955220e-02
1.0870852e-02
8.2704288e-03
5.3788687e-03
2.5151751e-03
-1.5335655e-05
-1.9776857e-03
-3.2064306e-03
-3.6121949e-03
-3.2185744e-03
-2.2246651e-03
-1.0193604e-03
-1.8285289e-04
-3.8930157e-04
-2.1598259e-03
-5.6595558e-03
-1.0646400e-02
-1.6624389e-02
-2.3075536e-02
-2.9516159e-02
-3.5344878e-02
-3.9764686e-02
-4.2034065e-02
-4.1747705e-02
-3.8868962e-02
-3.3644084e-02
-2.6517458e-02
-1.8104518e-02
-9.1334401e-03
-3.1827754e-04
7.7990239e-03
1.4984958e-02
2.1289195e-02
2.6903380e-02
3.1920353e-02
3.6190623e-02
3.9502219e-02
4.1757058e-02
4.2982619e-02
4.3194321e-02
4.2205596e-02
3.9745170e-02
3.5722314e-02
3.0213235e-02
2.3227508e-02
1.4698037e-02
4.8422270e-03
-5.6097039e-03
-1.5655321e-02
-2.4457239e-02
-3.1507809e-02
-3.6483137e-02
-3.9196575e-02
-3.9694407e-02
-3.8278094e-02
-3.5368413e-02
-3.1312066e-02
-2.6372280e-02
-2.0819806e-02
-1.4976093e-02
-9.1835904e-03
-3.7384267e-03
1.0946163e-03
5.1218691e-03
8.2809040e-03
1.0615164e-02
1.2289692e-02
1.3552327e-02
1.4626885e-02
1.5639849e-02
1.6618810e-02
1.7562904e-02
1.8451508e-02
1.9180537e-02
1.9520023e-02
1.9222261e-02
1.8199999e-02
1.6508993e-02
1.4250350e-02
1.1547434e-02
8.5587747e-03
5.4880514e-03
2.5858423e-03
1.3855088e-04
-1.7356743e-03
-3.2881261e-03
-4.9752196e-03
-7.1229602e-03
-9.7365404e-03
-1.2614149e-02
-1.5563550e-02
-1.8473223e-02
-2.1303261e-02
-2.3979593e-02
-2.6322784e-02
-2.8163112e-02
-2.9467819e-02
-3.0259390e-02
-3.0406188e-02
-2.9658821e-02
-2.7892223e-02
-2.5198691e-02
-2.1757204e-02
-1.7706326e-02
-1.3206315e-02
-8.4443220e-03
-3.5382429e-03
1.4632572e-03
6.6019961e-03
1.2065043e-02
1.8108357e-02
2.4787404e-02
3.1819551e-02
3.8810717e-02
4.5476641e-02
5.1710964e-02
5.7471214e-02
6.2452399e-02
6.5977852e-02
6.7295562e-02
6.5934245e-02
6.1705968e-02
5.4456121e-02
4.4034440e-02
3.0520006e-02
1.4499326e-02
-2.8264254e-03
-1.9931409e-02
-3.5498912e-02
-4.8736829e-02
-5.9250302e-02
-6.6866385e-02
-7.1628258e-02
-7.3718567e-02
-7.3293650e-02
-7.0333729e-02
-6.4731250e-02
-5.6572443e-02
-4.6245320e-02
-3.4384039e-02
-2.1763160e-02
-9.2281380e-03
2.3748329e-03
1.2355311e-02
2.0269986e-02
2.5922099e-02
2.9228872e-02
3.0071842e-02
2.8404536e-02
2.4490692e-02
1.9013891e-02
1.2872305e-02
6.8356047e-03
1.4192512e-03
-3.0727593e-03
-6.4485570e-03
-8.6059505e-03
-9.5697637e-03
-9.4047000e-03
-8.1444413e-03
-5.8265554e-03
-2.5732290e-03
1.3903336e-03
5.8407674e-03
1.0608203e-02
1.5558283e-02
2.0529177e-02
2.5254714e-02
2.9387812e-02
3.2568213e-02
3.4523282e-02
3.5133877e-02
3.4408190e-02
3.2455027e-02
2.9459069e-02
2.5659788e-02
2.1342967e-02
1.6828477e-02
1.2358828e-02
7.9953898e-03
3.7236106e-03
-4.9534770e-04
-4.7921358e-03
-9.3381957e-03
-1.4197992e-02
-1.9221891e-02
-2.4155780e-02
-2.8821487e-02
-3.3130919e-02
-3.7012738e-02
-4.0318655e-02
-4.2890225e-02
-4.4755754e-02
-4.6097870e-02
-4.6954093e-02
-4.7012742e-02
-4.5833705e-02
-4.3160443e-02
-3.8927733e-02
-3.3191461e-02
-2.6213162e-02
-1.8583910e-02
-1.1049031e-02
-4.1310220e-03
2.0206266e-03
7.5056659e-03
1.2458978e-02
1.6973782e-02
2.1114631e-02
2.4965562e-02
2.8806865e-02
3.3138739e-02
3.8432737e-02
4.4836407e-02
5.2078389e-02
5.9626065e-02
6.6791876e-02
7.2749079e-02
7.6573676e-02
7.7345002e-02
7.4394646e-02
6.7535497e-02
5.7082265e-02
4.3684458e-02
2.8182731e-02
1.1679931e-02
-4.3453999e-03
-1.8263290e-02
-2.8953260e-02
-3.6249880e-02
-4.0716510e-02
-4.3168939e-02
-4.4377236e-02
-4.5075736e-02
-4.5963967e-02
-4.7483384e-02
-4.9718530e-02
-5.2496339e-02
-5.5544003e-02
-5.8575061e-02
-6.1292648e-02
-6.3421856e-02
-6.4622003e-02
-6.4425003e-02
-6.2365305e-02
-5.8056388e-02
-5.1151340e-02
-4.1313509e-02
-2.8398874e-02
-1.2762376e-02
4.5607067e-03
2.1927423e-02
3.7615740e-02
5.0428529e-02
5.9847698e-02
6.5842177e-02
6.8642634e-02
6.8707878e-02
6.6670507e-02
6.3094918e-02
5.8330215e-02
5.2616310e-02
4.6296845e-02
3.9846954e-02
3.3704769e-02
2.8087169e-02
2.2936326e-02
1.8089745e-02
1.3412978e-02
8.7604544e-03
3.8838594e-03
-1.5430156e-03
-7.6347517e-03
-1.4131902e-02
-2.0614073e-02
-2.6715976e-02
-3.2055114e-02
-3.6078101e-02
-3.8244414e-02
-3.8317241e-02
-3.6416421e-02
-3.2912965e-02
-2.8211717e-02
-2.2644010e-02
-1.6517317e-02
-1.0183804e-02
-4.0744116e-03
1.4286939e-03
6.0760812e-03
9.6637347e-03
1.1983410e-02
1.2924943e-02
1.2588646e-02
1.1162421e-02
8.8199315e-03
5.8178344e-03
2.5576411e-03
-4.3809407e-04
-2.7331641e-03
-4.1945575e-03
-4.9221226e-03
-5.1035842e-03
-4.9248437e-03
-4.5037248e-03
-3.9199164e-03
-3.3439227e-03
-3.0465113e-03
-3.1523881e-03
-3.5081552e-03
-3.8532430e-03
-4.0525010e-03
-4.1461144e-03
-4.1405694e-03
-3.9291119e-03
-3.5042532e-03
-3.0358507e-03
-2.6280562e-03
-2.0787908e-03
-9.7493793e-04
1.0076029e-03
3.8601275e-03
7.2485863e-03
1.0779017e-02
1.4122843e-02
1.6892300e-02
1.8520717e-02
1.8396748e-02
1.6275890e-02
1.2472372e-02
7.6153099e-03
2.3253612e-03
-2.9299648e-03
-7.7999965e-03
-1.1963292e-02
-1.5062557e-02
-1.6799840e-02
-1.7119938e-02
-1.6162043e-02
-1.4110838e-02
-1.1183988e-02
-7.6997892e-03
-4.0021538e-03
-2.3390551e-04
3.7006937e-03
7.9952769e-03
1.2715174e-02
1.7544163e-02
2.1838237e-02
2.4959947e-02
2.6549270e-02
2.6568384e-02
2.5251218e-02
2.3014390e-02
2.0224125e-02
1.7019350e-02
1.3346096e-02
9.1266196e-03
4.4203515e-03
-5.7279958e-04
-5.6134349e-03
-1.0600541e-02
-1.5667159e-02
-2.0991745e-02
-2.6519415e-02
-3.1839888e-02
-3.6355034e-02
-3.9581177e-02
-4.1306896e-02
-4.1557041e-02
-4.0404198e-02
-3.7867478e-02
-3.3929661e-02
-2.8510971e-02
-2.1504413e-02
-1.2866800e-02
-2.7816518e-03
8.1282854e-03
1.8822910e-02
2.8162080e-02
3.5314690e-02
3.9980486e-02
4.2317280e-02
4.2689715e-02
4.1449473e-02
3.8931335e-02
3.5479638e-02
3.1367277e-02
2.6736290e-02
2.1628269e-02
1.6114827e-02
1.0336045e-02
4.3942336e-03
-1.6912389e-03
-7.8781038e-03
-1.3929540e-02
-1.9440092e-02
-2.4075009e-02
-2.7750996e-02
-3.0565985e-02
-3.2574238e-02
-3.3748138e-02
-3.4123762e-02
-3.3919092e-02
-3.3464234e-02
-3.2921948e-02
-3.2134469e-02
-3.0713410e-02
-2.8241821e-02
-2.4453966e-02
-1.9294024e-02
-1.2894573e-02
-5.4171578e-03
3.0654133e-03
1.2454716e-02
2.2501931e-02
3.2855710e-02
4.3234652e-02
5.3407068e-02
6.2973152e-02
7.1350287e-02
7.7965825e-02
8.2329871e-02
8.3860126e-02
8.1810113e-02
7.5510433e-02
6.4734221e-02
4.9972034e-02
3.2261471e-02
1.2755532e-02
-7.4958882e-03
-2.7632640e-02
-4.6971796e-02
-6.4910415e-02
-8.0855941e-02
-9.4165671e-02
-1.0407945e-01
-1.0969456e-01
-1.1020061e-01
-1.0525763e-01
-9.5156849e-02
-8.0696037e-02
-6.2866776e-02
-4.2680388e-02
-2.1248756e-02
1.2239426e-04
2.0061612e-02
3.7476990e-02
5.1695397e-02
6.2338815e-02
6.9202440e-02
7.2206661e-02
7.1543864e-02
6.7758574e-02
6.1509049e-02
5.3342271e-02
4.3727012e-02
3.3171804e-02
2.2226822e-02
1.1464140e-02
1.3720073e-03
-7.7971723e-03
-1.5864677e-02
-2.2527897e-02
-2.7500079e-02
-3.0718738e-02
-3.2285104e-02
-3.2257379e-02
-3.0693849e-02
-2.7815005e-02
-2.3957085e-02
-1.9376032e-02
-1.4153436e-02
-8.3964458e-03
-2.4089327e-03
3.4420778e-03
8.9145422e-03
1.3937044e-02
1.8512794e-02
2.2612374e-02
2.6043100e-02
2.8378367e-02
2.9191024e-02
2.8280122e-02
2.5588381e-02
2.1036361e-02
1.4582907e-02
6.4757320e-03
-2.6865227e-03
-1.2122420e-02
-2.1057252e-02
-2.8771156e-02
-3.4485002e-02
-3.7453704e-02
-3.7310236e-02
-3.4270251e-02
-2.8990069e-02
-2.2202294e-02
-1.4489546e-02
-6.2599309e-03
2.1494220e-03
1.0296640e-02
1.7631137e-02
2.3649541e-02
2.7970279e-02
3.0266125e-02
3.0310258e-02
2.8185140e-02
2.4308890e-02
1.9277072e-02
1.3691183e-02
8.0941773e-03
3.0207553e-03
-1.0685985e-03
-3.8859521e-03
-5.3714962e-03
-5.7721633e-03
-5.6119838e-03
-5.5307323e-03
-6.0266663e-03
-7.3007273e-03
-9.3091061e-03
-1.1841758e-02
-1.4561852e-02
-1.6993731e-02
-1.8618129e-02
-1.9082896e-02
-1.8303412e-02
-1.6458710e-02
-1.3867021e-02
-1.0853864e-02
-7.6823276e-03
-4.4697261e-03
-1.2292012e-03
2.0071921e-03
5.1138012e-03
7.9145860e-03
1.0255756e-02
1.2001635e-02
1.3157326e-02
1.3930398e-02
1.4524800e-02
1.4942910e-02
1.4998471e-02
1.4507754e-02
1.3359091e-02
1.1460840e-02
8.8029957e-03
5.5469972e-03
2.0268259e-03
-1.3778739e-03
-4.3633738e-03
-6.7619319e-03
-8.5681986e-03
-9.8255866e-03
-1.0517477e-02
-1.0546644e-02
-9.7867170e-03
-8.2628001e-03
-6.2503530e-03
-4.1165446e-03
-2.0640737e-03
-7.1651644e-05
1.9535626e-03
4.0227615e-03
6.0374147e-03
7.8730389e-03
9.3498703e-03
1.0156441e-02
9.9928322e-03
8.7717011e-03
6.6244923e-03
3.7261128e-03
2.0236435e-04
-3.8276056e-03
-8.2449791e-03
-1.2874556e-02
-1.7385327e-02
-2.1298340e-02
-2.4169125e-02
-2.5788690e-02
-2.6122296e-02
-2.5148448e-02
-2.2826580e-02
-1.9209591e-02
-1.4578740e-02
-9.3083760e-03
-3.5806684e-03
2.7339894e-03
9.8724093e-03
1.7770479e-02
2.5978296e-02
3.3955350e-02
4.1262231e-02
4.7443725e-02
5.1937261e-02
5.4209923e-02
5.3820597e-02
5.0463539e-02
4.4078486e-02
3.4881961e-02
2.3509561e-02
1.1186087e-02
-4.9993322e-04
-1.0273705e-02
-1.7624824e-02
-2.2592058e-02
-2.5461735e-02
-2.6712871e-02
-2.7054128e-02
-2.7347034e-02
-2.8287672e-02
-3.0175051e-02
-3.2961034e-02
-3.6432809e-02
-4.0342670e-02
-4.4391823e-02
-4.8134811e-02
-5.0895024e-02
-5.1914772e-02
-5.0638527e-02
-4.6815023e-02
-4.0449629e-02
-3.1622006e-02
-2.0408560e-02
-7.0768220e-03
7.7190914e-03
2.2882555e-02
3.7098957e-02
4.9187714e-02
5.8270765e-02
6.3815812e-02
6.5641545e-02
6.3980105e-02
5.9407135e-02
5.2561955e-02
4.4044548e-02
3.4516473e-02
2.4749010e-02
1.5448753e-02
7.0757173e-03
-9.9849358e-05
-5.9333706e-03
-1.0413688e-02
-1.3687561e-02
-1.6029393e-02
-1.7721954e-02
-1.8969023e-02
-1.9803783e-02
-2.0119094e-02
-1.9802280e-02
-1.8727698e-02
-1.6741623e-02
-1.3771796e-02
-9.9763454e-03
-5.7150091e-03
-1.3455148e-03
2.9058556e-03
6.9452947e-03
1.0619296e-02
1.3553283e-02
1.5280418e-02
1.5444590e-02
1.3955782e-02
1.1003024e-02
6.8836608e-03
1.8122343e-03
-4.0881927e-03
-1.0559593e-02
-1.7107637e-02
-2.3140185e-02
-2.8154500e-02
-3.1823096e-02
-3.3874120e-02
-3.4075268e-02
-3.2407256e-02
-2.9147627e-02
-2.4814599e-02
-2.0032096e-02
-1.5422012e-02
-1.1445704e-02
-8.2369279e-03
-5.6086450e-03
-3.1262815e-03
-2.7967987e-04
3.3101641e-03
7.7996745e-03
1.3130543e-02
1.9211460e-02
2.6031735e-02
3.3550382e-02
4.1564500e-02
4.9627059e-02
5.7112139e-02
6.3385590e-02
6.7769529e-02
6.9300546e-02
6.6841037e-02
5.9616854e-02
4.7537337e-02
3.1231656e-02
1.2028495e-02
-8.1895373e-03
-2.7339937e-02
-4.3653641e-02
-5.6005125e-02
-6.4000809e-02
-6.7914091e-02
-6.8333828e-02
-6.5811153e-02
-6.0803083e-02
-5.3831604e-02
-4.5594935e-02
-3.6841196e-02
-2.8218595e-02
-2.0197062e-02
-1.3055629e-02
-6.9666108e-03
-1.9610803e-03
2.2066370e-03
6.0444664e-03
1.0087933e-02
1.4650100e-02
1.9758116e-02
2.5214275e-02
3.0702685e-02
3.5812182e-02
3.9975654e-02
4.2550345e-02
4.3062317e-02
4.1421284e-02
3.7863968e-02
3.2722606e-02
2.6297306e-02
1.8879776e-02
1.0873811e-02
2.7822443e-03
-4.9407762e-03
-1.1941542e-02
-1.7949319e-02
-2.2784987e-02
-2.6476381e-02
-2.9327012e-02
-3.1772334e-02
-3.4123977e-02
-3.6312524e-02
-3.7884181e-02
-3.8231422e-02
-3.6790381e-02
-3.3198883e-02
-2.7374696e-02
-1.9579022e-02
-1.0464155e-02
-9.0700239e-04
8.2922359e-03
1.6609911e-02
2.3712686e-02
2.9275723e-02
3.2995850e-02
3.4713449e-02
3.4550622e-02
3.2933432e-02
3.0392946e-02
2.7276703e-02
2.3645049e-02
1.9492824e-02
1.4962599e-02
1.0325357e-02
5.8224244e-03
1.5623648e-03
-2.3358864e-03
-5.6768210e-03
-8.3854526e-03
-1.0596579e-02
-1.2491291e-02
-1.4118510e-02
-1.5457149e-02
-1.6542819e-02
-1.7374247e-02
-1.7748859e-02
-1.7318115e-02
-1.5854001e-02
-1.3394162e-02
-1.0194922e-02
-6.5781440e-03
-2.7158389e-03
1.3459522e-03
5.4660627e-03
9.3166878e-03
1.2517845e-02
1.4863197e-02
1.6335144e-02
1.6970980e-02
1.6753268e-02
1.5518539e-02
1.3027653e-02
9.1943418e-03
4.2196198e-03
-1.5323806e-03
-7.7156557e-03
-1.4017638e-02
-2.0102037e-02
-2.5570386e-02
-3.0054272e-02
-3.3304153e-02
-3.5068468e-02
-3.5040543e-02
-3.2970651e-02
-2.8783869e-02
-2.2588047e-02
-1.4585565e-02
-5.1265852e-03
5.2212841e-03
1.5779249e-02
2.5905425e-02
3.5093284e-02
4.3030381e-02
4.9594355e-02
5.4649333e-02
5.7866642e-02
5.8806834e-02
5.7046248e-02
5.2320556e-02
4.4644219e-02
3.4271173e-02
2.1592419e-02
7.2032562e-03
-7.8549579e-03
-2.2200494e-02
-3.4552279e-02
-4.4018213e-02
-5.0202342e-02
-5.3105557e-02
-5.2999305e-02
-5.0414376e-02
-4.6031496e-02
-4.0533337e-02
-3.4500689e-02
-2.8417673e-02
-2.2728954e-02
-1.7745414e-02
-1.3492931e-02
-9.6994762e-03
-6.0374459e-03
-2.3488027e-03
1.4164646e-03
5.3401643e-03
9.5624535e-03
1.4065487e-02
1.8483505e-02
2.2263061e-02
2.4899486e-02
2.6110093e-02
2.5908790e-02
2.4470895e-02
2.1967822e-02
1.8599772e-02
1.4694876e-02
1.0627660e-02
6.7254144e-03
3.2208962e-03
1.8773613e-04
-2.3524781e-03
-4.3109054e-03
-5.5841744e-03
-6.1511853e-03
-6.0775063e-03
-5.4012011e-03
-4.1107154e-03
-2.2570613e-03
-1.2999223e-05
2.4519523e-03
5.1380266e-03
8.1404129e-03
1.1491598e-02
1.5053775e-02
1.8468316e-02
2.1315832e-02
2.3311340e-02
2.4358695e-02
2.4474415e-02
2.3628310e-02
2.1676521e-02
1.8466127e-02
1.3959844e-02
8.1162642e-03
7.9243690e-04
-7.9941556e-03
-1.7887931e-02
-2.8316008e-02
-3.8681651e-02
-4.8489994e-02
-5.7278960e-02
-6.4455733e-02
-6.9313289e-02
-7.1310303e-02
-7.0212480e-02
-6.5925272e-02
-5.8378665e-02
-4.7509562e-02
-3.3402777e-02
-1.6703364e-02
1.0791622e-03
1.7924044e-02
3.2187287e-02
4.3089012e-02
5.0538855e-02
5.4814634e-02
5.6374557e-02
5.5847320e-02
5.3972976e-02
5.1457444e-02
4.8805964e-02
4.6133962e-02
4.3259357e-02
3.9925458e-02
3.5866442e-02
3.0889035e-02
2.4999586e-02
1.8431428e-02
1.1470505e-02
4.3345771e-03
-2.7867433e-03
-9.7839295e-03
-1.6602676e-02
-2.3109427e-02
-2.9026313e-02
-3.3938926e-02
-3.7485002e-02
-3.9564164e-02
-4.0285211e-02
-3.9741634e-02
-3.7941885e-02
-3.4909414e-02
-3.0683795e-02
-2.5331885e-02
-1.9026158e-02
-1.2021453e-02
-4.5623322e-03
3.1540326e-03
1.0903094e-02
1.8421120e-02
2.5413817e-02
3.1478425e-02
3.6137827e-02
3.8918997e-02
3.9381200e-02
3.7148405e-02
3.2020358e-02
2.4137927e-02
1.3967384e-02
2.2739976e-03
-9.8121997e-03
-2.0956288e-02
-2.9954505e-02
-3.5980741e-02
-3.8647108e-02
-3.8028223e-02
-3.4672032e-02
-2.9445991e-02
-2.3325259e-02
-1.7147390e-02
-1.1477694e-02
-6.6588470e-03
-2.7422730e-03
5.6707550e-04
3.7455075e-03
7.1851608e-03
1.1057995e-02
1.5441647e-02
2.0397395e-02
2.5854040e-02
3.1473749e-02
3.6625229e-02
4.0537495e-02
4.2530228e-02
4.2226666e-02
3.9634133e-02
3.5081598e-02
2.9132320e-02
2.2391756e-02
1.5285045e-02
7.9401207e-03
2.5700326e-04
-7.8510132e-03
-1.6299457e-02
-2.4799420e-02
-3.2980466e-02
-4.0616862e-02
-4.7627713e-02
-5.3864020e-02
-5.8948908e-02
-6.2398039e-02
-6.3887004e-02
-6.3269160e-02
-6.0398252e-02
-5.5066536e-02
-4.7178158e-02
-3.6873097e-02
-2.4417633e-02
-1.0199627e-02
5.0867164e-03
2.0277015e-02
3.3863961e-02
4.4464712e-02
5.1241065e-02
5.4070262e-02
5.3391701e-02
4.9899666e-02
4.4446371e-02
3.8069521e-02
3.1890567e-02
2.6832358e-02
2.3431192e-02
2.1852359e-02
2.1920219e-02
2.3234803e-02
2.5283643e-02
2.7434552e-02
2.8987919e-02
2.9316317e-02
2.7995765e-02
2.4795073e-02
1.9591950e-02
1.2378648e-02
3.3939023e-03
-6.6378096e-03
-1.6550649e-02
-2.5233367e-02
-3.2098736e-02
-3.7077537e-02
-4.0229622e-02
-4.1588986e-02
-4.1312145e-02
-3.9673406e-02
-3.6954809e-02
-3.3415176e-02
-2.9321784e-02
-2.4978060e-02
-2.0716028e-02
-1.6793195e-02
-1.3215075e-02
-9.7682742e-03
-6.2286839e-03
-2.5051237e-03
1.3116993e-03
4.9920326e-03
8.2364542e-03
1.0771475e-02
1.2384872e-02
1.2936172e-02
1.2537017e-02
1.1621289e-02
1.0722355e-02
1.0168209e-02
1.0008404e-02
1.0265318e-02
1.1031672e-02
1.2292365e-02
1.3812259e-02
1.5219743e-02
1.6208310e-02
1.6605041e-02
1.6261758e-02
1.4882512e-02
1.2041608e-02
7.5368429e-03
1.6035769e-03
-5.1795491e-03
-1.2061762e-02
-1.8301340e-02
-2.3255014e-02
-2.6422328e-02
-2.7498003e-02
-2.6382101e-02
-2.3117890e-02
-1.7886939e-02
-1.1202627e-02
-3.8818253e-03
3.3330706e-03
1.0010286e-02
1.5971779e-02
2.1113828e-02
2.5289746e-02
2.8224694e-02
2.9531792e-02
2.8955450e-02
2.6530473e-02
2.2498303e-02
1.7112886e-02
1.0572059e-02
3.1726777e-03
-4.6126035e-03
-1.2256096e-02
-1.9368710e-02
-2.5739861e-02
-3.1153630e-02
-3.5295348e-02
-3.7836404e-02
-3.8592839e-02
-3.7573505e-02
-3.4845793e-02
-3.0525737e-02
-2.4858345e-02
-1.8222715e-02
-1.1126411e-02
-4.1507789e-03
2.1806900e-03
7.5675599e-03
1.1924802e-02
1.5269014e-02
1.7750642e-02
1.9683861e-02
2.1494438e-02
2.3561921e-02
2.6049795e-02
2.8931337e-02
3.2057010e-02
3.5190358e-02
3.8053567e-02
4.0345900e-02
4.1750937e-02
4.1950597e-02
4.0639821e-02
3.7460442e-02
3.2082361e-02
2.4570675e-02
1.5560246e-02
5.9912482e-03
-3.3311124e-03
-1.1946455e-02
-1.9640464e-02
-2.6314406e-02
-3.1873214e-02
-3.6201123e-02
-3.9288293e-02
-4.1327367e-02
-4.2634095e-02
-4.3420466e-02
-4.3713520e-02
-4.3483406e-02
-4.2758534e-02
-4.1654128e-02
-4.0272902e-02
-3.8551189e-02
-3.6162544e-02
-3.2567996e-02
-2.7184458e-02
-1.9531195e-02
-9.4361934e-03
2.7716816e-03
1.6180430e-02
2.9353867e-02
4.0751153e-02
4.9224931e-02
5.4242150e-02
5.5865912e-02
5.4492533e-02
5.0544138e-02
4.4327718e-02
3.6106791e-02
2.6318212e-02
1.5703436e-02
5.2500437e-03
-4.0748003e-03
-1.1572975e-02
-1.6887199e-02
-2.0018690e-02
-2.1193907e-02
-2.0725968e-02
-1.9061959e-02
-1.6822179e-02
-1.4719506e-02
-1.3324609e-02
-1.2848739e-02
-1.3143111e-02
-1.3835925e-02
-1.4463425e-02
-1.4539877e-02
-1.3664910e-02
-1.1584501e-02
-8.1877997e-03
-3.5890799e-03
1.8811825e-03
7.8215008e-03
1.3881205e-02
1.9773507e-02
2.5216684e-02
2.9926858e-02
3.3604943e-02
3.5984302e-02
3.6941750e-02
3.6513520e-02
3.4852080e-02
3.2051318e-02
2.7990824e-02
2.2435984e-02
1.5240144e-02
6.5140723e-03
-3.4175216e-03
-1.4204191e-02
-2.5429177e-02
-3.6362347e-02
-4.5924157e-02
-5.3085629e-02
-5.7259319e-02
-5.8341464e-02
-5.6561215e-02
-5.2235767e-02
-4.5641835e-02
-3.7119795e-02
-2.7206018e-02
-1.6537574e-02
-5.6092541e-03
5.2144424e-03
1.5540808e-02
2.4934931e-02
3.2974375e-02
3.9317276e-02
4.3721488e-02
4.6022088e-02
4.6138685e-02
4.4172488e-02
4.0488002e-02
3.5513429e-02
2.9532847e-02
2.2757074e-02
1.5482944e-02
8.2164890e-03
1.6259166e-03
-3.6896448e-03
-7.4864605e-03
-1.0032952e-02
-1.1928604e-02
-1.3736104e-02
-1.5741018e-02
-1.8063522e-02
-2.0840089e-02
-2.4025614e-02
-2.7217466e-02
-2.9889872e-02
-3.1739766e-02
-3.2725689e-02
-3.2775070e-02
-3.1638369e-02
-2.9028763e-02
-2.4800626e-02
-1.9018338e-02
-1.1832786e-02
-3.3232596e-03
6.4142392e-03
1.6844443e-02
2.6743802e-02
3.4655857e-02
3.9575174e-02
4.1192215e-02
3.9695588e-02
3.5508173e-02
2.9184925e-02
2.1404908e-02
1.3016972e-02
4.9337785e-03
-2.1409053e-03
-7.7744975e-03
-1.1695535e-02
-1.3741703e-02
-1.3900060e-02
-1.2347178e-02
-9.4230725e-03
-5.6016719e-03
-1.4335016e-03
2.4789789e-03
5.5368329e-03
7.2837208e-03
7.4401565e-03
5.9798252e-03
3.2366087e-03
-1.8806006e-04
-3.6284432e-03
-6.5317656e-03
-8.4879978e-03
-9.1863672e-03
-8.4406200e-03
-6.2943818e-03
-3.0958015e-03
6.6227456e-04
4.4644841e-03
7.6993955e-03
9.7912558e-03
1.0516302e-02
1.0068090e-02
8.7285573e-03
6.6043963e-03
3.7762268e-03
5.0287026e-04
-2.8238402e-03
-5.9205620e-03
-8.7226321e-03
-1.1237226e-02
-1.3474358e-02
-1.5414658e-02
-1.6923924e-02
-1.7824625e-02
-1.8031466e-02
-1.7506999e-02
-1.6116106e-02
-1.3668988e-02
-1.0046189e-02
-5.2746676e-03
3.6904983e-04
6.3934088e-03
1.2198675e-02
1.7158250e-02
2.0760073e-02
2.2756093e-02
2.3236417e-02
2.2473361e-02
2.0713428e-02
1.8151546e-02
1.4974944e-02
1.1412997e-02
7.6280566e-03
3.5473374e-03
-1.0615948e-03
-6.3465682e-03
-1.2089276e-02
-1.7632473e-02
-2.2150169e-02
-2.4998308e-02
-2.5883471e-02
-2.4816726e-02
-2.2093758e-02
-1.8285199e-02
-1.4036040e-02
-9.8419989e-03
-5.9986699e-03
-2.6596552e-03
1.9608891e-04
2.7829723e-03
5.3923467e-03
8.3206624e-03
1.1758191e-02
1.5682710e-02
1.9897989e-02
2.4065716e-02
2.7760161e-02
3.0566766e-02
3.2114193e-02
3.1983551e-02
2.9662724e-02
2.4785861e-02
1.7487959e-02
8.5323280e-03
-1.0358094e-03
-1.0389948e-02
-1.8985459e-02
-2.6368549e-02
-3.2111412e-02
-3.5916813e-02
-3.7697151e-02
-3.7450377e-02
-3.5146410e-02
-3.0772221e-02
-2.4508500e-02
-1.6842595e-02
-8.4492948e-03
-5.7980591e-06
7.9872329e-03
1.5209823e-02
2.1343949e-02
2.6069309e-02
2.9228350e-02
3.0960588e-02
3.1575714e-02
3.1229855e-02
2.9874131e-02
2.7531530e-02
2.4500122e-02
2.1169170e-02
1.7777184e-02
1.4457998e-02
1.1275159e-02
8.1738068e-03
4.9856698e-03
1.4881410e-03
-2.5378735e-03
-7.3021486e-03
-1.2907606e-02
-1.9321198e-02
-2.6502091e-02
-3.4357141e-02
-4.2541326e-02
-5.0385794e-02
-5.7066081e-02
-6.1822024e-02
-6.4077941e-02
-6.3440280e-02
-5.9591179e-02
-5.2384280e-02
-4.2067916e-02
-2.9278207e-02
-1.4929498e-02
-1.5724232e-04
1.3852432e-02
2.6191196e-02
3.6295066e-02
4.3786395e-02
4.8582067e-02
5.0996121e-02
5.1582015e-02
5.0947037e-02
4.9634306e-02
4.8066111e-02
4.6490261e-02
4.5004997e-02
4.3605805e-02
4.2121965e-02
4.0236365e-02
3.7616280e-02
3.3990436e-02
2.9077103e-02
2.2559030e-02
1.4316020e-02
4.5858339e-03
-6.1033055e-03
-1.7109944e-02
-2.7780213e-02
-3.7286602e-02
-4.4680242e-02
-4.9310587e-02
-5.1017154e-02
-5.0000540e-02
-4.6707199e-02
-4.1749843e-02
-3.5711257e-02
-2.9038186e-02
-2.2097360e-02
-1.5154292e-02
-8.3631524e-03
-1.7934662e-03
4.5397305e-03
1.0594905e-02
1.6223323e-02
2.1024003e-02
2.4354676e-02
2.5656348e-02
2.4732124e-02
2.1751843e-02
1.7057468e-02
1.1033293e-02
4.1358600e-03
-3.0470893e-03
-9.8214544e-03
-1.5583213e-02
-1.9942596e-02
-2.2676104e-02
-2.3695441e-02
-2.3025399e-02
-2.0831942e-02
-1.7436899e-02
-1.3262438e-02
-8.7558847e-03
-4.2407821e-03
1.3228254e-04
4.2597848e-03
7.9749508e-03
1.1103955e-02
1.3638186e-02
1.5737060e-02
1.7554101e-02
1.9100025e-02
2.0259699e-02
2.0891983e-02
2.0822338e-02
1.9855495e-02
1.7912996e-02
1.5102787e-02
1.1599069e-02
7.5324991e-03
3.0957108e-03
-1.4221330e-03
-5.7006765e-03
-9.3814418e-03
-1.2191603e-02
-1.4047414e-02
-1.5042128e-02
-1.5456066e-02
-1.5603013e-02
-1.5577893e-02
-1.5205175e-02
-1.4233511e-02
-1.2505128e-02
-9.9631288e-03
-6.6463525e-03
-2.6146995e-03
2.1067159e-03
7.4376887e-03
1.3171701e-02
1.8974259e-02
2.4447565e-02
2.9161817e-02
3.2664745e-02
3.4572043e-02
3.4626259e-02
3.2753662e-02
2.9097375e-02
2.3961250e-02
1.7747954e-02
1.0914669e-02
3.9267323e-03
-2.8963954e-03
-9.4830269e-03
-1.5895021e-02
-2.2217828e-02
-2.8495046e-02
-3.4713179e-02
-4.0869893e-02
-4.7004923e-02
-5.3082974e-02
-5.8731190e-02
-6.3164227e-02
-6.5400321e-02
-6.4495176e-02
-5.9698582e-02
-5.0588818e-02
-3.7327846e-02
-2.0924131e-02
-3.1561394e-03
1.4001024e-02
2.9090502e-02
4.1325494e-02
5.0297957e-02
5.5844124e-02
5.8107906e-02
5.7579249e-02
5.4931832e-02
5.0849592e-02
4.5989647e-02
4.0918560e-02
3.6099306e-02
3.1909685e-02
2.8560829e-02
2.5999501e-02
2.3934229e-02
2.1975743e-02
1.9700306e-02
1.6664304e-02
1.2402447e-02
6.4305817e-03
-1.5553495e-03
-1.1395525e-02
-2.2289233e-02
-3.2885142e-02
-4.1696859e-02
-4.7597217e-02
-5.0089156e-02
-4.9147232e-02
-4.4997501e-02
-3.8178532e-02
-2.9544224e-02
-2.0083609e-02
-1.0750629e-02
-2.4054846e-03
4.2309680e-03
8.7138517e-03
1.0978380e-02
1.1336024e-02
1.0308132e-02
8.4123684e-03
6.1136391e-03
3.8827856e-03
2.2323212e-03
1.5705014e-03
1.9928649e-03
3.2964019e-03
5.1545559e-03
7.3068534e-03
9.6129190e-03
1.2007510e-02
1.4471806e-02
1.6925345e-02
1.9158635e-02
2.0859179e-02
2.1666779e-02
2.1314209e-02
1.9718670e-02
1.6936603e-02
1.3043325e-02
8.0587240e-03
1.9771990e-03
-5.1620904e-03
-1.3173842e-02
-2.1686619e-02
-3.0180114e-02
-3.8065774e-02
-4.4792529e-02
-4.9838709e-02
-5.2679498e-02
-5.2850162e-02
-5.0067166e-02
-4.4327311e-02
-3.5937351e-02
-2.5603746e-02
-1.4418998e-02
-3.5373540e-03
6.2261791e-03
1.4558344e-02
2.1454414e-02
2.6991076e-02
3.1301029e-02
3.4610043e-02
3.7233500e-02
3.9465129e-02
4.1487138e-02
4.3372370e-02
4.5102935e-02
4.6582379e-02
4.7616912e-02
4.7957735e-02
4.7253431e-02
4.4929213e-02
4.0336834e-02
3.3065496e-02
2.3140399e-02
1.0951913e-02
-2.9060253e-03
-1.7632495e-02
-3.2203115e-02
-4.5438087e-02
-5.6230411e-02
-6.3827275e-02
-6.7915145e-02
-6.8544652e-02
-6.5959404e-02
-6.0547209e-02
-5.2920166e-02
-4.3813519e-02
-3.3818591e-02
-2.3182306e-02
-1.1955567e-02
-3.2663940e-04
1.1300753e-02
2.2456289e-02
3.2742181e-02
4.1798437e-02
4.9243437e-02
5.4676443e-02
5.7616830e-02
5.7559111e-02
5.4127723e-02
4.7206245e-02
3.7114596e-02
2.4723008e-02
1.1274804e-02
-2.0419407e-03
-1.4321110e-02
-2.4894948e-02
-3.3256511e-02
-3.8986746e-02
-4.1902374e-02
-4.2217179e-02
-4.0412675e-02
-3.7085569e-02
-3.2849194e-02
-2.8240330e-02
-2.3668242e-02
-1.9407376e-02
-1.5540140e-02
-1.1815983e-02
-7.7255077e-03
-2.8078726e-03
3.0926962e-03
9.8006031e-03
1.6996574e-02
2.4328781e-02
3.1392398e-02
3.7722373e-02
4.2893305e-02
4.6667245e-02
4.8951628e-02
4.9669698e-02
4.8665973e-02
4.5675993e-02
4.0497241e-02
3.3189921e-02
2.4117633e-02
1.3788325e-02
2.6548892e-03
-8.8868123e-03
-2.0450965e-02
-3.1668434e-02
-4.2211054e-02
-5.1755128e-02
-5.9853744e-02
-6.5942543e-02
-6.9480480e-02
-7.0147945e-02
-6.7961359e-02
-6.3103743e-02
-5.5681670e-02
-4.5684653e-02
-3.3297419e-02
-1.9275419e-02
-4.8392024e-03
8.7999745e-03
2.0817875e-02
3.0823184e-02
3.8730901e-02
4.4616892e-02
4.8540706e-02
5.0555280e-02
5.0803778e-02
4.9455802e-02
4.6669233e-02
4.2694585e-02
3.7966513e-02
3.2980652e-02
2.8119184e-02
2.3653367e-02
1.9794253e-02
1.6674591e-02
1.4171872e-02
1.1764241e-02
8.7024374e-03
4.3543576e-03
-1.4953919e-03
-8.5732117e-03
-1.6274595e-02
-2.3870457e-02
-3.0630171e-02
-3.5882420e-02
-3.9149986e-02
-4.0227605e-02
-3.9169372e-02
-3.6248120e-02
-3.1800726e-02
-2.6128410e-02
-1.9503490e-02
-1.2225751e-02
-4.6602757e-03
2.8569588e-03
1.0038195e-02
1.6559545e-02
2.2003202e-02
2.5842260e-02
2.7565205e-02
2.6869769e-02
2.3769642e-02
1.8511924e-02
1.1410894e-02
2.8261714e-03
-6.7238254e-03
-1.6444205e-02
-2.5414699e-02
-3.2905956e-02
-3.8407473e-02
-4.1508703e-02
-4.1928592e-02
-3.9641922e-02
-3.4896656e-02
-2.8095302e-02
-1.9695248e-02
-1.0088686e-02
4.0274523e-04
1.1336143e-02
2.2053872e-02
3.1861356e-02
4.0301236e-02
4.7142095e-02
5.2207793e-02
5.5368617e-02
5.6603918e-02
5.6062363e-02
5.3960065e-02
5.0391223e-02
4.5326444e-02
3.8771230e-02
3.1010812e-02
2.2608275e-02
1.4072921e-02
5.6431256e-03
-2.6399195e-03
-1.0712518e-02
-1.8434861e-02
-2.5679179e-02
-3.2332779e-02
-3.8275149e-02
-4.3366810e-02
-4.7535318e-02
-5.0837818e-02
-5.3367211e-02
-5.5151572e-02
-5.6051522e-02
-5.5805642e-02
-5.4210462e-02
-5.1146524e-02
-4.6518550e-02
-4.0282316e-02
-3.2530233e-02
-2.3455901e-02
-1.3284546e-02
-2.3339239e-03
8.9260117e-03
1.9863486e-02
2.9839669e-02
3.8462500e-02
4.5597904e-02
5.1160382e-02
5.4955773e-02
5.6771215e-02
5.6525939e-02
5.4287759e-02
5.0280208e-02
4.4814315e-02
3.8164006e-02
3.0523942e-02
2.2054825e-02
1.3019657e-02
3.8785003e-03
-4.7334804e-03
-1.2170124e-02
-1.8000751e-02
-2.2096319e-02
-2.4594147e-02
-2.5796917e-02
-2.6083579e-02
-2.5805919e-02
-2.5125255e-02
-2.3973469e-02
-2.2169618e-02
-1.9672726e-02
-1.6755313e-02
-1.3834975e-02
-1.1201411e-02
-8.8540653e-03
-6.5511045e-03
-4.0229890e-03
-1.0889551e-03
2.3211225e-03
6.1277086e-03
1.0013450e-02
1.3432669e-02
1.5843849e-02
1.6975270e-02
1.6892174e-02
1.5758056e-02
1.3652383e-02
1.0730516e-02
7.3062233e-03
3.6742068e-03
-5.5011493e-05
-3.8935310e-03
-7.7994591e-03
-1.1660693e-02
-1.5349439e-02
-1.8698132e-02
-2.1460337e-02
-2.3371978e-02
-2.4224944e-02
-2.3775738e-02
-2.1751479e-02
-1.8048648e-02
-1.2825591e-02
-6.4504232e-03
5.9533570e-04
7.8120993e-03
1.4822578e-02
2.1472323e-02
2.7729243e-02
3.3516887e-02
3.8610292e-02
4.2617246e-02
4.5012201e-02
4.5262575e-02
4.3102947e-02
3.8662133e-02
3.2393622e-02
2.4990501e-02
1.7210112e-02
9.6769624e-03
2.7927738e-03
-3.2650961e-03
-8.5840664e-03
-1.3513215e-02
-1.8397800e-02
-2.3343484e-02
-2.8255349e-02
-3.2998195e-02
-3.7494415e-02
-4.1673261e-02
-4.5402919e-02
-4.8482144e-02
-5.0705121e-02
-5.1929916e-02
-5.2046638e-02
-5.0931884e-02
-4.8428347e-02
-4.4391499e-02
-3.8714250e-02
-3.1256837e-02
-2.1925252e-02
-1.0951348e-02
8.4370369e-04
1.2202723e-02
2.2050913e-02
2.9944841e-02
3.6046539e-02
4.0805876e-02
4.4590853e-02
4.7485773e-02
4.9375588e-02
5.0236301e-02
5.0219904e-02
4.9489894e-02
4.8153600e-02
4.6320858e-02
4.4155454e-02
4.1772707e-02
3.9102488e-02
3.5918857e-02
3.1981115e-02
2.7154373e-02
2.1335828e-02
1.4362566e-02
6.0736525e-03
-3.5813112e-03
-1.4314112e-02
-2.5321365e-02
-3.5465930e-02
-4.3731642e-02
-4.9547700e-02
-5.2759055e-02
-5.3496882e-02
-5.2023853e-02
-4.8616539e-02
-4.3634255e-02
-3.7523046e-02
-3.0713214e-02
-2.3601250e-02
-1.6596134e-02
-1.0065285e-02
-4.1748512e-03
1.1203413e-03
5.9179472e-03
1.0130339e-02
1.3369935e-02
1.5200543e-02
1.5463509e-02
1.4374259e-02
1.2337073e-02
9.6244980e-03
6.2930908e-03
2.3788284e-03
-1.8789239e-03
-6.0400058e-03
-9.6295942e-03
-1.2220915e-02
-1.3540938e-02
-1.3582157e-02
-1.2527231e-02
-1.0586430e-02
-7.9537163e-03
-4.7626261e-03
-9.2504409e-04
3.7735430e-03
9.3934153e-03
1.5747867e-02
2.2450732e-02
2.9082328e-02
3.5227411e-02
4.0379084e-02
4.4096751e-02
4.6221109e-02
4.6777600e-02
4.5731891e-02
4.3037725e-02
3.8842273e-02
3.3444505e-02
2.7122102e-02
2.0001594e-02
1.2090175e-02
3.3813552e-03
-6.0894864e-03
-1.6072984e-02
-2.6030481e-02
-3.5345054e-02
-4.3581150e-02
-5.0569358e-02
-5.6239057e-02
-6.0485560e-02
-6.3240174e-02
-6.4517659e-02
-6.4286563e-02
-6.2328254e-02
-5.8358802e-02
-5.2194850e-02
-4.3780359e-02
-3.3212444e-02
-2.0721292e-02
-6.6596257e-03
8.4602463e-03
2.3886795e-02
3.8552968e-02
5.1291842e-02
6.1259549e-02
6.8137552e-02
7.1951848e-02
7.2797982e-02
7.0780814e-02
6.6038324e-02
5.8747848e-02
4.9140221e-02
3.7556512e-02
2.4580607e-02
1.0990085e-02
-2.5775082e-03
-1.5870407e-02
-2.8800571e-02
-4.1008870e-02
-5.1750447e-02
-6.0082051e-02
-6.5195620e-02
-6.6660731e-02
-6.4366444e-02
-5.8443419e-02
-4.9333570e-02
-3.7964108e-02
-2.5789427e-02
-1.4373489e-02
-4.7946789e-03
2.5845550e-03
7.9143624e-03
1.1606945e-02
1.4185661e-02
1.6162605e-02
1.8056233e-02
2.0383549e-02
2.3553850e-02
2.7805524e-02
3.3139956e-02
3.9301915e-02
4.5775997e-02
5.1813391e-02
5.6537370e-02
5.9090190e-02
5.8895481e-02
5.5792322e-02
4.9879860e-02
4.1334277e-02
3.0417827e-02
1.7666243e-02
3.9529466e-03
-9.6394396e-03
-2.2031368e-02
-3.2388387e-02
-4.0226745e-02
-4.5439775e-02
-4.8279111e-02
-4.9254348e-02
-4.8946935e-02
-4.7741233e-02
-4.5815762e-02
-4.3366540e-02
-4.0621553e-02
-3.7689043e-02
-3.4554963e-02
-3.1229823e-02
-2.7781755e-02
-2.4279079e-02
-2.0731446e-02
-1.7013297e-02
-1.2907131e-02
-8.2313522e-03
-2.9687607e-03
2.7194385e-03
8.6657017e-03
1.4767419e-02
2.0850277e-02
2.6475150e-02
3.0929796e-02
3.3521960e-02
3.3899467e-02
3.2216813e-02
2.9064812e-02
2.5209216e-02
2.1378904e-02
1.8120770e-02
1.5722753e-02
1.4215333e-02
1.3407708e-02
1.2963370e-02
1.2479021e-02
1.1592174e-02
1.0081439e-02
7.9392905e-03
5.4013672e-03
2.8449414e-03
6.3007362e-04
-1.1173412e-03
-2.6206340e-03
-4.2388062e-03
-6.1799278e-03
-8.3894368e-03
-1.0671881e-02
-1.2886775e-02
-1.4940017e-02
-1.6651367e-02
-1.7746512e-02
-1.8073267e-02
-1.7759898e-02
-1.7079511e-02
-1.6226435e-02
-1.5186048e-02
-1.3781764e-02
-1.1821572e-02
-9.2573852e-03
-6.2813508e-03
-3.1491000e-03
6.3297196e-05
3.4827806e-03
7.2656462e-03
1.1429849e-02
1.5925627e-02
2.0732683e-02
2.5795525e-02
3.0859285e-02
3.5356099e-02
3.8576044e-02
3.9950806e-02
3.9198976e-02
3.6236286e-02
3.0984470e-02
2.3469585e-02
1.4059129e-02
3.4476142e-03
-7.5992077e-03
-1.8439647e-02
-2.8523157e-02
-3.7326752e-02
-4.4361834e-02
-4.9318384e-02
-5.2262793e-02
-5.3595751e-02
-5.3809188e-02
-5.3233344e-02
-5.1990480e-02
-5.0086216e-02
-4.7358036e-02
-4.3416128e-02
-3.7736555e-02
-2.9928823e-02
-2.0074611e-02
-8.9000159e-03
2.4335658e-03
1.2912251e-02
2.2016434e-02
2.9580784e-02
3.5600714e-02
4.0182432e-02
4.3548271e-02
4.5899478e-02
4.7285013e-02
4.7686195e-02
4.7142681e-02
4.5857105e-02
4.4197156e-02
4.2541861e-02
4.1123128e-02
4.0047719e-02
3.9437794e-02
3.9315510e-02
3.9336701e-02
3.8705254e-02
3.6350228e-02
3.1352383e-02
2.3319995e-02
1.2647884e-02
5.8343534e-04
-1.1238045e-02
-2.1492934e-02
-2.9524055e-02
-3.5233705e-02
-3.8849872e-02
-4.0767256e-02
-4.1422487e-02
-4.1270798e-02
-4.0703571e-02
-3.9927918e-02
-3.9010828e-02
-3.7999170e-02
-3.7093530e-02
-3.6654480e-02
-3.6981453e-02
-3.8166882e-02
-4.0023618e-02
-4.2049974e-02
-4.3482306e-02
-4.3486109e-02
-4.1377341e-02
-3.6728670e-02
-2.9495552e-02
-2.0152327e-02
-9.7536871e-03
3.1587500e-04
8.9766675e-03
1.5830228e-02
2.0998426e-02
2.4749312e-02
2.7319711e-02
2.9093712e-02
3.0723555e-02
3.2935730e-02
3.6218357e-02
4.0710918e-02
4.6307257e-02
5.2704136e-02
5.9419375e-02
6.5794221e-02
7.1039726e-02
7.4398793e-02
7.5231917e-02
7.3066794e-02
6.7656720e-02
5.8954955e-02
4.7050657e-02
3.2229586e-02
1.5200308e-02
-2.8623630e-03
-2.0560973e-02
-3.6592585e-02
-4.9996674e-02
-6.0209937e-02
-6.7084261e-02
-7.0887657e-02
-7.2129299e-02
-7.1333392e-02
-6.8917783e-02
-6.5247043e-02
-6.0675569e-02
-5.5491892e-02
-4.9925294e-02
-4.4165760e-02
-3.8387114e-02
-3.2735509e-02
-2.7293863e-02
-2.2067033e-02
-1.6865040e-02
-1.1320861e-02
-5.0911215e-03
2.0235936e-03
9.9702274e-03
1.8316427e-02
2.6206197e-02
3.2572606e-02
3.6568381e-02
3.7878698e-02
3.6773144e-02
3.3929558e-02
3.0166369e-02
2.6177785e-02
2.2425270e-02
1.9241410e-02
1.6891977e-02
1.5631433e-02
1.5706329e-02
1.7162508e-02
1.9779814e-02
2.3262905e-02
2.7394791e-02
3.1891353e-02
3.6201562e-02
3.9646019e-02
4.1633040e-02
4.1653195e-02
3.9205151e-02
3.3931353e-02
2.5984691e-02
1.6254491e-02
6.1540297e-03
-3.0025435e-03
-1.0541332e-02
-1.6468127e-02
-2.1239670e-02
-2.5505685e-02
-2.9880679e-02
-3.4757590e-02
-4.0227383e-02
-4.6151824e-02
-5.2212228e-02
-5.8016666e-02
-6.3261938e-02
-6.7709181e-02
-7.1071709e-02
-7.2980643e-02
-7.3090297e-02
-7.1166823e-02
-6.7030549e-02
-6.0445968e-02
-5.1017566e-02
-3.8385539e-02
-2.2694159e-02
-4.8334612e-03
1.3745657e-02
3.1562883e-02
4.7552131e-02
6.1081411e-02
7.1744694e-02
7.9260918e-02
8.3570660e-02
8.4837917e-02
8.3331064e-02
7.9373537e-02
7.3397180e-02
6.6040035e-02
5.8020221e-02
4.9906854e-02
4.2041004e-02
3.4552554e-02
2.7499688e-02
2.0927058e-02
1.4705076e-02
8.3790780e-03
1.2585538e-03
-7.2700219e-03
-1.7495079e-02
-2.9205522e-02
-4.1552126e-02
-5.3146857e-02
-6.2485034e-02
-6.8500254e-02
-7.0772744e-02
-6.9400033e-02
-6.4832511e-02
-5.7652891e-02
-4.8482648e-02
-3.8021164e-02
-2.6943581e-02
-1.5736369e-02
-4.7460925e-03
5.6296097e-03
1.4954342e-02
2.2808228e-02
2.8759718e-02
3.2501743e-02
3.3974150e-02
3.3320544e-02
3.0782269e-02
2.6666847e-02
2.1433884e-02
1.5667543e-02
9.9374628e-03
4.6152697e-03
-2.4564923e-04
-4.7443205e-03
-8.8848152e-03
-1.2464134e-02
-1.5149291e-02
-1.6701984e-02
-1.7102556e-02
-1.6493654e-02
-1.5061363e-02
-1.3016536e-02
-1.0619285e-02
-8.0866517e-03
-5.4517654e-03
-2.5195211e-03
9.5081023e-04
5.0420233e-03
9.6810651e-03
1.4696363e-02
1.9861100e-02
2.4857051e-02
2.9236734e-02
3.2560000e-02
3.4550728e-02
3.5119996e-02
3.4240900e-02
3.1870385e-02
2.8037259e-02
2.2955313e-02
1.7075920e-02
1.0893206e-02
4.6652417e-03
-1.5892309e-03
-7.9162882e-03
-1.4242809e-02
-2.0386487e-02
-2.6224865e-02
-3.1727396e-02
-3.6846272e-02
-4.1428037e-02
-4.5280640e-02
-4.8243033e-02
-5.0140798e-02
-5.0759616e-02
-4.9786636e-02
-4.6814792e-02
-4.1513067e-02
-3.3753877e-02
-2.3567633e-02
-1.1118780e-02
3.0254820e-03
1.7658277e-02
3.1207604e-02
4.2302564e-02
5.0105468e-02
5.4276958e-02
5.4855075e-02
5.2165423e-02
4.6813868e-02
3.9739980e-02
3.2024258e-02
2.4545372e-02
1.7746711e-02
1.1667597e-02
6.2672065e-03
1.5634287e-03
-2.4958141e-03
-6.0791757e-03
-9.3930068e-03
-1.2565232e-02
-1.5620300e-02
-1.8514429e-02
-2.1160774e-02
-2.3427035e-02
-2.5069058e-02
-2.5738722e-02
-2.5136192e-02
-2.3227765e-02
-2.0309236e-02
-1.6833274e-02
-1.3251429e-02
-9.8852760e-03
-6.8596633e-03
-4.1600795e-03
-1.6339114e-03
1.0139729e-03
4.1267591e-03
7.8976449e-03
1.2247448e-02
1.6961965e-02
2.1905693e-02
2.7116518e-02
3.2611877e-02
3.8087105e-02
4.2896112e-02
4.6249324e-02
4.7456009e-02
4.5989671e-02
4.1428545e-02
3.3637756e-02
2.3110321e-02
1.1050307e-02
-1.1006261e-03
-1.2269213e-02
-2.1872789e-02
-2.9640645e-02
-3.5414261e-02
-3.9069368e-02
-4.0674784e-02
-4.0645909e-02
-3.9588579e-02
-3.7962097e-02
-3.6022818e-02
-3.3976503e-02
-3.2051317e-02
-3.0545862e-02
-2.9712835e-02
-2.9576501e-02
-2.9945789e-02
-3.0448377e-02
-3.0476847e-02
-2.9240072e-02
-2.6113330e-02
-2.0970163e-02
-1.4130264e-02
-6.1847261e-03
2.0849588e-03
9.8169741e-03
1.6305578e-02
2.1181013e-02
2.4441881e-02
2.6472778e-02
2.7879989e-02
2.9182317e-02
3.0647547e-02
3.2346808e-02
3.4362425e-02
3.6818981e-02
3.9704817e-02
4.2808977e-02
4.5814572e-02
4.8420453e-02
5.0348224e-02
5.1283735e-02
5.0822153e-02
4.8436220e-02
4.3606875e-02
3.6049548e-02
2.5906526e-02
1.3752900e-02
4.5951432e-04
-1.2846802e-02
-2.4943909e-02
-3.4861665e-02
-4.2113223e-02
-4.6672884e-02
-4.8754012e-02
-4.8661143e-02
-4.6835282e-02
-4.3956035e-02
-4.0855670e-02
-3.8181188e-02
-3.6183159e-02
-3.4835893e-02
-3.4098842e-02
-3.3988696e-02
-3.4385978e-02
-3.4891250e-02
-3.4896395e-02
-3.3851691e-02
-3.1423860e-02
-2.7289697e-02
-2.0970663e-02
-1.2029310e-02
-4.8229740e-04
1.2922630e-02
2.6831449e-02
3.9711282e-02
5.0334802e-02
5.8008784e-02
6.2472706e-02
6.3687350e-02
6.1750292e-02
5.7019715e-02
5.0118046e-02
4.1772471e-02
3.2712155e-02
2.3577843e-02
1.4895879e-02
7.0046317e-03
-7.1375748e-05
-6.5368604e-03
-1.2590919e-02
-1.8268914e-02
-2.3557209e-02
-2.8535778e-02
-3.3209383e-02
-3.7330963e-02
-4.0499110e-02
-4.2391728e-02
-4.2870833e-02
-4.1944492e-02
-3.9706316e-02
-3.6202280e-02
-3.1400068e-02
-2.5355161e-02
-1.8321952e-02
-1.0642748e-02
-2.5527216e-03
5.7759367e-03
1.4112299e-02
2.2219518e-02
2.9883307e-02
3.6868556e-02
4.2901349e-02
4.7716044e-02
5.1069940e-02
5.2694030e-02
5.2381887e-02
5.0069017e-02
4.5704710e-02
3.9123350e-02
3.0169791e-02
1.9028419e-02
6.3585569e-03
-6.8142675e-03
-1.9240122e-02
-2.9708670e-02
-3.7394852e-02
-4.2000909e-02
-4.3631685e-02
-4.2671623e-02
-3.9651128e-02
-3.4992820e-02
-2.8985238e-02
-2.2018955e-02
-1.4723374e-02
-7.8135830e-03
-1.8358619e-03
2.8570354e-03
6.0700270e-03
7.7567701e-03
7.9187254e-03
6.6067498e-03
4.0311124e-03
6.0101026e-04
-3.2146633e-03
-7.0040199e-03
-1.0324332e-02
-1.2747561e-02
-1.4041165e-02
-1.4220813e-02
-1.3456253e-02
-1.1889666e-02
-9.5659536e-03
-6.4578917e-03
-2.5057420e-03
2.2912545e-03
7.7932602e-03
1.3695650e-02
1.9614602e-02
2.5103394e-02
2.9573285e-02
3.2425210e-02
3.3284452e-02
3.2064325e-02
2.8873185e-02
2.4039446e-02
1.8240238e-02
1.2325930e-02
6.9558359e-03
2.4124950e-03
-1.3489239e-03
-4.5863050e-03
-7.6817869e-03
-1.0906687e-02
-1.4242601e-02
-1.7466442e-02
-2.0316118e-02
-2.2623755e-02
-2.4246422e-02
-2.4915922e-02
-2.4315353e-02
-2.2294991e-02
-1.8964670e-02
-1.4553180e-02
-9.3222098e-03
-3.6447009e-03
2.0148970e-03
7.2365673e-03
1.1769486e-02
1.5472589e-02
1.8152880e-02
1.9608780e-02
1.9815010e-02
1.9004201e-02
1.7496983e-02
1.5445595e-02
1.2773265e-02
9.3555895e-03
5.3116838e-03
1.0270807e-03
-3.0663695e-03
-6.5993686e-03
-9.3105245e-03
-1.1079562e-02
-1.1936428e-02
-1.2047897e-02
-1.1684909e-02
-1.1157032e-02
-1.0653726e-02
-1.0230164e-02
-9.9502822e-03
-9.9261077e-03
-1.0229544e-02
-1.0747841e-02
-1.1216816e-02
-1.1392798e-02
-1.1087755e-02
-1.0090391e-02
-8.1080381e-03
-4.8623299e-03
-2.5482628e-04
5.4966912e-03
1.1818029e-02
1.7994727e-02
2.3380382e-02
2.7403096e-02
2.9577492e-02
2.9622728e-02
2.7617456e-02
2.4012279e-02
1.9500338e-02
1.4803529e-02
1.0437673e-02
6.6872818e-03
3.7158903e-03
1.5637758e-03
2.2981259e-05
-1.3347171e-03
-2.8909889e-03
-4.8536277e-03
-7.2829413e-03
-1.0116746e-02
-1.3287975e-02
-1.6777938e-02
-2.0461831e-02
-2.3946240e-02
-2.6665174e-02
-2.8110507e-02
-2.7958148e-02
-2.6156352e-02
-2.2905821e-02
-1.8524178e-02
-1.3337018e-02
-7.6006106e-03
-1.5101957e-03
4.7676985e-03
1.1056412e-02
1.7091351e-02
2.2492525e-02
2.6798907e-02
2.9595499e-02
3.0568504e-02
2.9428074e-02
2.6010785e-02
2.0570941e-02
1.3869594e-02
6.7648539e-03
-2.5559522e-04
-6.9991524e-03
-1.3245135e-02
-1.8681486e-02
-2.3096786e-02
-2.6503870e-02
-2.9035183e-02
-3.0758799e-02
-3.1616540e-02
-3.1593658e-02
-3.0807228e-02
-2.9330077e-02
-2.7059600e-02
-2.3708738e-02
-1.8972283e-02
-1.2766441e-02
-5.2121257e-03
3.4816643e-03
1.3053559e-02
2.3210007e-02
3.3624056e-02
4.3888227e-02
5.3510932e-02
6.1973142e-02
6.8646879e-02
7.2733877e-02
7.3451097e-02
7.0315879e-02
6.3351241e-02
5.3025589e-02
4.0058265e-02
2.5367730e-02
1.0093829e-02
-4.5421620e-03
-1.7577112e-02
-2.8504790e-02
-3.7257739e-02
-4.4077342e-02
-4.9218771e-02
-5.2784300e-02
-5.4830219e-02
-5.5496418e-02
-5.5008293e-02
-5.3645816e-02
-5.1777196e-02
-4.9745869e-02
-4.7718005e-02
-4.5670844e-02
-4.3294908e-02
-3.9989488e-02
-3.5141586e-02
-2.8409278e-02
-1.9795504e-02
-9.5634845e-03
1.8504862e-03
1.3904782e-02
2.5901684e-02
3.6875270e-02
4.5738725e-02
5.1639673e-02
5.4242552e-02
5.3706276e-02
5.0477796e-02
4.5255108e-02
3.8960466e-02
3.2475174e-02
2.6293990e-02
2.0467795e-02
1.4903678e-02
9.6091188e-03
4.6949027e-03
2.3414621e-04
-3.8151655e-03
-7.5297877e-03
-1.0967730e-02
-1.4130444e-02
-1.6948245e-02
-1.9290047e-02
-2.0943297e-02
-2.1716407e-02
-2.1598705e-02
-2.0800526e-02
-1.9568817e-02
-1.7937970e-02
-1.5772871e-02
-1.2959142e-02
-9.5021685e-03
-5.5411601e-03
-1.3076814e-03
2.9380228e-03
7.0078248e-03
1.0786887e-02
1.4176131e-02
1.7100353e-02
1.9494273e-02
2.1333234e-02
2.2603372e-02
2.3186012e-02
2.2889097e-02
2.1569554e-02
1.9254376e-02
1.6135438e-02
1.2355013e-02
7.7830559e-03
2.0806630e-03
-4.9261346e-03
-1.2977890e-02
-2.1369839e-02
-2.9142321e-02
-3.5449702e-02
-3.9744550e-02
-4.1716542e-02
-4.1265290e-02
-3.8555335e-02
-3.3969744e-02
-2.7879866e-02
-2.0544228e-02
-1.2183946e-02
-3.0564461e-03
6.4743490e-03
1.5986933e-02
2.5045906e-02
3.3075468e-02
3.9315561e-02
4.3103276e-02
4.4274592e-02
4.3224967e-02
4.0612786e-02
3.7002214e-02
3.2685119e-02
2.7790743e-02
2.2436379e-02
1.6765648e-02
1.0910814e-02
4.9273235e-03
-1.1563925e-03
-7.2316706e-03
-1.3075228e-02
-1.8442759e-02
-2.3201152e-02
-2.7334628e-02
-3.0900356e-02
-3.3997963e-02
-3.6754442e-02
-3.9231143e-02
-4.1290883e-02
-4.2673446e-02
-4.3109109e-02
-4.2353625e-02
-4.0232226e-02
-3.6649530e-02
-3.1558793e-02
-2.4818788e-02
-1.6196669e-02
-5.6656942e-03
6.3930531e-03
1.9182432e-02
3.1574710e-02
4.2277365e-02
5.0123940e-02
5.4407532e-02
5.4971777e-02
5.2134304e-02
4.6565535e-02
3.9099319e-02
3.0621262e-02
2.2038553e-02
1.4165171e-02
7.4786201e-03
2.0617808e-03
-2.1241473e-03
-5.0160509e-03
-6.5077801e-03
-6.7208956e-03
-6.1230653e-03
-5.2826592e-03
-4.6326907e-03
-4.4815289e-03
-5.1252841e-03
-6.8391980e-03
-9.7227912e-03
-1.3506765e-02
-1.7468307e-02
-2.0739717e-02
-2.2756913e-02
-2.3347967e-02
-2.2526778e-02
-2.0286463e-02
-1.6718134e-02
-1.2240572e-02
-7.4323804e-03
-2.6886809e-03
1.8653709e-03
6.1626378e-03
1.0047302e-02
1.3350959e-02
1.5903372e-02
1.7497492e-02
1.7934101e-02
1.7133589e-02
1.5240947e-02
1.2602498e-02
9.6495782e-03
6.7019051e-03
3.8878674e-03
1.3085020e-03
-9.1077762e-04
-2.7468599e-03
-4.3209619e-03
-5.8237119e-03
-7.4521635e-03
-9.3345480e-03
-1.1402565e-02
-1.3416247e-02
-1.5047910e-02
-1.5869534e-02
-1.5460426e-02
-1.3627872e-02
-1.0533196e-02
-6.5903507e-03
-2.2778492e-03
1.9628053e-03
5.8705318e-03
9.4055672e-03
1.2585463e-02
1.5336332e-02
1.7445373e-02
1.8646116e-02
1.8712914e-02
1.7492294e-02
1.4914012e-02
1.1022658e-02
6.1641955e-03
1.0410321e-03
-3.6060652e-03
-7.3454143e-03
-1.0119320e-02
-1.2070159e-02
-1.3430401e-02
-1.4505573e-02
-1.5587895e-02
-1.6786852e-02
-1.7873269e-02
-1.8399584e-02
-1.7907686e-02
-1.5958065e-02
-1.2232533e-02
-6.7445434e-03
1.2610980e-05
7.1138189e-03
1.3475397e-02
1.8239549e-02
2.1154618e-02
2.2618484e-02
2.3251666e-02
2.3352651e-02
2.2738095e-02
2.1101358e-02
1.8322680e-02
1.4438864e-02
9.5314880e-03
3.7378472e-03
-2.5957912e-03
-8.9216788e-03
-1.4668521e-02
-1.9313941e-02
-2.2430092e-02
-2.3804053e-02
-2.3545096e-02
-2.2025072e-02
-1.9696620e-02
-1.6873679e-02
-1.3528456e-02
-9.4185889e-03
-4.5148287e-03
7.2143903e-04
5.5131637e-03
9.2229856e-03
1.1589710e-02
1.2694946e-02
1.2818674e-02
1.2238173e-02
1.1167761e-02
9.8843213e-03
8.8401202e-03
8.5181060e-03
9.1629411e-03
1.0712477e-02
1.2871092e-02
1.5201113e-02
1.7167819e-02
1.8205266e-02
1.7891520e-02
1.6100228e-02
1.3047636e-02
9.0618836e-03
4.2948250e-03
-1.1464963e-03
-6.9886752e-03
-1.2873138e-02
-1.8584982e-02
-2.4131915e-02
-2.9496503e-02
-3.4364754e-02
-3.8130932e-02
-4.0182929e-02
-4.0231078e-02
-3.8406341e-02
-3.5137035e-02
-3.0886514e-02
-2.5990504e-02
-2.0705576e-02
-1.5246655e-02
-9.7463466e-03
-4.1651060e-03
1.7533307e-03
8.3550080e-03
1.5805854e-02
2.3933305e-02
3.2332738e-02
4.0405525e-02
4.7367969e-02
5.2523580e-02
5.5495801e-02
5.6215100e-02
5.4761770e-02
5.1228518e-02
4.5738021e-02
3.8571065e-02
3.0254426e-02
2.1378593e-02
1.2318763e-02
3.2067382e-03
-5.8578471e-03
-1.4558695e-02
-2.2423031e-02
-2.9109215e-02
-3.4523224e-02
-3.8709464e-02
-4.1632906e-02
-4.3146014e-02
-4.3192673e-02
-4.1927123e-02
-3.9632378e-02
-3.6556037e-02
-3.2900815e-02
-2.8949061e-02
-2.5074778e-02
-2.1545954e-02
-1.8272138e-02
-1.4928953e-02
-1.1324548e-02
-7.4521952e-03
-3.2906395e-03
1.3097994e-03
6.5183609e-03
1.2350837e-02
1.8613911e-02
2.4950923e-02
3.0915694e-02
3.5961945e-02
3.9495134e-02
4.1044665e-02
4.0371636e-02
3.7528708e-02
3.2817344e-02
2.6661501e-02
1.9574567e-02
1.2206440e-02
5.2867047e-03
-5.8782993e-04
-5.0414030e-03
-7.8898905e-03
-9.1782604e-03
-9.2069345e-03
-8.5226652e-03
-7.7630216e-03
-7.4663359e-03
-8.0767018e-03
-9.9353071e-03
-1.3154296e-02
-1.7511648e-02
-2.2530711e-02
-2.7697485e-02
-3.2569594e-02
-3.6714814e-02
-3.9569687e-02
-4.0542796e-02
-3.9296460e-02
-3.5709844e-02
-2.9684465e-02
-2.1125929e-02
-1.0118749e-02
2.8528247e-03
1.6928382e-02
3.1104278e-02
4.4431999e-02
5.6100878e-02
6.5489085e-02
7.2150557e-02
7.5678748e-02
7.5677884e-02
7.1839303e-02
6.4013292e-02
5.2364371e-02
3.7540985e-02
2.0752740e-02
3.6074336e-03
-1.2325391e-02
-2.5919324e-02
-3.6604305e-02
-4.4269367e-02
-4.9148069e-02
-5.1635704e-02
-5.2137755e-02
-5.1089149e-02
-4.8897598e-02
-4.5866785e-02
-4.2276220e-02
-3.8443216e-02
-3.4652122e-02
-3.1036333e-02
-2.7600106e-02
-2.4312337e-02
-2.1120438e-02
-1.7883816e-02
-1.4239681e-02
-9.6241037e-03
-3.4998537e-03
4.3491673e-03
1.3584959e-02
2.3375729e-02
3.2643411e-02
4.0355066e-02
4.5792146e-02
4.8638977e-02
4.8963661e-02
4.7071044e-02
4.3294525e-02
3.7926659e-02
3.1262079e-02
2.3679244e-02
1.5625041e-02
7.5123137e-03
-3.6432347e-04
-7.8126621e-03
-1.4633758e-02
-2.0626589e-02
-2.5618311e-02
-2.9480883e-02
-3.2222199e-02
-3.3928712e-02
-3.4637637e-02
-3.4359768e-02
-3.3139838e-02
-3.1002892e-02
-2.7906170e-02
-2.3832508e-02
-1.8788492e-02
-1.2795411e-02
-6.0490294e-03
1.1103806e-03
8.3772340e-03
1.5483021e-02
2.2083409e-02
2.7744121e-02
3.2087681e-02
3.4959775e-02
3.6508629e-02
3.7092071e-02
3.7100110e-02
3.6870281e-02
3.6640415e-02
3.6496285e-02
3.6244779e-02
3.5357454e-02
3.3193800e-02
2.9222834e-02
2.3084077e-02
1.4549937e-02
3.5625352e-03
-9.4552014e-03
-2.3359180e-02
-3.6555866e-02
-4.7685081e-02
-5.6020327e-02
-6.1294035e-02
-6.3501932e-02
-6.2847733e-02
-5.9691461e-02
-5.4443491e-02
-4.7374269e-02
-3.8626067e-02
-2.8409130e-02
-1.7130404e-02
-5.3889805e-03
6.1086390e-03
1.6600834e-02
2.5406178e-02
3.2067862e-02
3.6330674e-02
3.8083562e-02
3.7354838e-02
3.4375028e-02
2.9578822e-02
2.3494364e-02
1.6702463e-02
9.8775678e-03
3.7718468e-03
-9.7965321e-04
-4.0672706e-03
-5.5046326e-03
-5.4800063e-03
-4.2102954e-03
-2.0225049e-03
4.8702900e-04
2.5782807e-03
3.7016453e-03
3.7759300e-03
3.0947078e-03
1.9735842e-03
6.0690182e-04
-8.3117294e-04
-2.0684008e-03
-2.8345220e-03
-3.0578472e-03
-2.8370815e-03
-2.2342776e-03
-1.0967947e-03
8.3100259e-04
3.5827465e-03
6.7773260e-03
9.7215967e-03
1.1811466e-02
1.2805494e-02
1.2724938e-02
1.1629216e-02
9.4687215e-03
6.1708954e-03
1.7998091e-03
-3.3951827e-03
-9.0092825e-03
-1.4595910e-02
-1.9722788e-02
-2.4025672e-02
-2.7309685e-02
-2.9494399e-02
-3.0437927e-02
-2.9833674e-02
-2.7396552e-02
-2.3180482e-02
-1.7581751e-02
-1.1073763e-02
-4.0586471e-03
3.0691821e-03
9.9203207e-03
1.6140686e-02
2.1418392e-02
2.5662456e-02
2.9032543e-02
3.1703524e-02
3.3734000e-02
3.5080230e-02
3.5654194e-02
3.5321583e-02
3.3845763e-02
3.0839858e-02
2.5837129e-02
1.8609139e-02
9.4063983e-03
-1.1042704e-03
-1.2059719e-02
-2.2625985e-02
-3.2075829e-02
-3.9814634e-02
-4.5423935e-02
-4.8645493e-02
-4.9314154e-02
-4.7315629e-02
-4.2707740e-02
-3.5834408e-02
-2.7315672e-02
-1.8023483e-02
-8.9029257e-03
-7.0024779e-04
6.1666464e-03
1.1561448e-02
1.5533451e-02
1.8332200e-02
2.0414241e-02
2.2293482e-02
2.4302552e-02
2.6470448e-02
2.8599800e-02
3.0375802e-02
3.1449619e-02
3.1470550e-02
3.0142459e-02
2.7377324e-02
2.3316862e-02
1.8251544e-02
1.2572002e-02
6.6962922e-03
9.8067835e-04
-4.3274774e-03
-9.0148000e-03
-1.2886493e-02
-1.5872504e-02
-1.8020305e-02
-1.9436243e-02
-2.0280683e-02
-2.0811013e-02
-2.1346531e-02
-2.2072778e-02
-2.2902309e-02
-2.3504852e-02
-2.3516986e-02
-2.2736652e-02
-2.1064893e-02
-1.8371840e-02
-1.4506338e-02
-9.4789204e-03
-3.5704890e-03
2.7651560e-03
9.0035433e-03
1.4624914e-02
1.9170420e-02
2.2330821e-02
2.3992315e-02
2.4115092e-02
2.2704021e-02
1.9853452e-02
1.5773325e-02
1.0857482e-02
5.6088491e-03
4.8679997e-04
-4.1715700e-03
-8.1828852e-03
-1.1503423e-02
-1.4117282e-02
-1.5850612e-02
-1.6392973e-02
-1.5519492e-02
-1.3270290e-02
-9.9486973e-03
-5.9055196e-03
-1.4136067e-03
3.2862653e-03
7.9242518e-03
1.2191880e-02
1.5848929e-02
1.8782451e-02
2.0971914e-02
2.2385554e-02
2.2848920e-02
2.2129881e-02
2.0187058e-02
1.7332731e-02
1.4060116e-02
1.0672412e-02
7.2189068e-03
3.6487473e-03
-8.9651246e-05
-4.0188972e-03
-8.1304809e-03
-1.2309809e-02
-1.6290744e-02
-1.9709283e-02
-2.2225389e-02
-2.3618312e-02
-2.3757618e-02
-2.2638848e-02
-2.0469468e-02
-1.7653297e-02
-1.4710666e-02
-1.2107097e-02
-1.0073265e-02
-8.5793707e-03
-7.5002234e-03
-6.7454436e-03
-6.1627703e-03
-5.4712102e-03
-4.3980024e-03
-2.8623640e-03
-9.1143766e-04
1.5406332e-03
4.7099240e-03
8.7258933e-03
1.3469180e-02
1.8551521e-02
2.3504856e-02
2.7921738e-02
3.1385787e-02
3.3393988e-02
3.3454078e-02
3.1268369e-02
2.6863962e-02
2.0666575e-02
1.3289236e-02
5.1525026e-03
-3.5582915e-03
-1.2653935e-02
-2.1738734e-02
-3.0203885e-02
-3.7348092e-02
-4.2533177e-02
-4.5377318e-02
-4.5810776e-02
-4.4024840e-02
-4.0421560e-02
-3.5519890e-02
-2.9858779e-02
-2.3882369e-02
-1.7859489e-02
-1.1835422e-02
-5.6631648e-03
8.1457673e-04
7.6931288e-03
1.5000433e-02
2.2617259e-02
3.0275382e-02
3.7695707e-02
4.4784730e-02
5.1570486e-02
5.7925681e-02
6.3441424e-02
6.7473772e-02
6.9335499e-02
6.8439621e-02
6.4295616e-02
5.6571203e-02
4.5322945e-02
3.1262826e-02
1.5618423e-02
-3.1562269e-04
-1.5401678e-02
-2.8721256e-02
-3.9635196e-02
-4.7817668e-02
-5.3251443e-02
-5.6200119e-02
-5.7116271e-02
-5.6443100e-02
-5.4547483e-02
-5.1835745e-02
-4.8836394e-02
-4.6057975e-02
-4.3686430e-02
-4.1602490e-02
-3.9703910e-02
-3.8013448e-02
-3.6428591e-02
-3.4461071e-02
-3.1398661e-02
-2.6680548e-02
-2.0088395e-02
-1.1825459e-02
-2.5342386e-03
6.9177046e-03
1.5843926e-02
2.3927964e-02
3.1150673e-02
3.7657326e-02
4.3494203e-02
4.8471544e-02
5.2295180e-02
5.4703611e-02
5.5559902e-02
5.4899324e-02
5.2914112e-02
4.9795031e-02
4.5567039e-02
4.0233325e-02
3.3973772e-02
2.7095052e-02
1.9858197e-02
1.2423838e-02
4.9834417e-03
-2.1537996e-03
-8.6593084e-03
-1.4392432e-02
-1.9427035e-02
-2.3821897e-02
-2.7517198e-02
-3.0403230e-02
-3.2437796e-02
-3.3739620e-02
-3.4493373e-02
-3.4784161e-02
-3.4508867e-02
-3.3476737e-02
-3.1597457e-02
-2.8854094e-02
-2.5224355e-02
-2.0709044e-02
-1.5412798e-02
-9.5872825e-03
-3.5034541e-03
2.6438838e-03
8.6526038e-03
1.4200094e-02
1.8888885e-02
2.2423065e-02
2.4636208e-02
2.5418824e-02
2.4732432e-02
2.2668665e-02
1.9434560e-02
1.5300135e-02
1.0630770e-02
5.7843409e-03
9.5499573e-04
-3.7135363e-03
-7.9860242e-03
-1.1525796e-02
-1.3994827e-02
-1.5218292e-02
-1.5189773e-02
-1.3965582e-02
-1.1672986e-02
-8.6110021e-03
-5.1782520e-03
-1.6887687e-03
1.6226454e-03
4.5525964e-03
6.8977072e-03
8.4066298e-03
8.9158161e-03
8.5320975e-03
7.6179014e-03
6.6166165e-03
5.9151119e-03
5.8219939e-03
6.5683983e-03
8.2851880e-03
1.0831301e-02
1.3625950e-02
1.5821576e-02
1.6651382e-02
1.5698111e-02
1.2968297e-02
8.7642763e-03
3.5409956e-03
-2.1251039e-03
-7.5145044e-03
-1.1956704e-02
-1.5132860e-02
-1.7117289e-02
-1.8177782e-02
-1.8530755e-02
-1.8329406e-02
-1.7840535e-02
-1.7465683e-02
-1.7572088e-02
-1.8267062e-02
-1.9358984e-02
-2.0580853e-02
-2.1817610e-02
-2.3092610e-02
-2.4321455e-02
-2.5136822e-02
-2.4914610e-02
-2.2979064e-02
-1.8913640e-02
-1.2685060e-02
-4.5617786e-03
4.9487486e-03
1.5107258e-02
2.5101706e-02
3.4392152e-02
4.2812074e-02
5.0303821e-02
5.6636005e-02
6.1396438e-02
6.4226461e-02
6.4937284e-02
6.3439962e-02
5.9660175e-02
5.3523468e-02
4.5033997e-02
3.4347843e-02
2.1900148e-02
8.5277365e-03
-4.7070846e-03
-1.6882655e-02
-2.7387132e-02
-3.5862876e-02
-4.2219312e-02
-4.6651867e-02
-4.9530817e-02
-5.1313818e-02
-5.2426141e-02
-5.3158117e-02
-5.3674363e-02
-5.3976001e-02
-5.3843754e-02
-5.2915799e-02
-5.0928302e-02
-4.7809991e-02
-4.3541001e-02
-3.8085210e-02
-3.1331250e-02
-2.3103905e-02
-1.3319814e-02
-2.0057543e-03
1.0706363e-02
2.4386853e-02
3.8102391e-02
5.0580830e-02
6.0646355e-02
6.7488753e-02
7.0772192e-02
7.0585720e-02
6.7291492e-02
6.1432498e-02
5.3614311e-02
4.4428593e-02
3.4414750e-02
2.4017834e-02
1.3619671e-02
3.5808583e-03
-5.7465648e-03
-1.4126226e-02
-2.1543806e-02
-2.8114973e-02
-3.3943705e-02
-3.9043102e-02
-4.3333395e-02
-4.6621073e-02
-4.8603280e-02
-4.9007674e-02
-4.7660764e-02
-4.4508366e-02
-3.9640385e-02
-3.3252631e-02
-2.5620559e-02
-1.7079102e-02
-8.0798742e-03
8.2923288e-04
9.2493767e-03
1.7060919e-02
2.4325177e-02
3.1129330e-02
3.7454018e-02
4.3053717e-02
4.7475246e-02
5.0303110e-02
5.1313832e-02
5.0481222e-02
4.7944342e-02
4.3924146e-02
3.8730045e-02
3.2727222e-02
2.6181633e-02
1.9143105e-02
1.1485659e-02
3.1765317e-03
-5.5442877e-03
-1.4289551e-02
-2.2691110e-02
-3.0363409e-02
-3.6775026e-02
-4.1368993e-02
-4.3853097e-02
-4.4356620e-02
-4.3337708e-02
-4.1267645e-02
-3.8423521e-02
-3.4945173e-02
-3.0990272e-02
-2.6779759e-02
-2.2463259e-02
-1.8115009e-02
-1.3893884e-02
-1.0072127e-02
-6.8961138e-03
-4.3913356e-03
-2.2370285e-03
2.1425677e-04
3.6365602e-03
8.3461239e-03
1.4194906e-02
2.0566226e-02
2.6522509e-02
3.1179834e-02
3.3937820e-02
3.4551935e-02
3.3167443e-02
3.0236866e-02
2.6275240e-02
2.1659408e-02
1.6649321e-02
1.1411541e-02
6.0173693e-03
5.1357597e-04
-5.0288582e-03
-1.0515065e-02
-1.5777670e-02
-2.0438686e-02
-2.3979715e-02
-2.6055417e-02
-2.6662343e-02
-2.6016388e-02
-2.4257643e-02
-2.1353958e-02
-1.7290630e-02
-1.2222980e-02
-6.4761564e-03
-4.2139990e-04
5.5549643e-03
1.0975148e-02
1.5348742e-02
1.8302647e-02
1.9649598e-02
1.9435962e-02
1.7981081e-02
1.5837181e-02
1.3599411e-02
1.1804675e-02
1.0902409e-02
1.1100166e-02
1.2287654e-02
1.4149086e-02
1.6332392e-02
1.8510743e-02
2.0292033e-02
2.1134548e-02
2.0460720e-02
1.7921872e-02
1.3473342e-02
7.3029349e-03
-8.8847059e-05
-7.7553731e-03
-1.4441064e-02
-1.9100447e-02
-2.1340300e-02
-2.1449790e-02
-2.0155266e-02
-1.8230661e-02
-1.6229818e-02
-1.4444152e-02
-1.2996957e-02
-1.2022165e-02
-1.1753288e-02
-1.2462514e-02
-1.4267623e-02
-1.7000291e-02
-2.0283648e-02
-2.3599390e-02
-2.6345461e-02
-2.7954686e-02
-2.8009410e-02
-2.6273142e-02
-2.2593987e-02
-1.6906848e-02
-9.3647298e-03
-5.1586417e-04
8.6276744e-03
1.6970740e-02
2.3780416e-02
2.8698078e-02
3.1561928e-02
3.2345034e-02
3.1187972e-02
2.8372521e-02
2.4303960e-02
1.9448144e-02
1.4156874e-02
8.6559155e-03
3.1510456e-03
-2.0547286e-03
-6.4957523e-03
-9.6663848e-03
-1.1139440e-02
-1.0644979e-02
-8.1809890e-03
-4.1065125e-03
8.9966579e-04
6.1238257e-03
1.1016254e-02
1.5155911e-02
1.8193986e-02
1.9840419e-02
1.9912181e-02
1.8378765e-02
1.5399382e-02
1.1314800e-02
6.5469636e-03
1.5027702e-03
-3.5262812e-03
-8.3438103e-03
-1.2692838e-02
-1.6213605e-02
-1.8557461e-02
-1.9514766e-02
-1.9020033e-02
-1.7173840e-02
-1.4314426e-02
-1.0959712e-02
-7.7088957e-03
-5.1196430e-03
-3.5889980e-03
-3.2771394e-03
-4.0101036e-03
-5.3215839e-03
-6.6621559e-03
-7.6366551e-03
-8.0667270e-03
-7.8625235e-03
-6.9669462e-03
-5.2815408e-03
-2.6225271e-03
1.0623614e-03
5.4991597e-03
1.0201779e-02
1.4747876e-02
1.8853709e-02
2.2242227e-02
2.4573178e-02
2.5493209e-02
2.4812016e-02
2.2570918e-02
1.8876862e-02
1.3845590e-02
7.7284353e-03
9.9377820e-04
-5.7685196e-03
-1.2045138e-02
-1.7541479e-02
-2.2163479e-02
-2.5859331e-02
-2.8602263e-02
-3.0480672e-02
-3.1630583e-02
-3.2090150e-02
-3.1736479e-02
-3.0443846e-02
-2.8266514e-02
-2.5330408e-02
-2.1598750e-02
-1.6787971e-02
-1.0549735e-02
-2.7570264e-03
6.3290316e-03
1.6100701e-02
2.5871478e-02
3.5072011e-02
4.3245677e-02
4.9978022e-02
5.4843059e-02
5.7493264e-02
5.7725747e-02
5.5456775e-02
5.0739549e-02
4.3736821e-02
3.4694818e-02
2.4028888e-02
1.2475051e-02
1.0608318e-03
-9.1779075e-03
-1.7420300e-02
-2.3174447e-02
-2.6362733e-02
-2.7364742e-02
-2.6959344e-02
-2.6061146e-02
-2.5425840e-02
-2.5507221e-02
-2.6513828e-02
-2.8497179e-02
-3.1294545e-02
-3.4592047e-02
-3.8098355e-02
-4.1586508e-02
-4.4791745e-02
-4.7273058e-02
-4.8428001e-02
-4.7569698e-02
-4.4065914e-02
-3.7612519e-02
-2.8406602e-02
-1.7179208e-02
-5.0848588e-03
6.6361679e-03
1.7078780e-02
2.5858542e-02
3.2971026e-02
3.8587119e-02
4.2821923e-02
4.5576794e-02
4.6681833e-02
4.6150307e-02
4.4343641e-02
4.1910754e-02
3.9546023e-02
3.7790967e-02
3.6910159e-02
3.6883824e-02
3.7460822e-02
3.8225994e-02
3.8678841e-02
3.8266103e-02
3.6466444e-02
3.2830206e-02
2.6979397e-02
1.8724586e-02
8.2667253e-03
-3.5847949e-03
-1.5578454e-02
-2.6553612e-02
-3.5733537e-02
-4.2671097e-02
-4.7128845e-02
-4.9077278e-02
-4.8656575e-02
-4.6126375e-02
-4.1951200e-02
-3.6772995e-02
-3.1318263e-02
-2.6356960e-02
-2.2638879e-02
-2.0776846e-02
-2.0998719e-02
-2.3025539e-02
-2.6242375e-02
-2.9955570e-02
-3.3464239e-02
-3.5856227e-02
-3.5958949e-02
-3.2661926e-02
-2.5381551e-02
-1.4426201e-02
-1.0104373e-03
1.3138265e-02
2.6366331e-02
3.7409504e-02
4.5401027e-02
4.9927838e-02
5.1055701e-02
4.9271385e-02
4.5297963e-02
3.9813818e-02
3.3425996e-02
2.6778954e-02
2.0479997e-02
1.4890376e-02
1.0084091e-02
6.0436032e-03
2.7848236e-03
3.8023033e-04
-1.1081986e-03
-1.6818780e-03
-1.2878559e-03
1.2488912e-04
2.4008352e-03
5.0984072e-03
7.5321352e-03
9.0252875e-03
9.1978241e-03
8.0244030e-03
5.6662946e-03
2.3059500e-03
-1.8449063e-03
-6.5147813e-03
-1.1362819e-02
-1.6004399e-02
-2.0048664e-02
-2.3107529e-02
-2.4920132e-02
-2.5424139e-02
-2.4706573e-02
-2.2986211e-02
-2.0577107e-02
-1.7832973e-02
-1.5065125e-02
-1.2577135e-02
-1.0732508e-02
-9.7424947e-03
-9.4716163e-03
-9.5191693e-03
-9.4437489e-03
-8.9739726e-03
-8.0147380e-03
-6.4639694e-03
-4.1082896e-03
-7.9320909e-04
3.4120920e-03
8.2488414e-03
1.3321168e-02
1.8228096e-02
2.2655968e-02
2.6313033e-02
2.8949879e-02
3.0465928e-02
3.0964205e-02
3.0656390e-02
2.9750728e-02
2.8455229e-02
2.6929293e-02
2.5220927e-02
2.3216824e-02
2.0619405e-02
1.7021905e-02
1.2024626e-02
5.4449741e-03
-2.5795219e-03
-1.1644320e-02
-2.1031875e-02
-2.9809658e-02
-3.7139009e-02
-4.2451429e-02
-4.5438370e-02
-4.5995573e-02
-4.4179833e-02
-4.0171049e-02
-3.4306268e-02
-2.7098981e-02
-1.9131091e-02
-1.0933468e-02
-2.9518686e-03
4.3874969e-03
1.0695692e-02
1.5720389e-02
1.9340400e-02
2.1561215e-02
2.2495301e-02
2.2292700e-02
2.1068031e-02
1.8896703e-02
1.5988774e-02
1.2745729e-02
9.6044551e-03
6.8931527e-03
4.7952306e-03
3.4635550e-03
3.0077833e-03
3.3121572e-03
3.9585394e-03
4.3227385e-03
3.8628673e-03
2.3120676e-03
-3.3720914e-04
-3.8055645e-03
-7.5633623e-03
-1.1030214e-02
-1.3776137e-02
-1.5549416e-02
-1.6176999e-02
-1.5547800e-02
-1.3648309e-02
-1.0552757e-02
-6.4034646e-03
-1.4871523e-03
3.6957490e-03
8.5395723e-03
1.2444705e-02
1.4867164e-02
1.5423947e-02
1.4113517e-02
1.1450797e-02
8.1508088e-03
4.7084799e-03
1.3340598e-03
-1.8747511e-03
-4.7029970e-03
-6.7763765e-03
-7.7058593e-03
-7.2652409e-03
-5.5425259e-03
-2.8652064e-03
3.7275828e-04
3.7104791e-03
6.5258800e-03
8.1566429e-03
8.2599723e-03
6.9297568e-03
4.4902998e-03
1.2846050e-03
-2.4075278e-03
-6.2800861e-03
-9.8546782e-03
-1.2507788e-02
-1.3800150e-02
-1.3726802e-02
-1.2545297e-02
-1.0547901e-02
-8.0137449e-03
-5.2641425e-03
-2.6979417e-03
-6.6153761e-04
7.5240503e-04
1.7559100e-03
2.6179301e-03
3.4042257e-03
4.0375629e-03
4.5487271e-03
5.2568950e-03
6.5678216e-03
8.6031412e-03
1.1162115e-02
1.3928049e-02
1.6647941e-02
1.9110576e-02
2.1062423e-02
2.2246108e-02
2.2433217e-02
2.1495222e-02
1.9458966e-02
1.6450089e-02
1.2688277e-02
8.5497356e-03
4.5618844e-03
1.2149541e-03
-1.2988694e-03
-3.2174400e-03
-5.0548052e-03
-7.2230342e-03
-9.8962482e-03
-1.3127464e-02
-1.6950823e-02
-2.1422837e-02
-2.6498112e-02
-3.1959969e-02
-3.7517131e-02
-4.2846805e-02
-4.7526571e-02
-5.0930904e-02
-5.2311266e-02
-5.0974176e-02
-4.6415392e-02
-3.8563222e-02
-2.8035275e-02
-1.6170640e-02
-4.6065175e-03
5.3946834e-03
1.3318652e-02
1.9352451e-02
2.3999706e-02
2.7653305e-02
3.0446878e-02
3.2402844e-02
3.3697177e-02
3.4698761e-02
3.5774868e-02
3.7096801e-02
3.8635303e-02
4.0320017e-02
4.2070634e-02
4.3730254e-02
4.5027500e-02
4.5621285e-02
4.5190915e-02
4.3390390e-02
3.9855528e-02
3.4288418e-02
2.6487632e-02
1.6545666e-02
5.1266825e-03
-6.6209298e-03
-1.7615039e-02
-2.7231187e-02
-3.5166798e-02
-4.1241090e-02
-4.5352119e-02
-4.7498211e-02
-4.7792464e-02
-4.6450670e-02
-4.3829515e-02
-4.0415056e-02
-3.6781914e-02
-3.3505925e-02
-3.0876880e-02
-2.8645756e-02
-2.6145139e-02
-2.2800258e-02
-1.8519423e-02
-1.3576820e-02
-8.3160524e-03
-2.9924160e-03
2.1928862e-03
7.0456915e-03
1.1441223e-02
1.5306835e-02
1.8569082e-02
2.1126409e-02
2.2854775e-02
2.3700295e-02
2.3692724e-02
2.2894511e-02
2.1392840e-02
1.9335282e-02
1.6909950e-02
1.4258859e-02
1.1570073e-02
9.0943845e-03
6.9539141e-03
5.1600928e-03
3.7175969e-03
2.5957814e-03
1.6987439e-03
9.1699136e-04
1.9526146e-04
-4.7179281e-04
-1.0733627e-03
-1.6753134e-03
-2.4076216e-03
-3.2628944e-03
-4.0420020e-03
-4.4653872e-03
-4.3469241e-03
-3.7559493e-03
-2.9815989e-03
-2.3139666e-03
-1.8032120e-03
-1.2782286e-03
-5.7161598e-04
3.6116470e-04
1.4610192e-03
2.6659575e-03
3.9228780e-03
5.0729876e-03
5.8029865e-03
5.7663546e-03
4.7888133e-03
2.9158654e-03
3.6904006e-04
-2.4995036e-03
-5.2856377e-03
-7.5174026e-03
-8.7311186e-03
-8.7139977e-03
-7.6801088e-03
-6.2133901e-03
-4.8927617e-03
-3.9843047e-03
-3.4691274e-03
-3.1994024e-03
-3.0176541e-03
-2.7500579e-03
-2.2148490e-03
-1.3356879e-03
-2.3992263e-04
7.6197255e-04
1.3730830e-03
1.4422086e-03
8.7391278e-04
-4.5922423e-04
-2.6112109e-03
-5.4050585e-03
-8.4725197e-03
-1.1367373e-02
-1.3640293e-02
-1.4949765e-02
-1.5094840e-02
-1.3922764e-02
-1.1292379e-02
-7.2785213e-03
-2.3558285e-03
2.8144350e-03
7.6923638e-03
1.1919148e-02
1.5245312e-02
1.7494916e-02
1.8611600e-02
1.8718631e-02
1.8104477e-02
1.7076738e-02
1.5847786e-02
1.4576800e-02
1.3382771e-02
1.2320852e-02
1.1395589e-02
1.0565213e-02
9.7489555e-03
8.8475786e-03
7.7827570e-03
6.5074170e-03
4.9896030e-03
3.2116581e-03
1.1573244e-03
-1.1642196e-03
-3.6742821e-03
-6.2235134e-03
-8.6201792e-03
-1.0678545e-02
-1.2255815e-02
-1.3295414e-02
-1.3851040e-02
-1.4033578e-02
-1.3944467e-02
-1.3641872e-02
-1.3147568e-02
-1.2469558e-02
-1.1611941e-02
-1.0593354e-02
-9.4557149e-03
-8.2531060e-03
-7.0338154e-03
-5.8337527e-03
-4.6940385e-03
-3.6634175e-03
-2.7856252e-03
-2.0954556e-03
-1.6111762e-03
-1.3265542e-03
-1.2086933e-03
-1.2027174e-03
