-2.1754113e-03
-7.1851968e-03
-1.0333321e-02
-1.2231532e-02
-1.2748149e-02
-1.2302387e-02
-1.1625506e-02
-1.0558138e-02
-9.5679127e-03
-8.2694580e-03
-6.7011360e-03
-5.1830965e-03
-3.4653899e-03
-2.0590649e-03
-6.6063979e-04
4.5287190e-04
1.0259437e-03
1.7410282e-03
2.1963734e-03
2.6764006e-03
3.1051348e-03
2.9775346e-03
2.6387451e-03
1.9812131e-03
1.5027673e-03
1.0410767e-03
3.2787103e-04
-1.9011966e-04
-7.8552363e-04
-9.4856439e-04
-9.3356462e-04
-1.2938210e-03
-1.6532506e-03
-2.1644315e-03
-2.2574359e-03
-2.0890564e-03
-2.1834319e-03
-2.2149296e-03
-2.2749689e-03
-1.8740416e-03
-1.2352595e-03
-8.2045518e-04
-6.0725060e-04
-7.7781196e-04
-3.6011207e-04
4.6605480e-04
7.1245578e-04
3.6515066e-04
-3.2770174e-04
-4.6746630e-04
-2.9345796e-04
-3.1239901e-04
-5.9196089e-04
-1.4450883e-03
-1.8665966e-03
-1.5560496e-03
-1.0037398e-03
-6.1203861e-04
-7.4781948e-04
-5.6161612e-04
2.9303564e-05
8.0777405e-04
1.5184668e-03
1.6449682e-03
1.8256884e-03
2.0384955e-03
2.3069667e-03
2.5786430e-03
2.4145448e-03
2.6282469e-03
3.1766089e-03
3.7284964e-03
3.9687467e-03
3.3639400e-03
2.5805875e-03
1.6259557e-03
5.8167700e-04
-4.7405555e-04
-1.8989903e-03
-2.8105031e-03
-3.1353704e-03
-3.2316488e-03
-3.4292322e-03
-4.2912187e-03
-5.1741931e-03
-5.8495697e-03
-6.0058925e-03
-5.5402805e-03
-5.1416295e-03
-4.5621493e-03
-3.9866232e-03
-3.3595119e-03
-2.5741537e-03
-2.2661866e-03
-2.3675734e-03
-2.6719042e-03
-2.4795050e-03
-1.9463335e-03
-1.7272572e-03
-1.3275715e-03
-9.3512277e-04
-4.4254725e-04
1.8345743e-04
6.6496301e-04
1.3082766e-03
1.5848201e-03
1.6705590e-03
1.7513659e-03
1.6276812e-03
1.7998309e-03
1.8662286e-03
1.9685551e-03
2.0616765e-03
1.6932057e-03
1.2869324e-03
5.6648327e-04
-1.1322904e-05
-2.0435792e-04
-5.1622254e-04
-6.6078897e-04
-9.6841225e-04
-1.1564313e-03
-1.0014672e-03
-9.4150828e-04
-7.0840511e-04
-5.0858342e-04
-1.8900845e-04
-4.4813882e-05
-4.5335769e-04
-6.7244862e-04
-8.1802106e-04
-7.1226314e-04
-4.3390198e-04
-2.8714999e-04
1.8491748e-04
6.4214823e-04
1.3550686e-03
2.1816771e-03
2.5648696e-03
2.8880107e-03
3.0615493e-03
3.5667577e-03
4.0922988e-03
4.0398397e-03
3.9053170e-03
3.4931211e-03
3.2178607e-03
2.9110833e-03
2.0223805e-03
1.0844249e-03
2.6720737e-05
-7.4094037e-04
-1.3723022e-03
-2.3367804e-03
-3.0125721e-03
-3.2864518e-03
-2.7695083e-03
-1.8835211e-03
-1.3689756e-03
-1.0042673e-03
-7.7870006e-04
-1.4090375e-05
9.7941866e-04
1.4394161e-03
1.6824659e-03
1.7827057e-03
2.3120780e-03
2.9799309e-03
3.2360190e-03
3.2846249e-03
2.9170801e-03
2.9280762e-03
3.2596349e-03
3.1267494e-03
2.6061832e-03
1.7688134e-03
1.3979432e-03
1.2320250e-03
8.5471398e-04
5.0374689e-04
-1.3893268e-04
-4.1727721e-04
-3.4919775e-04
-2.7431646e-04
-2.0091751e-04
-4.7057711e-04
-3.0436209e-04
8.8520843e-05
2.3748460e-04
3.1964851e-04
-1.6839302e-04
-6.2990334e-04
-7.6438053e-04
-7.6680392e-04
-6.8171543e-04
-1.0614336e-03
-1.1516168e-03
-5.8403598e-04
4.7630289e-05
2.0029724e-04
-5.7030466e-04
-1.2379108e-03
-1.4499389e-03
-1.4917809e-03
-1.4374316e-03
-1.8230698e-03
-2.0423948e-03
-1.9430788e-03
-1.8361089e-03
-1.8846257e-03
-2.4112618e-03
-2.6326323e-03
-2.4671369e-03
-2.1787196e-03
-1.9853922e-03
-2.2974717e-03
-2.4391295e-03
-2.3275073e-03
-1.9308386e-03
-1.3848975e-03
-1.3434307e-03
-1.3357143e-03
-1.3427681e-03
-1.2443979e-03
-1.1053944e-03
-1.4585740e-03
-1.7445631e-03
-2.1237543e-03
-2.4334730e-03
-2.4549534e-03
-2.5011477e-03
-1.9176382e-03
-1.1399328e-03
-4.6412473e-04
3.2284005e-04
1.0172935e-03
2.0134073e-03
2.9515432e-03
3.7779952e-03
4.4118087e-03
4.3767584e-03
4.1984014e-03
3.8518210e-03
3.5884495e-03
3.2745786e-03
2.4063308e-03
1.7885260e-03
1.4508727e-03
1.3657815e-03
1.2294154e-03
4.4233349e-04
-2.6379160e-04
-7.6197832e-04
-9.5112141e-04
-7.3640485e-04
-4.6792464e-04
-7.0536336e-05
1.3342015e-04
4.7898633e-04
8.4481135e-04
5.9720838e-04
2.4260751e-04
6.3406309e-05
4.3898442e-04
8.6697469e-04
7.8653253e-04
8.2125267e-04
9.1786711e-04
1.3275740e-03
1.6780246e-03
1.3948403e-03
1.0503170e-03
6.8857733e-04
4.7022226e-04
-5.6815295e-05
-1.1938345e-03
-2.0138456e-03
-2.3810983e-03
-2.1567316e-03
-1.9164292e-03
-2.2364477e-03
-2.3746765e-03
-2.1879469e-03
-1.2686273e-03
-1.2861084e-04
2.4830036e-04
1.2560019e-04
-2.6257748e-04
-1.5382114e-04
1.6163157e-04
4.1172140e-05
-2.1609350e-04
-7.2567203e-04
-7.9370789e-04
-5.2397086e-04
-4.7679056e-04
-3.0614999e-04
-2.1285682e-04
1.7908606e-04
6.6943149e-04
6.5685109e-04
2.1455232e-04
-6.9533077e-04
-1.2391387e-03
-1.2534207e-03
-1.1796548e-03
-1.1545009e-03
-1.4306753e-03
-1.2510480e-03
-6.5576466e-04
-2.2357291e-05
6.1747545e-04
7.4913930e-04
1.0181928e-03
1.4250296e-03
1.5855358e-03
1.6080706e-03
1.2039174e-03
9.7206891e-04
8.6981680e-04
6.3560168e-04
3.5454291e-04
-4.1587978e-04
-9.1542955e-04
-8.0915152e-04
-4.1242739e-04
3.4378523e-05
-7.9495469e-05
-1.2456697e-04
1.2654908e-04
4.9705853e-04
9.7756853e-04
1.0270450e-03
1.0512830e-03
1.1184167e-03
1.0458386e-03
6.7418455e-04
-2.9593125e-04
-1.0145796e-03
-1.2078373e-03
-9.2939665e-04
-5.5812666e-04
-7.6844473e-04
-1.0482492e-03
-1.4346599e-03
-1.6907904e-03
-1.5541598e-03
-1.3318629e-03
-5.8338760e-04
2.2169845e-04
9.0377257e-04
1.4342396e-03
1.4439473e-03
1.5188694e-03
1.6399543e-03
2.1148446e-03
2.8668755e-03
3.2200660e-03
3.6056121e-03
3.8557499e-03
3.9689436e-03
3.8268052e-03
3.1995666e-03
2.8084257e-03
2.4310877e-03
2.1292937e-03
1.8021974e-03
1.0778346e-03
5.5464684e-04
-1.8694493e-05
-4.6884998e-04
-6.9439699e-04
-1.2055247e-03
-1.8332683e-03
-2.9484890e-03
-4.1541545e-03
-4.8886012e-03
-5.1942146e-03
-4.8785665e-03
-4.3972995e-03
-3.5038122e-03
-2.4765841e-03
-1.8710793e-03
-1.1691026e-03
-6.2418164e-04
1.1049295e-05
5.7744102e-04
5.2654302e-04
2.5582005e-04
-3.1215387e-04
-6.7199142e-04
-7.7379362e-04
-9.1248785e-04
-7.3219165e-04
-4.9510199e-04
-1.1746717e-04
-5.9096292e-06
-2.4342202e-04
-3.9574606e-04
-8.9556853e-04
-1.1659511e-03
-1.1972399e-03
-1.3969294e-03
-1.5615648e-03
-1.9063036e-03
-1.7749225e-03
-1.3983784e-03
-1.3284907e-03
-1.2287208e-03
-1.2104485e-03
-6.4963349e-04
2.4618139e-04
8.5773608e-04
1.2898823e-03
1.3177162e-03
1.5586771e-03
1.9483146e-03
1.9956099e-03
1.8290748e-03
1.3294035e-03
1.1801834e-03
1.3225034e-03
1.2362402e-03
9.4793242e-04
4.0255593e-04
3.7869569e-04
6.2786248e-04
5.8066224e-04
2.1776334e-04
-6.7050080e-04
-1.3195957e-03
-1.6534177e-03
-1.7686892e-03
-1.6366753e-03
-1.7697877e-03
-1.7023367e-03
-1.4754243e-03
-1.2316886e-03
-8.6811963e-04
-8.4473624e-04
-7.4613214e-04
-5.6643223e-04
-4.3373198e-04
-2.3715007e-04
-2.5921838e-04
-1.5278939e-04
5.7587265e-05
4.6370682e-04
8.1984682e-04
5.8943503e-04
5.0493598e-04
6.2260325e-04
8.3291034e-04
9.7988209e-04
7.3201983e-04
7.4733139e-04
1.1349268e-03
1.9994454e-03
2.8169399e-03
2.7483855e-03
2.3324873e-03
1.7964425e-03
1.4398314e-03
1.1313235e-03
4.0122421e-04
-4.9193437e-04
-1.4626213e-03
-1.7864953e-03
-1.4236338e-03
-1.0245281e-03
-6.2077164e-04
-3.8477032e-04
3.0767791e-06
2.1258200e-04
-6.5187371e-05
-2.7660406e-04
-5.1583844e-04
-3.4489195e-04
1.5157409e-04
4.6002551e-04
6.8787309e-04
5.8825463e-04
8.3587042e-04
1.2884324e-03
1.1855823e-03
7.8433360e-04
7.6271503e-05
-3.0339837e-04
-4.1940472e-04
-8.0672316e-04
-1.3420833e-03
-2.0848220e-03
-2.2926987e-03
-2.2074434e-03
-2.2959977e-03
-2.0084285e-03
-1.6774661e-03
-1.2338537e-03
-8.1161429e-04
-7.6247908e-04
-7.8959265e-04
-9.9961964e-04
-1.0106804e-03
-8.8429547e-04
-8.0672757e-04
-5.9861429e-04
-7.7039719e-04
-1.0747495e-03
-1.3173578e-03
-1.3403466e-03
-1.0011930e-03
-8.6429958e-04
-5.7353280e-04
-1.5133545e-04
2.4829388e-04
5.8104668e-04
4.9686832e-04
7.1915661e-04
1.0379711e-03
1.0069907e-03
6.1671850e-04
-3.1316600e-04
-1.0229473e-03
-1.4730620e-03
-1.6065178e-03
-1.4130619e-03
-1.3890606e-03
-9.1050281e-04
-1.3770752e-04
5.8596271e-04
1.1959529e-03
1.3210580e-03
1.6049794e-03
2.0882435e-03
2.5060126e-03
2.6708865e-03
2.2737240e-03
1.9425814e-03
1.7372543e-03
1.5351553e-03
1.0960298e-03
1.6382224e-04
-5.0942780e-04
-8.0618050e-04
-8.7310126e-04
-9.8205239e-04
-1.2089714e-03
-1.1755453e-03
-1.2294083e-03
-9.7007236e-04
-4.4735344e-04
-2.6571226e-04
-1.4469057e-04
-1.7463036e-04
6.6638648e-05
2.2691465e-04
-3.1163538e-04
-8.1409625e-04
-1.0723699e-03
-4.8999005e-04
7.7116678e-04
1.8475475e-03
2.7779821e-03
3.2551096e-03
3.7415276e-03
4.1209263e-03
3.8311997e-03
3.4265922e-03
2.8322945e-03
2.4848229e-03
2.4630504e-03
2.1708064e-03
1.8448821e-03
1.4058205e-03
1.3235754e-03
1.5491658e-03
1.4441252e-03
1.1095673e-03
4.4291815e-04
4.6768923e-05
-1.1482932e-04
-4.6895327e-04
-8.2829559e-04
-1.4292226e-03
-1.6104196e-03
-1.2479049e-03
-7.8462907e-04
-3.1603648e-04
-2.4800772e-04
5.0297407e-05
6.4513314e-04
1.1045245e-03
1.3512117e-03
9.9541261e-04
8.4826038e-04
1.1008790e-03
1.1785636e-03
9.7959207e-04
3.6832907e-04
1.4254871e-04
2.8289392e-04
4.5516816e-04
5.8469634e-04
1.2168175e-04
-4.0767096e-04
-7.8132221e-04
-9.8038291e-04
-1.1615478e-03
-1.8775853e-03
-2.5002347e-03
-2.7792195e-03
-2.7654525e-03
-2.7589547e-03
-3.3651275e-03
-3.9288053e-03
-4.1514167e-03
-3.9627877e-03
-3.5493339e-03
-3.5319933e-03
-3.4470648e-03
-3.0690012e-03
-2.3181594e-03
-1.5427179e-03
-1.3474345e-03
-1.4691828e-03
-1.8295738e-03
-1.7770677e-03
-1.1738271e-03
-7.4278003e-04
-4.4591680e-04
-4.6627382e-04
-4.1396855e-04
-6.7162018e-05
2.0781380e-04
5.2386888e-04
5.4438796e-04
6.3490410e-04
5.5837259e-04
-1.9691895e-04
-7.9859538e-04
-1.0169769e-03
-5.5006178e-04
1.5354420e-04
4.3240380e-04
6.6640879e-04
6.5374490e-04
7.4466039e-04
1.1832351e-03
1.8042695e-03
2.4599710e-03
2.5241484e-03
2.5552896e-03
2.6642304e-03
2.4908812e-03
2.3700331e-03
2.0842499e-03
2.0868646e-03
2.3929846e-03
2.4884272e-03
2.4682561e-03
2.1609523e-03
1.9905960e-03
1.9443018e-03
1.9631443e-03
2.2540399e-03
2.2553407e-03
2.1628257e-03
1.6801394e-03
6.7534679e-04
-1.5795631e-04
-8.1431494e-04
-8.7073145e-04
-5.8045101e-04
-4.5148300e-04
-6.0231960e-04
-1.1846226e-03
-1.2603639e-03
-9.3586184e-04
-7.9138689e-04
-5.6410340e-04
-3.5757526e-04
1.6088449e-04
7.8708392e-04
1.2215678e-03
1.3428354e-03
8.1728101e-04
4.9967289e-04
5.1392937e-04
5.4652958e-04
3.6335108e-04
-3.1817966e-04
-5.9063513e-04
-5.5718079e-04
-6.3059386e-04
-8.3940740e-04
-1.3263204e-03
-1.4778687e-03
-1.4660778e-03
-1.4706195e-03
-1.7032675e-03
-2.4375962e-03
-2.8205544e-03
-2.8045821e-03
-2.5018696e-03
-2.2206722e-03
-2.3392133e-03
-2.0460332e-03
-1.3462481e-03
-4.2218880e-04
2.8526620e-04
3.6155927e-04
5.5201563e-04
9.8144337e-04
1.7644456e-03
2.2516347e-03
1.7746842e-03
1.1790375e-03
6.4956522e-04
4.3937620e-04
3.2460239e-04
-3.1564490e-04
-1.0391846e-03
-1.6575119e-03
-1.6966460e-03
-1.4816324e-03
-1.6434074e-03
-1.7823765e-03
-1.9469271e-03
-1.6388431e-03
-9.6168436e-04
-4.6195961e-04
3.3517746e-05
3.2188368e-04
1.0133931e-03
2.0712096e-03
2.7246041e-03
2.8315446e-03
2.3782170e-03
2.2864151e-03
2.4798847e-03
2.3235295e-03
2.0158749e-03
1.4800627e-03
1.2377635e-03
1.2496516e-03
1.2279994e-03
1.1149414e-03
5.0165001e-04
2.3993815e-04
4.1534679e-04
4.6021963e-04
2.7243226e-04
-3.5628733e-04
-5.0402100e-04
-1.0844062e-04
3.4692636e-04
5.6141414e-04
-6.8953727e-06
-3.9874968e-04
-1.9639987e-04
2.0646376e-04
5.4571239e-04
5.7820410e-04
8.7233765e-04
1.3343632e-03
1.9521075e-03
2.5180870e-03
2.3696842e-03
2.2504847e-03
2.1471555e-03
1.9073052e-03
1.5560566e-03
4.9546815e-04
-4.8251965e-04
-1.0112872e-03
-1.3030277e-03
-1.6101659e-03
-2.3634403e-03
-3.1328467e-03
-3.8965499e-03
-4.2525206e-03
-4.1803445e-03
-4.3004528e-03
-4.0491589e-03
-3.4154874e-03
-2.4807168e-03
-1.5152026e-03
-1.1063467e-03
-8.6505144e-04
-7.2502886e-04
-2.2785046e-04
5.0283948e-04
7.8662941e-04
9.4791912e-04
8.2161836e-04
7.6078776e-04
8.2118834e-04
5.2527067e-04
2.5197897e-04
-2.0608428e-05
-1.6256280e-05
6.8842009e-05
-1.6136995e-04
-3.6661565e-04
-7.8363395e-04
-9.2156809e-04
-7.6803760e-04
-8.7009965e-04
-9.5332992e-04
-1.1282833e-03
-9.5227515e-04
-5.8668579e-04
-5.1826272e-04
-5.0879195e-04
-7.6481834e-04
-7.8452687e-04
-6.4634168e-04
-6.3443647e-04
-3.3644797e-04
-3.3016774e-05
4.5348705e-04
7.1618440e-04
3.5690545e-04
-1.2825299e-04
-7.3910655e-04
-8.3763328e-04
-6.1469717e-04
-5.8929955e-04
-6.1881395e-04
-1.0605942e-03
-1.1584208e-03
-9.0353457e-04
-8.9824260e-04
-9.1296823e-04
-9.6082647e-04
-5.0777152e-04
1.3216534e-04
5.3173002e-04
8.2975587e-04
6.9158048e-04
6.7591256e-04
7.7368260e-04
6.2418686e-04
4.1077685e-04
9.3025777e-05
2.2241195e-04
6.8728915e-04
1.1045648e-03
1.3273182e-03
1.1306027e-03
1.0783526e-03
1.0414247e-03
9.6363066e-04
9.7799016e-04
7.5532176e-04
8.1445510e-04
1.0091795e-03
1.1429472e-03
1.3249816e-03
1.2446474e-03
1.2043557e-03
1.1399298e-03
1.2269950e-03
1.3958900e-03
1.1159227e-03
8.9303453e-04
7.3511770e-04
6.1655486e-04
1.8302969e-04
-9.3659612e-04
-1.9120713e-03
-2.6536304e-03
-2.8139257e-03
-2.5296283e-03
-2.5923528e-03
-2.6225440e-03
-2.5471378e-03
-2.0763674e-03
-1.4603271e-03
-1.2263457e-03
-9.3310045e-04
-6.1712492e-04
1.2145178e-04
9.0095641e-04
9.9689737e-04
9.9270144e-04
9.7985862e-04
1.4280612e-03
2.0965184e-03
2.0971710e-03
1.7453207e-03
1.2474545e-03
1.2114942e-03
1.4657430e-03
1.3687932e-03
1.2041780e-03
9.5266874e-04
1.2718740e-03
1.8972295e-03
1.8773829e-03
1.4474015e-03
7.3427062e-04
3.6723987e-04
2.0392722e-04
-2.8866404e-04
-7.4868790e-04
-1.2035842e-03
-1.1637209e-03
-8.7047745e-04
-8.9829674e-04
-9.8862876e-04
-1.3846992e-03
-1.4219788e-03
-9.3910693e-04
-7.0477769e-04
-7.9238061e-04
-1.0910974e-03
-8.6128662e-04
-2.9997148e-04
2.0204826e-04
6.7909321e-04
6.4415551e-04
6.9610312e-04
9.8642258e-04
1.3290421e-03
1.8014226e-03
1.8122672e-03
1.6908270e-03
1.6110032e-03
1.6114413e-03
1.7064574e-03
1.3695471e-03
1.3564471e-03
1.7392310e-03
1.9013054e-03
1.7184607e-03
1.0707033e-03
7.0847658e-04
7.0558352e-04
8.5595712e-04
1.0317869e-03
6.8228653e-04
2.7580577e-04
-1.5292530e-04
-5.8777497e-04
-9.3052071e-04
-1.5450495e-03
-1.8616561e-03
-1.9556162e-03
-1.8853065e-03
-1.6853369e-03
-1.8330851e-03
-1.8841777e-03
-2.0372968e-03
-2.0698987e-03
-1.6704835e-03
-1.4969171e-03
-1.3173867e-03
-1.1369322e-03
-8.2935423e-04
-4.3104067e-04
-3.9455448e-04
-1.4791743e-04
2.3327100e-04
5.5429773e-04
7.3080456e-04
5.5641275e-04
4.8865886e-04
3.4927908e-04
3.3611500e-04
4.1796538e-04
1.8799164e-04
2.9656607e-04
5.5460548e-04
7.9272317e-04
8.5759599e-04
5.4371191e-04
4.9496876e-04
4.8620313e-04
5.8083944e-04
6.6517201e-04
3.2448226e-04
1.1008536e-04
-7.3317556e-05
-1.7768259e-04
-3.2833845e-04
-7.5952709e-04
-1.0972298e-03
-1.6604685e-03
-2.1566877e-03
-2.4062011e-03
-2.6330517e-03
-2.4409385e-03
-1.9501833e-03
-1.0066799e-03
-9.2500628e-05
1.4316348e-04
1.5732067e-04
9.1139934e-05
4.8172778e-04
1.0516862e-03
1.1971071e-03
1.1990758e-03
1.0215845e-03
1.2655107e-03
1.6915401e-03
1.6443429e-03
1.2593714e-03
4.6766916e-04
1.0699203e-04
2.1068695e-04
1.8914628e-04
8.3183230e-05
-2.7478799e-04
-2.5806816e-04
-7.6766572e-05
-1.4771900e-04
-2.4389540e-04
-7.2436668e-04
-9.1856675e-04
-7.8576734e-04
-9.2063388e-04
-1.1612990e-03
-1.5206773e-03
-1.4844718e-03
-1.2431840e-03
-1.1047688e-03
-8.5700041e-04
-7.1630599e-04
-2.2318079e-04
4.6103732e-04
1.0085167e-03
1.3921690e-03
1.3214550e-03
1.5296231e-03
1.7919435e-03
1.6842168e-03
1.4437378e-03
9.7990796e-04
1.0926181e-03
1.5646412e-03
1.7526414e-03
1.6288380e-03
1.0735752e-03
8.1966464e-04
8.7773164e-04
9.7764460e-04
9.9707014e-04
5.2069388e-04
3.8366666e-05
-4.5243560e-04
-7.4732061e-04
-6.5942584e-04
-8.7592525e-04
-1.1396076e-03
-1.5135393e-03
-1.8447734e-03
-1.9359333e-03
-2.3544234e-03
-2.6920616e-03
-2.6157103e-03
-1.8990157e-03
-9.6490391e-04
-6.1874300e-04
-3.7564228e-04
-9.1073961e-05
4.5990029e-04
9.9807828e-04
7.8014127e-04
4.1052351e-04
1.7672555e-04
4.3253611e-04
9.5797163e-04
1.0669581e-03
1.2071149e-03
1.3446775e-03
1.7050928e-03
2.0608214e-03
1.8999606e-03
1.7780418e-03
1.4691502e-03
1.1672957e-03
1.0750231e-03
8.4422858e-04
6.2478566e-04
1.4409772e-04
-1.2564182e-04
-4.1278307e-05
-1.4787917e-04
-3.0525622e-04
-7.4008230e-04
-8.9870543e-04
-6.3055039e-04
-5.6136418e-04
-5.2967254e-04
-7.1437165e-04
-6.7773455e-04
-4.7459324e-04
-6.0786122e-04
-6.9006187e-04
-8.0009029e-04
-4.2178319e-04
3.2827720e-04
7.4615480e-04
1.1081259e-03
1.3618529e-03
1.8902102e-03
2.3575164e-03
2.0582852e-03
1.5838474e-03
1.0411695e-03
6.2726037e-04
1.1960893e-04
-7.0429667e-04
-1.2249614e-03
-1.5075701e-03
-1.1997107e-03
-8.6023287e-04
-1.3441436e-03
-2.0491948e-03
-2.4939248e-03
-2.2267592e-03
-1.9088849e-03
-1.9593307e-03
-1.8458631e-03
-1.6866186e-03
-1.0239726e-03
-2.0549215e-04
1.3336928e-04
2.2809450e-04
-1.7364034e-05
7.6786840e-05
4.7438109e-04
5.9164125e-04
4.9702036e-04
9.5352882e-05
1.1906269e-04
5.2267607e-04
7.8091712e-04
9.9434265e-04
9.0682140e-04
9.1998886e-04
9.1846715e-04
6.3158903e-04
2.6784365e-04
-5.0813402e-04
-1.1245440e-03
-1.2905109e-03
-1.3508886e-03
-1.5236463e-03
-1.9416773e-03
-1.9218187e-03
-1.6286137e-03
-1.3741678e-03
-1.1700600e-03
-1.3893494e-03
-1.4750185e-03
-1.1838794e-03
-4.5495244e-04
3.6546178e-04
5.6959757e-04
8.2076978e-04
1.2334765e-03
1.5628913e-03
1.5564608e-03
1.0437743e-03
9.0104196e-04
1.0453939e-03
1.3536286e-03
1.6490513e-03
1.3445864e-03
1.1809015e-03
1.3050706e-03
1.5965705e-03
1.7355246e-03
1.0571280e-03
2.6592671e-04
-2.3255606e-04
-2.4811484e-04
-2.0691916e-04
-6.6452749e-04
-1.0244135e-03
-1.4258268e-03
-1.6642640e-03
-1.7248757e-03
-2.0671327e-03
-2.2189360e-03
-2.1303036e-03
-1.5274537e-03
-6.9805474e-04
-3.0416375e-04
2.4896472e-05
2.2683150e-04
7.9594300e-04
1.5778902e-03
1.6680715e-03
1.3639516e-03
7.6249068e-04
2.8026874e-04
-4.7613649e-05
-4.9911173e-04
-7.3759246e-04
-9.5747618e-04
-8.0926439e-04
-4.1289489e-04
-3.7286773e-04
-5.0266229e-04
-8.9632693e-04
-9.2969783e-04
-6.6798047e-04
-6.0866526e-04
-3.9151109e-04
-4.3700493e-04
-3.7805193e-04
-3.1730312e-04
-7.0600298e-04
-9.5511926e-04
-1.1816431e-03
-9.7638245e-04
-4.4064306e-04
-1.9339417e-05
4.8000294e-04
7.4236966e-04
1.0998228e-03
1.2737990e-03
1.0678082e-03
1.0339903e-03
9.4364991e-04
1.2933488e-03
1.9782754e-03
2.3752396e-03
2.6852622e-03
2.8480802e-03
3.1634962e-03
3.3357337e-03
3.0576474e-03
2.6816157e-03
2.1172393e-03
1.8565329e-03
1.6654420e-03
1.1099660e-03
4.7045904e-04
-2.9060692e-04
-7.2021387e-04
-1.2918114e-03
-2.2504376e-03
-2.9233250e-03
-3.3198159e-03
-2.9897347e-03
-2.3144269e-03
-1.7943983e-03
-1.2667963e-03
-1.1019160e-03
-9.2933750e-04
-7.9639295e-04
-8.7760714e-04
-9.2828490e-04
-9.1914692e-04
-2.1844292e-04
6.6096137e-04
1.1783528e-03
1.6057470e-03
1.8686262e-03
2.5288397e-03
3.3241040e-03
3.7820315e-03
3.7643197e-03
2.9198279e-03
2.0080360e-03
1.2923046e-03
8.6381963e-04
6.6551215e-04
1.2190940e-04
-1.9286924e-04
-2.8285295e-04
-4.4905964e-04
-7.7101436e-04
-1.4751795e-03
-1.8797716e-03
-1.9244427e-03
-1.6787364e-03
-1.3280896e-03
-1.3845669e-03
-1.2351923e-03
-8.5676302e-04
-3.6627503e-04
9.5883079e-06
-1.1444559e-04
-1.1788748e-04
-4.5637457e-05
2.8077521e-04
7.2693669e-04
5.0398813e-04
1.8675199e-04
-6.0393773e-05
-1.0308481e-04
1.0264558e-04
1.8566773e-05
-4.1562449e-05
-1.2098065e-04
9.6327404e-05
3.6459352e-04
-2.1611797e-04
-1.0333824e-03
-1.5685961e-03
-1.3649164e-03
-9.0823268e-04
-1.1713213e-03
-1.6931512e-03
-2.2361629e-03
-2.3352892e-03
-1.9973941e-03
-1.8499928e-03
-1.7026186e-03
-1.5014712e-03
-6.4261903e-04
6.7704189e-04
1.4494714e-03
1.7803386e-03
1.7406756e-03
1.8338508e-03
1.8979069e-03
1.3735115e-03
9.1268926e-04
5.6749797e-04
4.9792759e-04
6.5506528e-04
5.4500630e-04
3.6458547e-04
-4.8937632e-05
-2.9069324e-04
-2.7463943e-04
-4.4628803e-04
-7.1619189e-04
-1.3599131e-03
-1.6718665e-03
-1.4364889e-03
-1.1873227e-03
-7.5111284e-04
-5.0771005e-04
-2.8996326e-04
-1.5855974e-04
-2.8631864e-04
-2.0900844e-04
-2.5693856e-04
-2.4031183e-04
-1.7649302e-04
-2.4931552e-04
-2.7576467e-04
-6.4189123e-04
-7.3866253e-04
-4.4027034e-04
-1.6755541e-04
6.9590163e-05
-2.1307278e-04
-4.0960789e-04
-3.2077803e-04
-2.4116843e-04
9.1014865e-05
3.8874719e-04
8.6647006e-04
1.3617340e-03
1.6993363e-03
1.8673114e-03
1.5573081e-03
1.5096425e-03
1.3865798e-03
8.1545392e-04
3.2627178e-04
-3.5126651e-04
-7.7007149e-04
-9.8459556e-04
-1.3827681e-03
-1.6375042e-03
-1.8524778e-03
-1.6181943e-03
-1.0507531e-03
-5.2651564e-04
1.9103815e-05
4.7568555e-04
1.3449454e-03
2.2115975e-03
2.5658625e-03
2.5056195e-03
2.0727961e-03
2.1427300e-03
2.4208941e-03
2.4075416e-03
2.2874722e-03
1.7860626e-03
1.3597785e-03
1.0803754e-03
8.9792682e-04
7.4379225e-04
7.9802648e-05
-6.1001076e-04
-1.1205752e-03
-1.3021152e-03
-1.4079312e-03
-2.0916123e-03
-2.5965430e-03
-2.9217029e-03
-3.1095545e-03
-3.0300326e-03
-3.0572967e-03
-2.6253618e-03
-1.9816767e-03
-1.3122327e-03
-5.6138809e-04
-1.6332782e-04
2.8489917e-04
8.0075101e-04
1.4417772e-03
2.0202708e-03
2.0923822e-03
2.1291501e-03
2.0755027e-03
2.2063195e-03
2.4184261e-03
2.0793271e-03
1.6996003e-03
1.2364674e-03
9.4133932e-04
7.9105120e-04
1.3509168e-04
-4.5673730e-04
-7.3070441e-04
-5.3190644e-04
-3.3186088e-04
-8.5791126e-04
-1.4738825e-03
-1.9093606e-03
-1.8858894e-03
-1.6265156e-03
-1.7505514e-03
-1.9061787e-03
-1.9877977e-03
-1.5564161e-03
-8.4838282e-04
-6.1699716e-04
-5.7550644e-04
-6.9346170e-04
-4.4102893e-04
1.7701280e-04
5.4700890e-04
7.8219270e-04
6.2211935e-04
6.0044061e-04
8.5862301e-04
9.2928164e-04
1.0173745e-03
1.0130960e-03
1.5191067e-03
2.2763815e-03
2.4043464e-03
2.1186918e-03
1.3636526e-03
8.1452635e-04
5.3667663e-04
-7.8179722e-05
-6.5491666e-04
-1.3935219e-03
-2.0031131e-03
-2.3589595e-03
-2.6849556e-03
-2.6489082e-03
-2.5758490e-03
-2.1399392e-03
-1.4495869e-03
-9.2687589e-04
-4.1870665e-04
-2.6123654e-04
-1.5960287e-05
2.4998761e-04
2.6278109e-04
2.3128093e-04
-2.6760670e-04
-8.7540309e-04
-1.3489976e-03
-1.5253797e-03
-1.2289528e-03
-1.0272332e-03
-5.2008416e-04
3.0778693e-04
1.0061856e-03
1.5996295e-03
1.8959698e-03
2.2413329e-03
2.3874764e-03
2.0778417e-03
1.5979199e-03
9.0581834e-04
6.8867247e-04
8.4976006e-04
8.4550533e-04
6.6478195e-04
2.6540916e-04
3.4554402e-04
4.6105451e-04
9.8888037e-05
-2.0369250e-04
-4.2245846e-04
-2.9796962e-05
6.7975017e-04
1.0176273e-03
1.0177298e-03
7.1962082e-04
8.5770831e-04
1.1610359e-03
1.1751104e-03
9.2745313e-04
1.0571158e-04
-4.2375143e-04
-4.3259157e-04
-2.4078560e-04
1.8281299e-05
-7.0376636e-05
5.6617520e-05
3.8937293e-04
5.4552774e-04
2.8980552e-04
-5.1705559e-04
-9.9511302e-04
-9.8073068e-04
-6.1743395e-04
-2.9541147e-04
-5.3525224e-04
-7.2906867e-04
-7.8007894e-04
-6.1941678e-04
-4.2560913e-04
-5.0432844e-04
-1.9465696e-04
2.7094420e-04
8.5505723e-04
1.4704886e-03
1.4943054e-03
1.4243389e-03
1.3129328e-03
1.3011346e-03
1.2409125e-03
5.5488764e-04
-1.3445623e-05
-2.4104027e-04
-7.0327730e-06
3.5157351e-04
3.1287315e-05
-4.6610350e-04
-9.5471921e-04
-1.1867006e-03
-1.3804953e-03
-2.0554551e-03
-2.6088623e-03
-2.8920415e-03
-2.5071319e-03
-1.7979041e-03
-1.6842942e-03
-1.6588721e-03
-1.5833498e-03
-1.1990817e-03
-5.8199928e-04
-2.0157447e-04
2.9181730e-04
5.9288364e-04
7.3456722e-04
7.4592626e-04
4.5548489e-04
2.7303394e-04
7.6148471e-05
2.2825131e-04
5.4427879e-04
4.1703654e-04
2.0672342e-04
-1.1396012e-04
-1.7961119e-04
-1.4218577e-05
-4.8730310e-05
-1.1515288e-04
-3.5577445e-04
-3.1881801e-04
-2.1177638e-04
-4.4856455e-04
-5.1401264e-04
-6.1585744e-04
-5.2535463e-04
-3.0893612e-04
-3.4604547e-04
-5.4195744e-04
-1.2129139e-03
-1.6764613e-03
-1.7916983e-03
-1.7162839e-03
-1.0384869e-03
-5.2550246e-04
-1.9429571e-04
1.2983971e-04
3.8077057e-04
7.0728742e-04
6.3501245e-04
5.8474755e-04
5.8815885e-04
4.4346145e-04
4.3428915e-04
3.2541156e-04
5.0078277e-04
6.7889540e-04
5.7639387e-04
4.5487717e-04
-2.9131659e-05
-3.2615493e-04
-3.9129910e-04
-5.2403454e-04
-6.1903036e-04
-8.5331343e-04
-4.5602439e-04
3.5289208e-04
8.4691246e-04
1.1646643e-03
1.1889091e-03
1.2700573e-03
1.2503318e-03
1.0500923e-03
7.9010482e-04
1.5364895e-04
-1.1017660e-04
3.7513005e-06
-9.7073613e-06
-2.6795502e-04
-1.0434750e-03
-1.5236367e-03
-1.4900993e-03
-1.3329699e-03
-1.2598041e-03
-1.4556260e-03
-1.2882507e-03
-8.7682498e-04
-4.3843774e-04
1.7572733e-05
1.4315362e-04
4.6064173e-04
9.2943427e-04
1.3603026e-03
1.6207287e-03
1.3507678e-03
1.3346357e-03
1.6319775e-03
1.9824337e-03
2.1520370e-03
1.7629284e-03
1.5160668e-03
1.4056317e-03
1.3065390e-03
9.7572990e-04
-7.0763112e-06
-8.2932458e-04
-1.2579975e-03
-1.2246490e-03
-1.1288497e-03
-1.7054434e-03
-2.1840886e-03
-2.2537888e-03
-1.8302560e-03
-1.2714900e-03
-1.2672137e-03
-1.3112307e-03
-1.4134801e-03
-1.2843891e-03
-9.7364414e-04
-9.7697177e-04
-5.9993881e-04
-1.3684547e-06
7.6505584e-04
1.5432713e-03
1.5965892e-03
1.2881296e-03
9.9464894e-04
1.2298696e-03
1.7804008e-03
1.9459799e-03
1.8351540e-03
1.4695229e-03
1.5175919e-03
1.9204164e-03
1.9588449e-03
1.8225598e-03
1.5143856e-03
1.4469916e-03
1.6130725e-03
1.7355418e-03
1.9084745e-03
1.7329916e-03
1.6799801e-03
1.7992087e-03
1.8335440e-03
2.0714698e-03
2.0594101e-03
2.1906449e-03
2.5335387e-03
2.6219485e-03
2.4652763e-03
1.6408845e-03
8.3843176e-04
2.7352726e-04
-3.1100474e-04
-6.6938118e-04
-1.2323460e-03
-1.3888741e-03
-1.2771355e-03
-1.5366232e-03
-1.7872369e-03
-2.3251941e-03
-2.6800451e-03
-2.8428122e-03
-3.3093069e-03
-3.6949961e-03
-4.0029711e-03
-3.8631217e-03
-3.5244024e-03
-3.2747774e-03
-2.7359136e-03
-2.1293058e-03
-1.2630912e-03
-5.1906086e-04
-1.4303842e-04
2.0841102e-04
2.7537680e-04
4.9376983e-04
8.1131126e-04
1.0444314e-03
1.3603730e-03
1.2642811e-03
1.0554947e-03
7.4854613e-04
3.7672471e-04
2.6696266e-04
1.5022975e-06
-6.9673503e-06
2.1493985e-04
5.0831060e-04
9.5563164e-04
1.1337238e-03
1.3314281e-03
1.3401127e-03
1.3339131e-03
1.4883618e-03
1.1822553e-03
8.9795771e-04
6.2724358e-04
3.2224912e-04
2.8047150e-04
1.7208140e-04
1.9652661e-04
2.1799937e-04
2.6830732e-04
3.7527448e-04
2.8754118e-04
6.7304911e-04
1.1355371e-03
1.1315716e-03
8.4622485e-04
3.7711956e-04
3.7891045e-04
6.8468089e-04
1.1234673e-03
1.5791860e-03
1.5985230e-03
1.5353410e-03
1.3695025e-03
1.2892114e-03
1.1024787e-03
4.9981926e-04
2.3781110e-04
2.6507421e-04
5.3257488e-04
5.8804962e-04
-5.3904951e-05
-6.1108011e-04
-1.0748477e-03
-1.1435584e-03
-8.2805398e-04
-8.1454813e-04
-7.8268019e-04
-5.6431683e-04
1.8203770e-04
7.5094692e-04
3.9042445e-04
-8.8664220e-05
-5.8517338e-04
-6.6535369e-04
-3.7626930e-04
-5.8238111e-04
-1.0898328e-03
-1.5879147e-03
-1.2708773e-03
-3.1300427e-04
1.9208937e-04
2.2465874e-04
-8.6680862e-05
-8.7056050e-05
4.7785884e-05
-1.8975617e-04
-4.2180411e-04
-8.3876696e-04
-8.4747707e-04
-4.4499171e-04
-2.9605392e-04
-2.1540030e-04
-3.0070450e-04
1.7093408e-04
1.0317619e-03
1.3899332e-03
1.3584863e-03
8.1119143e-04
4.3706945e-04
2.9989339e-04
-2.5583690e-05
-4.4114957e-04
-1.2521271e-03
-1.7067201e-03
-1.8215853e-03
-2.2116704e-03
-2.6988502e-03
-3.2628539e-03
-3.0893762e-03
-2.2364426e-03
-1.3596856e-03
-6.8233963e-04
-6.6531793e-04
-5.2828248e-04
-5.1362754e-05
2.7993244e-04
5.0115609e-04
4.0647488e-04
5.5160444e-04
9.2458241e-04
1.2049087e-03
1.4336565e-03
1.1344986e-03
7.0348767e-04
3.2917111e-04
-5.1511891e-05
-4.1844408e-04
-1.1280243e-03
-1.5438358e-03
-1.5156135e-03
-1.1984965e-03
-7.2423644e-04
-5.5929123e-04
-3.5479886e-04
-3.1294975e-04
-1.8791166e-04
6.9796942e-05
-2.8055709e-04
-6.2347805e-04
-7.5961149e-04
-7.6169914e-04
-7.2211086e-04
-9.2189682e-04
-7.4201467e-04
-2.9840721e-04
2.5461394e-04
8.8046572e-04
1.1540288e-03
1.5410513e-03
2.0150236e-03
2.4761999e-03
2.9051734e-03
3.1497030e-03
3.6900153e-03
4.1104333e-03
4.3510232e-03
4.5614349e-03
4.3788847e-03
4.0666625e-03
3.5321458e-03
3.2764253e-03
3.3841252e-03
3.2846688e-03
3.1776910e-03
2.7579337e-03
2.3499632e-03
1.9011545e-03
9.7914721e-04
3.7625997e-04
9.4944142e-05
1.7785361e-05
-1.9314871e-04
-9.8549486e-04
-1.9342296e-03
-3.1301151e-03
-4.1634805e-03
-4.8841412e-03
-5.7282370e-03
-6.2986907e-03
-6.3983597e-03
-5.7786019e-03
-4.9124435e-03
-4.3383913e-03
-3.7500402e-03
-3.2027509e-03
-2.2415111e-03
-1.3305004e-03
-1.1919288e-03
-1.4377226e-03
-1.9487490e-03
-2.0216355e-03
-1.9062783e-03
-2.0266531e-03
-1.7150637e-03
-1.1708412e-03
-2.1967108e-04
9.1385089e-04
1.6941419e-03
2.2776017e-03
2.4431878e-03
2.7190062e-03
3.1680674e-03
3.2907779e-03
3.1868000e-03
2.7596898e-03
2.6027574e-03
2.6101737e-03
2.2166807e-03
1.5400246e-03
5.1648112e-04
-4.0429672e-05
-6.8728290e-05
-1.0278038e-04
-2.8058202e-04
-9.6064542e-04
-1.3536664e-03
-1.2283470e-03
-1.1000875e-03
-1.1708862e-03
-1.5952333e-03
-1.6913016e-03
-1.3611093e-03
-8.1268283e-04
-3.4832979e-04
-5.1420402e-04
-5.8704862e-04
-3.8643498e-04
-1.1860685e-04
-6.6950008e-06
-4.7045585e-04
-5.7356456e-04
-6.7141846e-05
5.9157829e-04
8.8661272e-04
4.0190717e-04
7.6021125e-05
3.4844206e-05
1.3145363e-04
1.9567008e-04
-4.7450346e-04
-1.2184573e-03
-1.6878661e-03
-1.7898646e-03
-1.7554445e-03
-2.2758881e-03
-2.7195672e-03
-2.7995778e-03
-2.4698779e-03
-2.0720709e-03
-1.9957838e-03
-1.7113742e-03
-1.6128002e-03
-1.4660973e-03
-8.7838696e-04
-3.1126229e-04
3.1510382e-04
6.5076600e-04
8.1226318e-04
9.7015012e-04
8.9330400e-04
8.6703742e-04
8.3079983e-04
1.1199976e-03
1.5127192e-03
1.3980225e-03
1.1247717e-03
8.5449104e-04
1.0684517e-03
1.4172477e-03
1.2192659e-03
9.3931230e-04
5.3299115e-04
2.0093528e-04
-1.6744275e-04
-6.9362626e-04
-9.1777242e-04
-1.1887691e-03
-1.1643047e-03
-1.0157712e-03
-1.1766616e-03
-1.2801618e-03
-1.6545075e-03
-1.8354792e-03
-1.8067625e-03
-1.9059679e-03
-1.5990741e-03
-1.1025572e-03
-3.7111997e-04
3.8892725e-04
9.6361485e-04
1.4991321e-03
1.5638078e-03
1.6728681e-03
1.9578558e-03
2.0346358e-03
1.9839389e-03
1.5132112e-03
1.0797765e-03
8.4309341e-04
7.9913677e-04
1.0987591e-03
1.1922232e-03
1.5814630e-03
2.0999947e-03
2.1757250e-03
1.9919568e-03
1.4629183e-03
1.1786426e-03
1.0060219e-03
9.2733047e-04
1.1464137e-03
1.1029212e-03
1.1071219e-03
1.0645105e-03
1.1251735e-03
1.4759271e-03
1.6509236e-03
2.1543736e-03
2.7067397e-03
2.9324745e-03
2.8321016e-03
2.2534639e-03
2.0058491e-03
2.1111498e-03
2.3133723e-03
2.2771987e-03
1.5992112e-03
1.1321893e-03
9.5591042e-04
8.3799948e-04
6.2852059e-04
2.8002948e-06
-4.2227466e-04
-5.4825125e-04
-3.9376436e-04
-2.8107810e-04
-7.9025115e-04
-1.4185558e-03
-1.9121244e-03
-1.9665907e-03
-1.9142269e-03
-2.3675851e-03
-2.7278142e-03
-2.8101429e-03
-2.5295449e-03
-2.3274771e-03
-2.6642486e-03
-2.9247752e-03
-3.0724251e-03
-2.9623652e-03
-2.9049729e-03
-3.2071114e-03
-3.2681779e-03
-3.1760766e-03
-2.8112604e-03
-2.6259296e-03
-3.0099058e-03
-3.2337253e-03
-3.2469173e-03
-2.6982561e-03
-1.9809058e-03
-1.8085321e-03
-1.5999954e-03
-1.2140330e-03
-2.4254756e-04
9.5708074e-04
1.5864922e-03
1.7191187e-03
1.2372809e-03
1.0161037e-03
1.2278486e-03
1.3131925e-03
1.2216645e-03
6.9140246e-04
5.2508161e-04
6.5682898e-04
3.1519457e-04
-4.4421215e-04
-1.5190545e-03
-2.1629243e-03
-2.6071845e-03
-3.2928831e-03
-4.2010933e-03
-5.4353491e-03
-5.9875302e-03
-5.8054572e-03
-5.1430372e-03
-4.0178686e-03
-3.1439447e-03
-2.2062342e-03
-1.1053459e-03
1.7361160e-04
1.6040623e-03
2.6675534e-03
4.0199462e-03
5.6596890e-03
7.1378946e-03
8.1019415e-03
8.1108658e-03
7.9721132e-03
7.8025640e-03
7.5290261e-03
6.9669977e-03
5.6183444e-03
4.4042555e-03
3.6411126e-03
3.2478001e-03
2.8119281e-03
1.4954990e-03
-8.2913185e-05
-1.3864243e-03
-2.1311158e-03
-2.5447570e-03
-3.1177593e-03
-3.3903612e-03
-3.4704545e-03
-2.9660408e-03
-1.9729393e-03
-1.4744372e-03
-1.0522233e-03
-3.8289126e-04
7.5276354e-04
1.9149504e-03
2.5377008e-03
3.0379599e-03
3.2738369e-03
3.5160337e-03
3.6018556e-03
3.3086901e-03
3.2611374e-03
2.9790609e-03
2.5923966e-03
2.2577614e-03
1.5257634e-03
6.3711949e-04
-4.7336668e-04
-1.1127288e-03
-1.3732893e-03
-2.1336486e-03
-2.9999033e-03
-3.8162632e-03
-4.2246537e-03
-4.4214693e-03
-4.7888735e-03
-4.9161971e-03
-4.9003515e-03
-4.2769479e-03
-3.1946237e-03
-2.2274346e-03
-1.1464607e-03
-2.2366243e-04
6.5632449e-04
1.1814811e-03
1.1017084e-03
8.4737942e-04
3.3830028e-04
2.6098557e-04
5.4745692e-04
5.3204410e-04
2.0654830e-04
-3.9616494e-04
-6.1088857e-04
-6.9996420e-04
-8.6327098e-04
-7.9679086e-04
-8.2157110e-04
-4.7721273e-04
-2.8321302e-05
2.8543703e-04
7.7546192e-04
9.7213141e-04
1.1729414e-03
1.3535645e-03
1.3613430e-03
1.1774684e-03
4.9463909e-04
6.3070514e-05
-1.1403092e-04
-2.8611345e-04
-4.5102738e-04
-8.8009183e-04
-7.5385476e-04
-2.6933440e-05
8.4676236e-04
1.5805236e-03
1.6495053e-03
1.6296402e-03
1.7956633e-03
2.1502260e-03
2.3969229e-03
2.0976210e-03
1.8895583e-03
1.7358529e-03
1.7497252e-03
1.8748240e-03
1.5396008e-03
1.3051326e-03
1.1529231e-03
1.1016973e-03
9.4233009e-04
1.7906425e-04
-5.1548314e-04
-1.0984391e-03
-1.3246318e-03
-1.2408147e-03
-1.3351958e-03
-1.1955787e-03
-9.8955342e-04
-5.1087761e-04
-4.5027276e-05
-3.0097376e-04
-7.1068371e-04
-1.0861425e-03
-9.3288141e-04
-3.3561887e-04
-1.0989194e-04
-1.9677201e-04
-5.1007037e-04
-3.8937696e-04
7.4463687e-05
3.4228116e-04
4.7776806e-04
2.3564607e-04
1.5283828e-04
8.6262553e-05
-3.9667957e-04
-8.8374058e-04
-1.1934074e-03
-7.2787555e-04
9.4259910e-05
6.9600283e-04
1.0188691e-03
7.0460051e-04
4.3235628e-04
3.5315407e-04
3.6240906e-04
4.3664327e-04
9.6330848e-05
-6.5684773e-05
6.7863729e-05
2.3081102e-04
2.3652528e-04
-3.0801337e-04
-6.5072136e-04
-4.8402299e-04
1.9988154e-04
1.0445684e-03
1.0866156e-03
7.9228178e-04
5.9626552e-04
7.0218418e-04
8.7667563e-04
5.0263695e-04
2.0719124e-04
-6.2214937e-05
-2.5505244e-04
-1.9134253e-04
-4.6274423e-04
-6.3607491e-04
-5.6221309e-04
-1.2795564e-04
2.5965727e-04
-1.6313659e-04
-6.3958970e-04
-9.7377269e-04
-1.1498638e-03
-1.4244333e-03
-2.2781148e-03
-3.0057644e-03
-3.3232447e-03
-3.0935407e-03
-2.6073319e-03
-2.3222449e-03
-1.9934544e-03
-1.6802247e-03
-9.6569999e-04
-1.3400422e-04
1.3571904e-04
9.8350512e-05
-3.9901739e-04
-8.3741969e-04
-8.8247685e-04
-9.5576988e-04
-9.2386365e-04
-9.0110313e-04
-5.8165735e-04
-2.4521716e-04
-4.2121895e-04
-6.0445490e-04
-9.0415391e-04
-8.3589481e-04
-2.3582541e-04
2.1867205e-04
5.7568913e-04
7.7383648e-04
1.3283687e-03
2.0395386e-03
2.3309730e-03
2.5105179e-03
2.2965661e-03
2.0971762e-03
1.9904318e-03
1.6620707e-03
1.4085714e-03
9.6185199e-04
7.7732749e-04
9.1937227e-04
1.0886052e-03
1.4664013e-03
1.6283681e-03
1.6563362e-03
1.3468071e-03
7.3105287e-04
1.8398354e-04
-5.4270438e-04
-8.7323623e-04
-1.0132885e-03
-1.3295753e-03
-1.5909960e-03
-2.0759281e-03
-2.1912828e-03
-1.7906412e-03
-1.1300841e-03
-5.1919610e-04
-4.1510462e-04
-5.1720775e-05
5.1527061e-04
1.0845313e-03
1.6205757e-03
1.5951933e-03
1.6238449e-03
1.6596212e-03
1.5027985e-03
1.2628817e-03
7.2877182e-04
3.3481357e-04
-2.1505630e-04
-7.9279863e-04
-9.9850508e-04
-1.1352769e-03
-8.0024907e-04
-2.0375516e-04
4.0659305e-04
9.3260477e-04
1.0052689e-03
1.0926804e-03
1.2034265e-03
1.4023908e-03
1.6282717e-03
1.3856194e-03
9.1044660e-04
3.4182645e-04
1.7035773e-05
-5.9415270e-04
-1.7414792e-03
-2.3858098e-03
-2.6391313e-03
-2.4658571e-03
-2.1176189e-03
-1.9915970e-03
-1.6492363e-03
-1.3059272e-03
-7.1629021e-04
-2.2781685e-04
-5.4465255e-04
-9.3880525e-04
-1.0915193e-03
-7.6233018e-04
-3.4880938e-04
-4.6060047e-04
-5.9867565e-04
-8.3837235e-04
-8.5079812e-04
-5.8821034e-04
-5.4446273e-04
-4.4989422e-04
-1.9594905e-04
6.0842639e-04
1.4552150e-03
1.6157294e-03
1.3814226e-03
8.5304649e-04
6.6371599e-04
6.7868543e-04
3.7373424e-04
-1.1209565e-04
-7.4925972e-04
-7.5681017e-04
-3.2883840e-04
-1.5077220e-04
-2.7315058e-04
-7.9334359e-04
-7.7495112e-04
-1.5327520e-04
5.2950630e-04
1.1464814e-03
1.3618194e-03
1.5914880e-03
1.6715423e-03
1.4677172e-03
1.1140474e-03
5.0057583e-04
4.9175471e-04
1.1171290e-03
1.9647165e-03
2.5913246e-03
2.3161441e-03
1.9576395e-03
1.8700656e-03
1.9861190e-03
2.1643769e-03
1.7591369e-03
1.2559939e-03
8.0457472e-04
4.6041951e-04
1.6478994e-04
-5.3650291e-04
-1.0393607e-03
-1.0974701e-03
-5.2743967e-04
1.7785695e-04
1.3471529e-05
-4.2847098e-04
-6.7793549e-04
-4.2930498e-04
3.2649680e-05
2.2694370e-05
-6.3166464e-06
-5.9886544e-05
-7.8763502e-05
-1.9886079e-04
-6.6651008e-04
-8.8341771e-04
-1.0358331e-03
-1.0357749e-03
-8.2302178e-04
-6.0119871e-04
-2.5103829e-04
-2.0215065e-04
2.0004085e-06
2.7124075e-04
9.5249790e-05
-5.1339889e-05
-4.1721740e-04
-7.2202008e-04
-8.9363325e-04
-1.1926483e-03
-1.2521267e-03
-1.4707333e-03
-1.4176653e-03
-9.5438544e-04
-6.8289640e-04
-5.8101054e-04
-7.5224486e-04
-6.0915687e-04
-2.1219108e-04
8.5902630e-07
6.9345035e-05
-2.5850704e-04
-2.0872938e-04
1.2017161e-04
2.9166627e-05
-9.5862612e-05
-3.4174183e-04
-3.8769399e-04
-2.7922269e-04
-2.6803187e-04
-1.5906679e-04
-4.3186585e-04
-7.3610506e-04
-9.7833761e-04
-1.3088807e-03
-1.5740074e-03
-2.0199672e-03
-1.9483444e-03
-1.6584197e-03
-1.6822674e-03
-1.7707767e-03
-2.1943322e-03
-2.2821404e-03
-1.8632460e-03
-1.2612190e-03
-8.1407298e-04
-8.4401970e-04
-3.7585390e-04
3.8374132e-04
1.0066880e-03
1.5622060e-03
1.5298935e-03
1.7069997e-03
2.1531915e-03
2.3271340e-03
2.2752825e-03
1.7994273e-03
1.5998750e-03
1.5751154e-03
1.2459639e-03
6.8443785e-04
-3.1149434e-05
-1.4585317e-04
-7.8029437e-06
3.7730452e-05
1.4863914e-04
-1.4032398e-07
9.7271409e-05
2.7310682e-04
1.4843797e-04
-2.9291874e-04
-1.2661753e-03
-2.1551782e-03
-2.6377739e-03
-2.5329725e-03
-2.1134275e-03
-1.8213224e-03
-1.3540048e-03
-9.9886940e-04
-4.9124440e-04
7.0295838e-05
3.3054004e-05
-5.5930434e-05
7.6014643e-05
6.5971539e-04
1.2772619e-03
1.3589790e-03
1.5223883e-03
1.7766741e-03
2.1674477e-03
2.3437081e-03
1.9992833e-03
1.7759664e-03
1.5273143e-03
1.5068525e-03
1.4753841e-03
8.1313969e-04
3.8609780e-05
-6.1218094e-04
-5.5512078e-04
-5.4411492e-05
2.1668504e-05
-1.9754156e-04
-5.7110325e-04
-4.3873166e-04
-2.2396779e-04
-5.5015041e-04
-6.8460477e-04
-6.1392071e-04
-1.5468023e-04
5.2444894e-04
9.2375768e-04
1.2089172e-03
1.3853400e-03
2.0118407e-03
2.6063829e-03
2.5286180e-03
2.2993077e-03
1.9356555e-03
2.0269609e-03
2.6201848e-03
3.0707261e-03
2.9697322e-03
2.0462248e-03
1.3158615e-03
1.0408334e-03
8.6882695e-04
6.5533548e-04
-7.3512018e-05
-6.1783158e-04
-7.9848842e-04
-8.9890483e-04
-1.0023713e-03
-1.7562419e-03
-2.4706310e-03
-2.6922199e-03
-2.6460547e-03
-2.2801344e-03
-1.9474534e-03
-1.2817316e-03
-4.9317818e-04
1.7839246e-04
8.5883674e-04
9.4756263e-04
8.8167353e-04
9.1233593e-04
8.9126701e-04
6.7964023e-04
-2.4421053e-04
-1.2912302e-03
-2.0841192e-03
-2.4573856e-03
-2.3902752e-03
-2.4759866e-03
-2.3765044e-03
-2.0478118e-03
-1.6477158e-03
-1.2728458e-03
-1.1178201e-03
-7.7667967e-04
-5.5134453e-04
-2.4542467e-04
2.5430963e-04
2.7698342e-04
2.0076969e-04
2.7132661e-05
-9.9839852e-05
-1.7712903e-04
-5.3535738e-04
-6.1779961e-04
-6.0330228e-04
-3.6190650e-04
1.7087271e-04
5.0591478e-04
9.9690512e-04
1.4444478e-03
1.8809477e-03
2.1587134e-03
1.7798561e-03
1.1537554e-03
1.4845813e-04
-6.1147844e-04
-7.7661110e-04
-1.0021179e-03
-9.4946035e-04
-6.1036931e-04
9.4908230e-06
4.4254258e-04
3.0127451e-04
3.5878969e-04
5.1442135e-04
5.8750189e-04
3.3358554e-04
-3.5628675e-04
-9.6187571e-04
-1.6023643e-03
-1.8086451e-03
-1.6351845e-03
-1.4576582e-03
-9.8602921e-04
-7.1116485e-04
-2.7583177e-04
2.7622170e-04
5.6871025e-04
1.0191276e-03
1.3642807e-03
2.0197366e-03
2.6599469e-03
2.6254331e-03
2.4610626e-03
2.2148555e-03
2.2864996e-03
2.4461371e-03
2.0983484e-03
1.5106235e-03
7.4295652e-04
4.9765981e-04
5.6638711e-04
2.2771296e-04
-2.7666700e-04
-1.0265573e-03
-1.3901125e-03
-1.3846531e-03
-1.6560797e-03
-2.1617383e-03
-2.9450046e-03
-3.1088150e-03
-2.6397768e-03
-2.2994541e-03
-2.0441173e-03
-1.8256751e-03
-1.0698270e-03
-1.6443481e-04
3.9061572e-04
7.9244500e-04
7.1238973e-04
7.2584273e-04
9.7224842e-04
1.0737809e-03
9.4914664e-04
4.5601629e-04
3.8356435e-04
6.9169607e-04
1.0146115e-03
1.2373054e-03
9.8696609e-04
1.0313026e-03
1.2259711e-03
9.7818709e-04
2.6081611e-04
-9.5463303e-04
-1.5158736e-03
-1.3440023e-03
-1.1257964e-03
-1.0230004e-03
-1.2654641e-03
-1.3498922e-03
-1.1980174e-03
-8.3957223e-04
-5.3306129e-04
-6.2596201e-04
-3.7394665e-04
2.5830244e-04
1.0745265e-03
1.7341941e-03
1.6977926e-03
1.5146805e-03
1.3263326e-03
1.3285341e-03
1.3893836e-03
9.2729442e-04
6.7893344e-04
8.7092076e-04
1.3971758e-03
1.7948474e-03
1.5072516e-03
1.2698373e-03
1.1304047e-03
1.1093638e-03
1.0757641e-03
6.0500083e-04
2.0944233e-04
-1.3193456e-04
-2.2650725e-04
-4.1705794e-04
-1.3398477e-03
-2.1034357e-03
-2.4897049e-03
-2.3332544e-03
-1.6365916e-03
-1.0770980e-03
-6.0865457e-04
-4.3908293e-04
-2.4325896e-04
1.6002683e-04
5.4039798e-04
1.1877595e-03
1.5052125e-03
1.6510835e-03
1.8864651e-03
1.8464146e-03
1.8021025e-03
1.4610198e-03
1.0790734e-03
6.4510506e-04
-1.8596171e-04
-8.5841990e-04
-1.3281365e-03
-1.2874268e-03
-1.0469866e-03
-1.1840406e-03
-1.2508558e-03
-1.2516259e-03
-9.5678983e-04
-6.5334085e-04
-7.3357719e-04
-7.6667956e-04
-8.9575632e-04
-8.2008262e-04
-6.4674923e-04
-5.8793331e-04
-9.0106415e-05
5.6618303e-04
1.3683649e-03
1.9142476e-03
1.7796328e-03
1.4383860e-03
8.0500138e-04
4.7835367e-04
4.1441933e-04
1.4441383e-04
8.0276755e-05
-2.5919028e-05
1.8623083e-04
5.7690006e-04
6.3644310e-04
5.5967060e-04
1.0130012e-04
-2.5405754e-04
-4.7042037e-04
-8.0074631e-04
-1.0694453e-03
-1.3993645e-03
-1.2087928e-03
-9.7879741e-04
-1.2643614e-03
-1.4307479e-03
-1.4509158e-03
-1.0891197e-03
-7.4442182e-04
-8.0700611e-04
-9.0010376e-04
-9.9968606e-04
-5.7535143e-04
9.7606103e-05
5.0463147e-04
5.7070715e-04
1.7148118e-04
2.4892907e-04
7.6106175e-04
1.0913282e-03
1.0255001e-03
3.5435634e-04
-1.2257895e-04
-2.9666660e-04
-2.3538802e-04
-6.6963171e-05
-3.2680740e-04
-3.4433265e-04
-1.3083826e-04
1.7779457e-04
4.9428834e-04
1.6284711e-04
-2.1245959e-04
-4.8788869e-04
-6.1223379e-04
-5.2703268e-04
-9.2645237e-04
-1.4165234e-03
-1.8169032e-03
-1.9369594e-03
-1.6009395e-03
-1.2331112e-03
-4.2084226e-04
5.5537341e-04
1.4248758e-03
2.0332499e-03
1.7314608e-03
1.2861497e-03
1.0499818e-03
1.0191550e-03
1.0955188e-03
5.8386519e-04
1.4278857e-05
-1.6505649e-04
2.7822227e-04
1.0772629e-03
1.4456744e-03
1.6114078e-03
1.5064646e-03
1.4753049e-03
1.4840800e-03
7.1588615e-04
-3.4264694e-04
-1.2772719e-03
-1.5634096e-03
-1.3992045e-03
-1.5843838e-03
-1.8184697e-03
-2.1937757e-03
-2.2877442e-03
-1.9983921e-03
-1.8332868e-03
-1.4772003e-03
-1.2376687e-03
-9.2664922e-04
-4.2905994e-04
-2.5967151e-04
5.4683924e-05
4.9209567e-04
9.7877344e-04
1.2561947e-03
1.0394353e-03
9.9679166e-04
9.9069965e-04
1.1908641e-03
1.4777271e-03
1.3333050e-03
1.2521805e-03
1.1781183e-03
1.2371952e-03
1.1395468e-03
5.9515648e-04
2.8187108e-04
-2.9962247e-05
-3.2991643e-04
-7.9751526e-04
-1.5964621e-03
-2.0688713e-03
-2.4758818e-03
-2.6045938e-03
-2.5303159e-03
-2.5521780e-03
-2.1301928e-03
-1.7329825e-03
-1.3702896e-03
-9.4699830e-04
-5.7491581e-04
1.2701419e-04
8.3246347e-04
1.6729308e-03
2.2974818e-03
2.1822656e-03
1.8445681e-03
1.5250839e-03
1.8329927e-03
2.2210793e-03
1.9210050e-03
1.7693475e-03
1.9708348e-03
2.5055502e-03
2.7468086e-03
2.3424825e-03
1.9634258e-03
1.4054963e-03
1.0001155e-03
6.7428050e-04
-7.4240972e-05
-8.8469069e-04
-1.6935167e-03
-1.8791342e-03
-1.7334720e-03
-1.9708104e-03
-2.1522439e-03
-2.2301943e-03
-1.8380437e-03
-1.1977684e-03
-9.0150132e-04
-9.3430434e-04
-1.4161948e-03
-1.3912975e-03
-5.7822244e-04
1.8907522e-04
5.0033751e-04
3.0064854e-04
4.7347139e-04
1.0210039e-03
1.4983261e-03
1.7652308e-03
1.4197529e-03
1.2288886e-03
1.1961309e-03
9.4918439e-04
5.7684378e-04
-2.3234569e-04
-6.7098850e-04
-5.1726352e-04
-1.2733166e-04
1.3121179e-04
-3.6448513e-04
-9.0760700e-04
-1.1618831e-03
-1.1049209e-03
-9.5019203e-04
-1.4488516e-03
-1.8447487e-03
-1.6863623e-03
-1.2430133e-03
-8.6300958e-04
-9.2941597e-04
-7.8484337e-04
-4.2687807e-04
3.5692186e-06
3.6611855e-04
1.2456865e-04
-6.4851557e-05
-6.7140861e-06
1.5387810e-04
4.0239024e-04
3.0415328e-04
2.0346144e-04
3.1449081e-04
7.9032207e-04
1.3224475e-03
1.3306353e-03
1.4392655e-03
1.5775540e-03
1.8137605e-03
2.1374103e-03
1.7752197e-03
1.0916821e-03
2.4931955e-04
-4.3276494e-04
-9.4843483e-04
-1.6179130e-03
-1.8709436e-03
-2.0609454e-03
-2.0948033e-03
-1.8991570e-03
-2.0264758e-03
-2.1163275e-03
-2.1832036e-03
-1.9686385e-03
-1.6546365e-03
-1.6610879e-03
-1.3176956e-03
-7.3178164e-04
1.4342934e-04
1.1476855e-03
1.7168445e-03
2.0311263e-03
1.7744752e-03
1.2800618e-03
9.4970105e-04
7.1182041e-04
6.9198754e-04
4.2443518e-04
4.0163663e-04
6.7043998e-04
5.8624446e-04
6.8532576e-04
8.1908075e-04
8.0865738e-04
5.7949576e-04
2.1461097e-05
-4.2888446e-04
-8.4991591e-04
-8.5427558e-04
-6.6419202e-04
-8.8568157e-04
-1.2215592e-03
-1.6027418e-03
-1.3909749e-03
-9.0300544e-04
-8.5428968e-04
-7.9152928e-04
-7.4205886e-04
-2.8020460e-04
2.9626514e-04
2.9461309e-04
1.8587419e-04
1.1247039e-04
5.6884041e-04
1.1463234e-03
1.1476427e-03
9.4268441e-04
4.2259064e-04
2.7149149e-04
4.9847791e-04
3.9803811e-04
1.8375879e-04
-1.9447940e-04
-7.8165671e-05
3.6219403e-04
3.0549516e-04
-2.7992322e-05
-4.4536390e-04
-2.5198525e-04
2.4269710e-04
4.1248634e-04
4.9518993e-04
2.3406306e-04
-1.0399167e-05
-1.7978394e-04
-3.5822385e-04
-3.9186059e-04
-7.8992022e-04
-9.9988886e-04
-8.8424308e-04
-9.2668955e-04
-1.1114913e-03
-1.3248502e-03
-9.0354856e-04
-1.5200233e-04
5.4274678e-04
9.5035841e-04
5.9968078e-04
3.2518051e-04
2.6355220e-04
7.2000530e-05
-1.8516429e-04
-4.8929461e-04
-1.5886916e-04
5.5104450e-04
1.3244241e-03
1.7795938e-03
1.2167699e-03
5.6895682e-04
2.5732563e-04
2.0763367e-04
2.7469123e-04
-1.2175951e-06
-2.2641087e-04
-4.7140904e-04
-4.9525002e-04
-2.8776662e-04
-6.3594705e-04
-1.1979290e-03
-1.6164117e-03
-1.5124951e-03
-1.1643254e-03
-1.2972206e-03
-1.2927001e-03
-9.1505408e-04
7.5851101e-05
1.3474390e-03
1.8311770e-03
1.9311146e-03
1.9781146e-03
2.1411235e-03
2.2356486e-03
1.8885503e-03
1.4263550e-03
7.3724015e-04
4.7458316e-04
6.5227050e-04
4.8087930e-04
3.1843141e-04
1.6625970e-05
-1.9799213e-04
-2.3007648e-04
-4.9917923e-04
-7.1341620e-04
-1.1837214e-03
-1.6301489e-03
-1.6877907e-03
-1.5573576e-03
-1.1717189e-03
-9.3522415e-04
-5.0636698e-04
2.1510802e-05
1.2521245e-04
8.9376739e-05
-3.8541832e-04
-7.7768229e-04
-8.1853822e-04
-8.9726187e-04
-6.6332120e-04
-4.5305102e-04
-9.7354494e-05
3.6636517e-04
4.9125084e-04
5.6785033e-04
4.0103953e-04
2.8919521e-04
1.7045846e-04
-1.3804937e-04
-2.1307653e-04
-3.6782782e-04
-4.2189680e-04
-5.1829075e-04
-9.2346502e-04
-1.3328625e-03
-1.7952522e-03
-1.7158715e-03
-1.1425874e-03
-4.3256736e-04
2.5846842e-04
4.3014191e-04
7.6042466e-04
1.1111958e-03
1.2299047e-03
1.6297848e-03
1.7160888e-03
1.6260041e-03
1.4977728e-03
1.1638638e-03
7.6988972e-04
2.7124842e-04
3.6009579e-04
6.9578325e-04
8.1774120e-04
9.4095778e-04
7.0970967e-04
6.9051795e-04
8.7477785e-04
8.3781846e-04
5.6582676e-04
-1.8491503e-04
-7.2411862e-04
-1.0222674e-03
-1.3355436e-03
-1.6385134e-03
-2.1675432e-03
-2.2146358e-03
-1.7567517e-03
-1.1593284e-03
-6.4051800e-04
-3.9132535e-04
2.0074030e-04
8.0938682e-04
1.2164184e-03
1.4714561e-03
1.2519720e-03
1.1675061e-03
1.3063901e-03
1.6344693e-03
1.8988472e-03
1.6692215e-03
1.6740905e-03
1.9548250e-03
2.4547114e-03
2.8680135e-03
2.5911260e-03
2.2011261e-03
1.7758809e-03
1.3702560e-03
8.3887055e-04
-6.4846554e-05
-6.3724111e-04
-9.2491015e-04
-9.5557608e-04
-9.8683201e-04
-1.3744462e-03
-1.5312670e-03
-1.4913278e-03
-1.0123081e-03
-2.7276773e-04
-1.3163996e-04
-2.4354308e-04
-2.1230953e-04
1.9583195e-04
5.0737947e-04
3.5054510e-04
2.5393307e-04
6.5127052e-05
2.0483021e-04
5.6862163e-04
4.6781532e-04
1.7256162e-04
-2.4171837e-04
-1.2812227e-04
3.9942482e-04
6.8282997e-04
7.6885733e-04
2.8852094e-04
-5.4527971e-05
6.5162914e-06
-2.0299205e-04
-8.1849812e-04
-1.8950071e-03
-2.6491045e-03
-3.0648170e-03
-3.4416626e-03
-3.6002941e-03
-3.8256327e-03
-3.5215102e-03
-2.6375764e-03
-1.6143413e-03
-6.9489368e-04
-3.0836589e-04
2.7889876e-04
1.1779629e-03
1.8274438e-03
2.0266884e-03
1.6311209e-03
1.3851127e-03
1.4122647e-03
1.5829562e-03
1.8475942e-03
1.5287470e-03
9.9158671e-04
4.7321743e-04
7.1472316e-05
-7.7148940e-05
-4.3939852e-04
-7.5972777e-04
-9.0152707e-04
-6.8497547e-04
-3.1863312e-04
-3.6318807e-04
-4.1477695e-04
-4.4789604e-04
-2.3062880e-04
1.9455749e-04
2.8600252e-04
3.6059380e-04
4.0866702e-04
7.3861939e-04
1.2386370e-03
1.2763053e-03
1.2761129e-03
1.2394701e-03
1.2636858e-03
1.1815361e-03
8.0396389e-04
7.1984895e-04
4.8997141e-04
2.5784534e-04
3.0715979e-04
2.6481245e-04
3.3097942e-04
1.2793162e-04
-1.7366947e-04
-4.2985175e-04
-8.5816804e-04
-1.1805692e-03
-1.7452168e-03
-1.9882822e-03
-1.9023986e-03
-2.1359662e-03
-2.3210041e-03
-2.5228318e-03
-2.2377426e-03
-1.6483861e-03
-1.3077057e-03
-9.1448829e-04
-8.1100559e-04
-5.0840468e-04
1.6026244e-04
8.1111348e-04
1.4833198e-03
1.7019602e-03
1.9402472e-03
2.2197025e-03
2.1555314e-03
2.0081441e-03
1.6772938e-03
1.8402186e-03
2.3122313e-03
2.4272206e-03
2.3122840e-03
1.8900681e-03
1.7742506e-03
1.7937742e-03
1.6419778e-03
1.5236900e-03
1.0661171e-03
7.9288431e-04
7.2729146e-04
5.6418447e-04
4.0483938e-04
1.3602976e-04
2.6062905e-04
4.7966610e-04
6.5330629e-04
8.9419205e-04
8.2677457e-04
1.1283799e-03
1.5181459e-03
1.5304714e-03
1.4260248e-03
9.9974616e-04
5.9447621e-04
2.8916013e-04
2.3124738e-04
2.9153074e-04
8.2931847e-05
2.4372626e-04
6.3560426e-04
9.4151720e-04
7.9403425e-04
-1.2445197e-04
-1.0988920e-03
-1.9622452e-03
-2.4926402e-03
-2.9622575e-03
-3.7203370e-03
-4.1193995e-03
-4.2707227e-03
-4.0094965e-03
-3.5749964e-03
-3.6069697e-03
-3.6790695e-03
-3.6795191e-03
-3.1818536e-03
-2.3678167e-03
-1.9053096e-03
-1.4904857e-03
-1.2430181e-03
-7.6541571e-04
-1.2191828e-04
1.8098612e-04
5.9276396e-04
9.6725571e-04
1.6268827e-03
2.3959359e-03
2.5881874e-03
2.4233139e-03
2.1130345e-03
2.5239564e-03
3.3693431e-03
3.6546060e-03
3.3889954e-03
2.6076578e-03
2.1175032e-03
1.9499199e-03
1.6405215e-03
1.1566818e-03
1.5268237e-04
-6.0569156e-04
-8.1935713e-04
-8.8649420e-04
-1.0424337e-03
-1.4512235e-03
-1.3214515e-03
-7.8050761e-04
-2.5638747e-04
1.9152064e-04
2.0535439e-04
2.7080279e-04
2.3818260e-04
-9.9709767e-05
-6.5018167e-04
-1.4918837e-03
-1.8262201e-03
-1.6400228e-03
-1.1356033e-03
-6.2310934e-04
-5.2277087e-04
-2.4562543e-04
1.8831748e-05
3.3807065e-04
6.0783070e-04
1.9314650e-04
-2.7275401e-04
-5.4454658e-04
-3.2430948e-04
8.3355996e-05
-1.6481285e-04
-5.3278077e-04
-7.0702800e-04
-4.6561753e-04
-2.2390349e-04
-5.7696224e-04
-9.9389526e-04
-1.2881932e-03
-9.9362428e-04
-3.6567647e-04
-2.3127495e-04
-4.2026734e-04
-7.6899022e-04
-5.2329293e-04
2.2179681e-04
7.0306328e-04
1.0496955e-03
1.2586137e-03
1.8858673e-03
2.6847987e-03
3.0131958e-03
2.9577762e-03
2.3426454e-03
2.0266974e-03
2.1094310e-03
1.9329962e-03
1.3639464e-03
2.1993869e-04
-4.8043903e-04
-6.4933362e-04
-8.4786591e-04
-1.0605495e-03
-1.6288267e-03
-1.7773643e-03
-1.4975595e-03
-1.4236340e-03
-1.5493338e-03
-2.2444241e-03
-2.8404393e-03
-2.9122929e-03
-2.7658920e-03
-2.7292318e-03
-3.0911918e-03
-3.0345898e-03
-2.6478439e-03
-2.2793308e-03
-1.7546914e-03
-1.4701535e-03
-1.1329688e-03
-8.6851385e-04
-7.1520496e-04
-4.9430476e-04
-5.4664854e-04
-3.7413799e-04
-6.7735244e-05
1.6891463e-04
2.9214861e-04
1.7737586e-05
-2.1652553e-04
-5.0842928e-04
-5.2463869e-04
-1.8847819e-04
1.8975277e-06
4.5748164e-04
7.4380606e-04
7.8844824e-04
8.7049019e-04
8.2932807e-04
7.9444729e-04
4.6234533e-04
3.1496179e-04
4.8218273e-04
5.0916599e-04
6.5478216e-04
6.7911787e-04
8.7828293e-04
1.2093264e-03
1.1880154e-03
1.1801309e-03
1.1474929e-03
1.4873241e-03
1.9728163e-03
1.9589688e-03
1.7321506e-03
1.1925470e-03
7.5220033e-04
4.6105943e-04
2.4659410e-04
4.2998030e-04
5.5353327e-04
8.3686707e-04
9.8924647e-04
7.3054476e-04
6.4040038e-04
6.3752358e-04
1.1829827e-03
2.0486308e-03
2.5182796e-03
2.5586884e-03
2.1622688e-03
1.9300236e-03
1.5628305e-03
8.4263439e-04
1.1039484e-04
-7.0432695e-04
-9.2116603e-04
-9.1326916e-04
-1.1399525e-03
-1.2554254e-03
-1.4685152e-03
-1.5621050e-03
-1.6884280e-03
-1.7790663e-03
-1.7888987e-03
-2.1424693e-03
-2.3024273e-03
-2.1860151e-03
-1.6983695e-03
-9.2123973e-04
-4.1738091e-04
2.1339092e-04
8.8583184e-04
1.3249295e-03
1.2478594e-03
5.3723619e-04
-9.7375561e-05
-5.4488438e-04
-5.2043627e-04
-1.5628158e-04
2.4780618e-05
2.0562117e-04
2.3323385e-04
4.3791095e-04
5.7481237e-04
2.1914357e-04
1.4753398e-04
4.2441881e-04
1.0231191e-03
1.5517009e-03
1.4562333e-03
1.1782845e-03
9.3859447e-04
1.1657696e-03
1.4418448e-03
1.1609951e-03
7.7960258e-04
3.3048854e-04
4.1201350e-04
8.5539968e-04
9.5096042e-04
8.6305949e-04
5.6193502e-04
6.6751496e-04
9.6414440e-04
8.8247164e-04
5.9683025e-04
-1.3491417e-05
-2.4779566e-04
-1.4483826e-04
-1.1165182e-04
3.5116858e-05
9.7246506e-06
2.2958053e-04
5.8397708e-04
6.7248896e-04
5.4386849e-04
1.2628690e-04
8.6936157e-05
3.2983978e-04
4.4722000e-04
1.8384075e-04
-7.7062873e-04
-1.4911441e-03
-1.7092856e-03
-1.5512342e-03
-1.3178942e-03
-1.6155701e-03
-1.7654808e-03
-1.7188153e-03
-1.5147026e-03
-1.2282489e-03
-1.3513084e-03
-1.2288390e-03
-9.1691935e-04
-5.0154427e-04
-6.0713978e-05
-1.8121347e-04
-3.8866006e-04
-4.7441717e-04
-1.4721067e-04
3.9453176e-04
3.8381946e-04
2.8275269e-04
2.5164262e-04
5.3957499e-04
1.0367988e-03
9.7528419e-04
5.1661774e-04
-3.2387948e-05
-8.4791390e-05
7.3076150e-05
-1.4147043e-04
-3.9058452e-04
-7.9099597e-04
-8.0233468e-04
-5.7437628e-04
-7.9110851e-04
-1.0610230e-03
-1.3673418e-03
-1.1296732e-03
-3.4764124e-04
1.4042367e-04
1.2248555e-04
-4.4793564e-04
-6.6287208e-04
-3.3377780e-04
4.3490638e-05
4.1410093e-04
2.3008992e-04
-1.3951577e-04
-3.5005776e-04
-4.4091319e-04
-5.1355792e-04
-9.9858586e-04
-1.0955220e-03
-7.6796081e-04
-4.7316811e-04
-2.6966431e-04
-6.5923902e-04
-1.0096093e-03
-1.1993146e-03
-1.4713684e-03
-1.5098728e-03
-1.4422838e-03
-1.1665232e-03
-1.0881182e-03
-9.8128980e-04
-6.2466287e-04
-7.4898156e-04
-1.0868960e-03
-1.5335622e-03
-1.7807259e-03
-1.7425269e-03
-1.9210570e-03
-1.7633373e-03
-1.1781995e-03
-2.7643526e-04
7.1255159e-04
1.2154694e-03
1.5500442e-03
1.8628999e-03
2.3795645e-03
2.8911948e-03
3.0710901e-03
3.5086417e-03
3.8546068e-03
4.1039135e-03
4.3596540e-03
4.2465925e-03
3.9591641e-03
3.2212090e-03
2.4495832e-03
1.8599646e-03
1.0461906e-03
2.2979752e-04
-7.2181467e-04
-1.3040669e-03
-1.4571208e-03
-1.7648332e-03
-2.0303374e-03
-2.3866840e-03
-2.5956046e-03
-2.6528205e-03
-2.7001997e-03
-2.4119636e-03
-2.1776791e-03
-1.9821268e-03
-1.9881382e-03
-2.0892037e-03
-1.6681299e-03
-1.0605667e-03
-1.7172215e-04
6.4074753e-04
1.0384918e-03
1.3231849e-03
1.2295112e-03
1.0938777e-03
8.6635676e-04
5.0127888e-04
3.3540922e-04
1.2113295e-04
2.4851743e-04
5.6014296e-04
9.2546576e-04
1.3577189e-03
1.2527812e-03
1.2298650e-03
1.4433986e-03
1.7802867e-03
2.1814902e-03
1.9890393e-03
1.6677192e-03
1.1619839e-03
3.7225417e-04
-4.4327432e-04
-1.4837788e-03
-2.0129026e-03
-1.8584616e-03
-1.2657190e-03
-6.6979601e-04
-5.1151906e-04
-9.9105414e-05
4.8845052e-04
1.0286802e-03
1.3318698e-03
1.1280889e-03
1.0901467e-03
1.1696838e-03
1.3486296e-03
1.4081053e-03
9.4506117e-04
7.0123170e-04
6.2740355e-04
5.5031585e-04
3.5201217e-04
-4.2972393e-05
-2.9121410e-04
-6.8655216e-04
-8.7727385e-04
-1.0234528e-03
-1.4007217e-03
-1.4967926e-03
-1.6408823e-03
-1.6391411e-03
-1.6535522e-03
-1.9570353e-03
-1.9550891e-03
-1.6237413e-03
-5.5453591e-04
5.6187972e-04
7.2151314e-04
4.6264778e-04
1.3722163e-04
4.9655090e-04
1.3764400e-03
2.0535924e-03
2.5513703e-03
2.5770412e-03
2.5433837e-03
2.4342533e-03
2.0048495e-03
1.3988048e-03
4.8357136e-04
-1.0986812e-04
-4.6041101e-04
-7.4488075e-04
-8.2447293e-04
-1.0739067e-03
-9.5624194e-04
-6.9407815e-04
-8.1803713e-04
-1.3311582e-03
-2.2529338e-03
-2.6509824e-03
-2.4583599e-03
-2.0758877e-03
-1.8046045e-03
-1.9239562e-03
-1.6970721e-03
-1.2275485e-03
-7.7483415e-04
-5.2843269e-04
-7.5860473e-04
-6.3421657e-04
-1.5194707e-04
6.2986795e-04
1.3691645e-03
1.3314879e-03
1.2547390e-03
1.3729438e-03
1.7562162e-03
2.0630903e-03
1.6874770e-03
1.2328404e-03
7.2851850e-04
5.4407140e-04
5.4002699e-04
-1.9804198e-04
-1.1834357e-03
-2.0450484e-03
-2.2634133e-03
-2.0566465e-03
-2.3166686e-03
-2.6453652e-03
-2.6797161e-03
-1.8813082e-03
-6.4756183e-04
4.8085082e-05
3.6828923e-04
5.5361330e-04
1.2793704e-03
2.2190434e-03
2.5950454e-03
2.5452770e-03
2.0365809e-03
1.8529931e-03
1.9965245e-03
1.8222091e-03
1.4844532e-03
9.3794515e-04
8.0455174e-04
9.3594574e-04
8.5638096e-04
5.8288775e-04
-3.2509289e-04
-9.7533358e-04
-1.1001487e-03
-1.2329833e-03
-1.4231231e-03
-1.9719969e-03
-2.2404147e-03
-2.3370728e-03
-2.5807557e-03
-2.7173367e-03
-3.0839998e-03
-3.1129505e-03
-2.5940564e-03
-1.8519024e-03
-1.2340889e-03
-9.7074122e-04
-2.3708052e-04
6.6170907e-04
1.2120066e-03
1.2688946e-03
4.5968127e-04
-3.6752209e-04
-8.7625460e-04
-9.0260861e-04
-3.9311221e-04
-5.3112595e-06
3.4051539e-04
4.3089942e-04
4.6430041e-04
6.1885322e-04
5.6145095e-04
6.8302042e-04
7.4670246e-04
9.3483473e-04
1.3946489e-03
1.6512297e-03
1.9134280e-03
1.7405341e-03
1.3499655e-03
1.2005152e-03
9.9758434e-04
9.4675791e-04
9.4346722e-04
1.3077718e-03
1.8574525e-03
2.0789736e-03
2.2936524e-03
2.1686483e-03
1.9686424e-03
1.7154755e-03
1.0728599e-03
6.4951980e-04
3.7149727e-04
3.2181593e-04
2.3910736e-04
-2.1949588e-04
-4.1090199e-04
-3.5712294e-04
1.4258581e-05
2.7498083e-04
1.0424445e-04
-1.1050461e-04
-7.0126294e-04
-1.2701909e-03
-1.8202415e-03
-2.5355403e-03
-3.0490273e-03
-3.5386281e-03
-3.5476368e-03
-3.2390794e-03
-2.9584408e-03
-2.6021573e-03
-2.3917590e-03
-1.6903729e-03
-7.2637663e-04
1.1186208e-04
1.0814364e-03
1.8655603e-03
2.7463780e-03
3.3476462e-03
3.4525632e-03
3.5208979e-03
3.4006122e-03
3.5337967e-03
3.7499017e-03
3.8815238e-03
4.0126078e-03
3.6313182e-03
3.1802722e-03
2.6751027e-03
2.0422990e-03
1.4012427e-03
5.3912946e-04
1.9666213e-04
3.0918060e-04
4.8929224e-04
5.1683991e-04
-2.4601192e-05
-6.3304887e-04
-1.2496673e-03
-1.7246136e-03
-2.0527811e-03
-2.4824748e-03
-2.4868619e-03
-2.1143762e-03
-1.2099803e-03
-2.6039252e-04
5.7511546e-05
4.0673685e-04
6.9864754e-04
1.1676145e-03
1.7485465e-03
1.7465310e-03
1.4923666e-03
1.1951031e-03
1.2631660e-03
1.1991387e-03
3.5258059e-04
-5.3468138e-04
-1.2260221e-03
-1.5545953e-03
-1.9291153e-03
-2.7516361e-03
-3.3909206e-03
-3.7781714e-03
-3.4468008e-03
-2.5852761e-03
-2.0429636e-03
-1.7725443e-03
-1.9214375e-03
-1.9736557e-03
-1.8122550e-03
-1.7042004e-03
-1.4753230e-03
-1.3858455e-03
-7.7838357e-04
2.2918150e-04
8.3010443e-04
1.0177280e-03
8.1525841e-04
8.7973407e-04
1.0680496e-03
1.0050548e-03
8.3889314e-04
4.1931293e-04
4.8578295e-04
9.4607003e-04
9.9826545e-04
5.2574796e-04
-2.9250963e-04
-5.5764614e-04
-4.5242737e-04
-4.8055685e-04
-7.9008255e-04
-1.6975229e-03
-2.4019155e-03
-2.8027432e-03
-3.0558857e-03
-3.0913741e-03
-3.2388067e-03
-2.8989951e-03
-2.2001328e-03
-1.4035884e-03
-5.5755131e-04
-2.0681084e-04
2.1714995e-04
9.4591162e-04
1.7780165e-03
2.2961598e-03
2.0545030e-03
1.7604655e-03
1.6321572e-03
1.9079353e-03
2.5504080e-03
2.8547381e-03
2.9379463e-03
2.7037748e-03
2.4210152e-03
2.1080342e-03
1.3337106e-03
6.0997112e-04
-2.3331310e-05
-4.3038175e-04
-6.1600718e-04
-7.9001642e-04
-8.7180338e-04
-1.3104681e-03
-1.5443097e-03
-1.4786395e-03
-1.7678814e-03
-2.0121331e-03
-2.2509617e-03
-2.2687812e-03
-2.0329976e-03
-1.7803909e-03
-1.1437882e-03
-5.2308206e-04
2.1868758e-04
9.0700616e-04
1.0123320e-03
1.0046249e-03
9.3089348e-04
1.2884750e-03
2.0781547e-03
2.5690150e-03
2.5356491e-03
1.8859754e-03
1.3292581e-03
9.2842189e-04
4.6340636e-04
1.4764809e-04
-1.5072229e-04
1.6043586e-04
7.4900402e-04
9.8025390e-04
1.0920985e-03
9.2687273e-04
9.0597770e-04
8.0717512e-04
1.7428546e-04
-6.9977954e-04
-1.7230306e-03
-2.2868490e-03
-2.5803181e-03
-2.7900205e-03
-2.7765090e-03
-2.9467404e-03
-2.6759379e-03
-2.0310404e-03
-1.3960955e-03
-7.4695763e-04
-3.5401874e-04
3.8885162e-04
1.2894721e-03
1.9256396e-03
2.2516023e-03
2.0187778e-03
1.9204035e-03
1.9367708e-03
1.8966474e-03
1.7459214e-03
1.1400098e-03
7.6826790e-04
7.5330242e-04
8.6930868e-04
8.1424639e-04
4.9080506e-04
5.1174257e-04
4.6094671e-04
2.6793252e-04
-9.9743834e-06
-6.2403536e-04
-1.0581097e-03
-1.3605083e-03
-1.2795871e-03
-1.0143676e-03
-1.0777023e-03
-8.2318139e-04
-3.9830807e-04
1.5126071e-04
4.5397904e-04
2.0702782e-05
-2.7414083e-04
-3.7149633e-04
-1.5711247e-04
1.6855982e-04
1.1416875e-04
1.5668900e-04
2.7994044e-04
8.5531518e-04
1.5413924e-03
1.6516246e-03
1.6512815e-03
1.6413328e-03
1.9230930e-03
2.0699842e-03
1.6512722e-03
1.1241146e-03
3.1837694e-04
-9.6766401e-05
-9.8384220e-05
-4.0030772e-04
-7.8771160e-04
-1.3528481e-03
-1.5171564e-03
-1.3720961e-03
-1.5943061e-03
-2.0040131e-03
-2.4398248e-03
-2.0161883e-03
-1.1236244e-03
-8.3318733e-04
-1.0402459e-03
-1.5540434e-03
-1.4511965e-03
-9.0554116e-04
-6.7193904e-04
-6.7214225e-04
-8.3968674e-04
-4.0717383e-04
3.2153360e-04
7.9986707e-04
1.1184483e-03
1.0057031e-03
1.1329656e-03
1.6508552e-03
2.1478438e-03
2.1380673e-03
1.3507474e-03
9.5441810e-04
1.0695666e-03
1.2949155e-03
1.3978616e-03
7.0880789e-04
-1.1685764e-04
-5.3258502e-04
-5.7493112e-04
-5.8946149e-04
-1.0092562e-03
-1.2165118e-03
-1.2942942e-03
-1.3418652e-03
-1.2294468e-03
-1.3237970e-03
-1.2113742e-03
-8.9474060e-04
-3.1952749e-04
3.6373205e-04
5.3862393e-04
7.6078250e-04
1.1298943e-03
1.4988418e-03
1.5218530e-03
7.2024859e-04
-1.7192638e-04
-7.9633663e-04
-9.6374088e-04
-9.2311517e-04
-1.1878922e-03
-1.3724189e-03
-1.5530083e-03
-1.3717661e-03
-8.2539425e-04
-6.1273462e-04
-6.3623920e-04
-8.9342790e-04
-6.8181978e-04
-4.3765448e-05
2.6569977e-04
3.9850581e-04
2.0276089e-04
2.7584801e-04
5.8563514e-04
5.6720233e-04
4.8731875e-04
2.2184229e-04
2.7412087e-04
4.1999740e-04
1.6916601e-04
3.5842176e-05
-6.7411871e-05
1.2340544e-04
3.3040531e-04
2.1317516e-04
1.4998174e-04
-5.5851902e-05
1.9452732e-04
6.9834652e-04
8.4484333e-04
1.0097632e-03
1.0590198e-03
1.2969201e-03
1.5058891e-03
1.2766163e-03
8.7768151e-04
1.1012613e-04
-6.0812667e-04
-1.0731054e-03
-1.4046052e-03
-1.7257110e-03
-2.4123252e-03
-2.6512726e-03
-2.2753085e-03
-1.6179415e-03
-8.9035705e-04
-6.1765646e-04
-1.2063109e-04
5.6119432e-04
1.0100501e-03
1.3265401e-03
1.3254242e-03
1.6176569e-03
2.0624460e-03
2.3336082e-03
2.6800153e-03
2.9714903e-03
3.3685922e-03
3.4747564e-03
3.3500750e-03
3.0915560e-03
2.3915071e-03
1.9221200e-03
1.5638138e-03
1.1635976e-03
6.7001537e-04
-1.6261294e-04
-6.3262252e-04
-8.5547328e-04
-9.2307343e-04
-8.4398713e-04
-1.0195919e-03
-1.1912644e-03
-1.4755299e-03
-1.5762560e-03
-1.5502705e-03
-1.8184102e-03
-1.8428132e-03
-1.5647766e-03
-9.4889933e-04
-4.7673213e-04
-5.4767290e-04
-3.8945986e-04
-4.9673271e-05
4.9851030e-04
1.0088521e-03
1.0170169e-03
9.4618909e-04
6.5701563e-04
5.5108026e-04
4.8700715e-04
-2.0770289e-05
-3.4976178e-04
-5.5160106e-04
-5.3163327e-04
-7.8535826e-04
-1.6883086e-03
-2.4243542e-03
-3.0089192e-03
-3.0449807e-03
-2.6582079e-03
-2.5802944e-03
-2.5172190e-03
-2.3759213e-03
-1.6034879e-03
-5.2446940e-04
7.9229011e-05
5.0998964e-04
6.2732343e-04
8.9364296e-04
1.2648596e-03
1.2160947e-03
9.6783457e-04
4.1294077e-04
2.3352945e-04
4.8611709e-04
5.7320370e-04
4.0270223e-04
-3.0894779e-04
-8.1658992e-04
-9.8445473e-04
-1.3293584e-03
-1.7912414e-03
-2.3943658e-03
-2.4759502e-03
-2.1089477e-03
-1.5945360e-03
-9.0263455e-04
-5.3731201e-04
-1.5987792e-04
1.8750044e-04
3.8017589e-04
2.6070436e-04
-6.1610052e-04
-1.1609600e-03
-1.0653852e-03
-6.3624657e-04
-1.7133208e-04
-3.4369893e-04
-4.0455906e-04
4.2374822e-05
8.1736712e-04
1.3986370e-03
1.0466247e-03
4.9234209e-04
2.5344510e-04
3.7614921e-04
4.8221125e-04
9.7366835e-05
-9.6560428e-05
1.4787925e-05
3.2416669e-04
6.0327707e-04
4.5900365e-04
4.0775297e-04
4.2502070e-04
4.9959583e-04
5.3982671e-04
2.0508113e-04
3.1934659e-05
1.8227809e-06
2.2554428e-04
6.9157067e-04
8.0685051e-04
6.4802827e-04
2.5521697e-04
2.3545665e-04
4.9699178e-04
3.5922618e-04
1.7204493e-04
-1.2600305e-04
-2.7697122e-05
4.4971997e-04
5.9062058e-04
6.8306777e-04
6.7269976e-04
9.1768418e-04
1.2558141e-03
1.2717849e-03
1.3178275e-03
1.0862293e-03
1.0572885e-03
1.2226452e-03
8.9761185e-04
3.5047491e-04
-4.4475593e-04
-1.0010872e-03
-1.2716957e-03
-1.5293106e-03
-1.4946918e-03
-1.5529687e-03
-1.2958421e-03
-7.7620031e-04
-5.3020423e-04
-3.6055988e-04
-4.4162557e-04
-3.3566267e-04
-3.0724905e-04
-5.4735337e-04
-4.3930256e-04
-3.8512544e-04
-1.5375074e-04
2.9684373e-04
6.8388268e-04
1.0255096e-03
1.0664288e-03
1.4457795e-03
2.0031883e-03
2.3803945e-03
2.7728826e-03
2.8125021e-03
2.9814858e-03
3.1873470e-03
3.0973194e-03
2.9331848e-03
2.3935608e-03
1.9059768e-03
1.4596124e-03
8.9663926e-04
3.1749149e-04
-6.5818717e-04
-1.3327472e-03
-1.6420718e-03
-1.9088887e-03
-1.9765895e-03
-1.9173506e-03
-1.1882729e-03
-2.8458674e-04
1.9615299e-04
3.6309427e-04
2.7163906e-04
5.0586193e-04
7.9100363e-04
9.5375951e-04
9.0572003e-04
4.9648638e-04
5.6943121e-04
8.1048801e-04
8.9085819e-04
9.1519203e-04
6.9822244e-04
7.6614179e-04
8.1878193e-04
6.2704099e-04
2.8422742e-04
-3.7917818e-04
-8.7419185e-04
-1.1618758e-03
-1.0509321e-03
-9.3766547e-04
-1.4413910e-03
-1.8802208e-03
-2.2753387e-03
-2.5414712e-03
-2.7477061e-03
-3.1981422e-03
-3.2796824e-03
-2.9525583e-03
-2.0736456e-03
-1.2256547e-03
-1.1344975e-03
-1.1334096e-03
-1.1169310e-03
-7.1092790e-04
-4.5645693e-05
2.5568858e-04
6.1071727e-04
1.0197416e-03
1.7490801e-03
2.4255722e-03
2.5399203e-03
2.5316405e-03
2.1162637e-03
1.9073536e-03
2.0796708e-03
1.8767209e-03
1.6897735e-03
1.6469290e-03
1.8042225e-03
1.8037271e-03
1.3131044e-03
6.0827186e-04
-3.6571666e-04
-8.7607516e-04
-9.0104492e-04
-9.9724599e-04
-1.1965988e-03
-1.7137758e-03
-1.7384580e-03
-1.2525397e-03
-8.3481932e-04
-3.4726779e-04
-9.3913430e-05
3.1795755e-04
7.4762696e-04
7.2654674e-04
4.5938681e-04
-1.7736986e-04
-4.5365465e-04
-3.3699017e-04
-2.4373923e-04
-1.6223613e-04
-5.0476376e-04
-5.5718262e-04
-2.8923045e-04
-1.0500043e-04
7.7771525e-05
-2.0466903e-04
-5.5105367e-04
-9.4659344e-04
-1.2355621e-03
-1.0301984e-03
-9.9273109e-04
-9.2153620e-04
-7.2233576e-04
-4.6320840e-04
-1.6751995e-04
-3.5592406e-04
-5.9130073e-04
-7.6401050e-04
-8.2862430e-04
-7.0068475e-04
-9.4478340e-04
-1.1180736e-03
-1.0876250e-03
-9.5861021e-04
-7.3079410e-04
-6.8094351e-04
-3.5447308e-04
8.3658936e-05
4.8493777e-04
6.4265047e-04
1.1543015e-04
-3.9331288e-04
-7.0298599e-04
-6.7070148e-04
-3.6659641e-04
-3.8981266e-04
-3.5215281e-04
-2.7587516e-04
-6.3907236e-05
2.2383236e-04
1.2847651e-04
2.0557300e-04
4.1874002e-04
7.4094756e-04
1.0677333e-03
9.1965007e-04
6.2424923e-04
1.7496277e-04
-3.0813127e-04
-8.9840871e-04
-1.6284497e-03
-1.7886182e-03
-1.4942604e-03
-7.9552732e-04
-9.9163784e-05
1.0067544e-04
3.2134292e-04
4.7911776e-04
7.2435168e-04
9.4455764e-04
7.6331324e-04
5.7596374e-04
3.9557592e-04
6.5178237e-04
1.1665027e-03
1.2359320e-03
1.0721813e-03
7.3601503e-04
6.9101890e-04
6.9877233e-04
4.2117772e-04
3.9302228e-04
2.6889100e-04
2.4304910e-04
2.3357500e-04
-9.0826348e-05
-3.9593983e-04
-9.0860821e-04
-9.7708301e-04
-5.6953394e-04
-3.4150702e-04
-2.0770355e-04
-4.8519119e-04
-6.0940344e-04
-5.7331190e-04
-9.4975339e-04
-1.3689361e-03
-1.7624497e-03
-1.5652908e-03
-8.8309089e-04
-3.3219117e-04
1.6347203e-04
5.1453177e-04
1.0978143e-03
1.5663880e-03
1.5749784e-03
1.5294374e-03
1.4381709e-03
1.7917539e-03
2.1786456e-03
2.0475942e-03
1.5969522e-03
8.5898619e-04
5.4327488e-04
5.9807273e-04
8.4056022e-04
1.1430149e-03
1.1699767e-03
1.7113724e-03
2.4053722e-03
2.5934149e-03
2.2717056e-03
1.3253101e-03
7.8585226e-04
6.8561037e-04
4.3124346e-04
2.1822200e-05
-6.2936001e-04
-8.3460853e-04
-6.8591417e-04
-2.7743077e-04
3.0970953e-04
2.7689634e-04
1.8485678e-06
-2.5486182e-04
-2.1040582e-04
3.6071582e-05
-2.0226576e-04
-3.8496821e-04
-3.8128891e-04
-1.5214445e-04
2.6102474e-04
2.4492862e-04
-7.3321352e-05
-6.5153534e-04
-1.0172099e-03
-1.0882512e-03
-1.3442730e-03
-1.3370594e-03
-1.1477998e-03
-7.8280175e-04
-3.7665268e-04
-3.0806841e-04
-2.3269674e-04
-4.0160949e-04
-4.6372068e-04
-2.3738529e-04
-2.6314592e-04
-1.7234301e-04
2.3949781e-05
5.0258845e-04
8.7479143e-04
4.1325523e-04
-3.0784432e-04
-1.1238671e-03
-1.5734436e-03
-1.5847616e-03
-1.6423452e-03
-1.3697787e-03
-9.5755531e-04
-2.9608925e-04
3.7236824e-04
4.5285786e-04
3.4810248e-04
-6.9327317e-05
-3.1986543e-04
-1.8400902e-04
-1.3015147e-05
4.3800274e-04
5.1700482e-04
2.7188525e-04
-4.9531811e-05
-4.7176376e-04
-5.8165739e-04
-7.6002933e-04
-7.9933682e-04
-8.0212334e-04
-1.1692071e-03
-1.3455807e-03
-1.2903733e-03
-9.0302275e-04
-7.1144502e-04
-1.1120336e-03
-1.4151686e-03
-1.6442898e-03
-1.5285217e-03
-1.2855960e-03
-1.3018723e-03
-1.1240414e-03
-9.7795048e-04
-4.9488637e-04
3.1975939e-04
9.1991349e-04
1.3329360e-03
1.3286632e-03
1.4751689e-03
1.7438297e-03
1.8841313e-03
2.1924428e-03
2.2039356e-03
2.1692969e-03
1.8028703e-03
8.4195078e-04
-6.6142458e-05
-8.2834073e-04
-8.8528684e-04
-6.3103302e-04
-6.9769493e-04
-9.6872047e-04
-1.4799685e-03
-1.5111501e-03
-1.2589939e-03
-1.1369504e-03
-1.1571573e-03
-1.5994144e-03
-1.6746907e-03
-1.4421323e-03
-1.3668981e-03
-1.5054359e-03
-1.9076827e-03
-1.5533007e-03
-8.1643760e-04
-4.7828566e-04
-2.7032014e-04
-3.3982525e-04
-2.2998818e-04
2.0182976e-04
7.7160174e-04
1.2269327e-03
1.1506650e-03
1.2382090e-03
1.7138495e-03
2.3666456e-03
2.7367045e-03
2.3836709e-03
2.0329103e-03
1.8404115e-03
1.9576281e-03
2.0896588e-03
1.5271995e-03
1.0341264e-03
9.9145182e-04
1.4073225e-03
1.6482525e-03
9.7083358e-04
2.1778376e-04
-5.1689775e-04
-1.1533197e-03
-1.4037442e-03
-1.6824068e-03
-1.7362430e-03
-1.6598385e-03
-1.3223118e-03
-9.2813781e-04
-9.8329914e-04
-7.3143193e-04
-1.0432171e-04
7.1885445e-04
1.2745262e-03
1.0818409e-03
8.4131286e-04
7.5127135e-04
1.1088834e-03
1.7090652e-03
1.8474827e-03
1.7306291e-03
1.3436928e-03
1.3209989e-03
1.7453897e-03
1.9071346e-03
1.9401053e-03
1.7021612e-03
1.5282722e-03
1.3272830e-03
6.1770324e-04
-6.8995274e-05
-6.4024400e-04
-8.8792334e-04
-9.0325674e-04
-1.0526880e-03
-1.2439838e-03
-1.7358574e-03
-1.9109201e-03
-1.6202941e-03
-1.4694318e-03
-1.4553626e-03
-1.9231492e-03
-2.2788851e-03
-2.1482233e-03
-2.0132223e-03
-1.8600564e-03
-1.8960276e-03
-1.6434120e-03
-1.0769665e-03
-4.9569337e-04
2.4988364e-04
6.3524903e-04
1.1420198e-03
1.8675928e-03
2.1582138e-03
2.0951312e-03
1.5974218e-03
1.2932943e-03
1.2254062e-03
9.9137416e-04
7.3926977e-04
2.2489163e-04
3.7167743e-05
6.9290535e-05
-1.6096967e-04
-3.2303696e-04
-5.1689483e-04
-1.3748312e-04
6.5058502e-04
1.1062110e-03
1.3286473e-03
1.2324111e-03
1.3354879e-03
1.4822281e-03
1.1231853e-03
4.1921252e-04
-4.8066812e-04
-9.9559379e-04
-1.3719090e-03
-1.7164843e-03
-1.9170623e-03
-2.4870389e-03
-2.8402664e-03
-2.9192505e-03
-2.8657478e-03
-2.5738267e-03
-2.3998127e-03
-1.8137571e-03
-9.5356352e-04
-2.6493944e-04
1.3954582e-04
2.1767593e-04
6.6304828e-04
1.2328373e-03
1.7753339e-03
2.1988522e-03
1.9859115e-03
1.8243534e-03
1.7869755e-03
1.6390220e-03
1.2830119e-03
5.5525955e-04
1.4282327e-04
-6.2881560e-05
-1.4625381e-04
-2.4221985e-04
-7.5697443e-04
-9.9461949e-04
-8.3607212e-04
-1.6238612e-04
5.4286087e-04
2.5386149e-04
-3.4305780e-04
-7.2959481e-04
-6.6968252e-04
-4.9302654e-04
-7.7358242e-04
-8.2758215e-04
-6.2798430e-04
-1.3918110e-04
3.7024238e-04
4.2455923e-04
7.0787878e-04
1.1674410e-03
1.8221515e-03
2.3221150e-03
2.2368018e-03
2.2294262e-03
2.0411793e-03
1.8650654e-03
1.8809561e-03
1.4539531e-03
8.5633911e-04
3.4061644e-04
1.6445711e-04
3.3485528e-05
-4.4541133e-04
-8.4148860e-04
-1.2802660e-03
-1.3366648e-03
-1.0518947e-03
-1.2028524e-03
-1.5817754e-03
-2.0650364e-03
-2.1931348e-03
-2.1422295e-03
-2.4934203e-03
-3.0671724e-03
-3.6955255e-03
-3.5125372e-03
-2.7307934e-03
-2.2095269e-03
-1.9181060e-03
-1.9858744e-03
-1.7642446e-03
-1.2624088e-03
-1.1021892e-03
-1.0655084e-03
-1.2386896e-03
-1.0184680e-03
-4.8231177e-04
-2.7747637e-04
7.2988726e-05
6.2966569e-04
1.6541289e-03
2.6472587e-03
3.0231812e-03
3.1854662e-03
2.8674088e-03
2.5430237e-03
2.3465498e-03
2.0360857e-03
1.9703289e-03
1.7024626e-03
1.4446191e-03
1.2534700e-03
9.1934578e-04
6.1661673e-04
-1.5585974e-04
-9.8863582e-04
-1.5768369e-03
-1.9908698e-03
-2.0987920e-03
-2.2594537e-03
-2.1131585e-03
-1.6630171e-03
-1.0949763e-03
-3.8919767e-04
1.0692631e-04
7.6875386e-04
1.3887235e-03
1.7740957e-03
1.9986888e-03
1.6901760e-03
1.5576830e-03
1.5882693e-03
1.3525087e-03
9.4424787e-04
1.9943091e-04
-1.1163349e-04
1.2420126e-04
4.9914399e-04
7.8756550e-04
6.8945371e-04
8.9575556e-04
1.2188871e-03
1.3812168e-03
1.4110477e-03
1.0008129e-03
9.4754561e-04
1.1236409e-03
1.0961446e-03
8.4328131e-04
9.5294410e-05
-3.1850421e-04
-2.3994355e-04
-1.8986676e-05
7.7980387e-05
-3.4202965e-04
-6.5966839e-04
-6.6957910e-04
-3.0350538e-04
1.6962105e-04
5.5544010e-05
-4.9601247e-05
1.9267416e-04
7.2399084e-04
1.1646501e-03
1.1843791e-03
1.4582894e-03
1.8526786e-03
2.0826557e-03
1.8513879e-03
1.1265527e-03
6.8638909e-04
3.4597267e-04
3.0207874e-04
3.0299153e-04
-2.7332696e-04
-5.9066828e-04
-5.7741706e-04
-2.7297060e-04
4.6239825e-05
-2.1377713e-04
-6.5285262e-04
-1.1746165e-03
-1.3505048e-03
-1.5078334e-03
-2.4164186e-03
-3.3297904e-03
-3.7687412e-03
-3.3919011e-03
-2.6371911e-03
-2.3000942e-03
-2.0278104e-03
-1.7200335e-03
-1.1074412e-03
-5.0382892e-04
-3.8064799e-04
-3.7505709e-04
-5.9535082e-04
-4.8774779e-04
6.8819337e-05
5.1972501e-04
8.6810905e-04
8.8962553e-04
1.1758367e-03
1.7175140e-03
1.9440210e-03
2.0502738e-03
1.9323439e-03
2.0066855e-03
2.0677318e-03
1.6731284e-03
1.1177820e-03
3.1599598e-04
-1.2933945e-04
-2.8727579e-04
-6.3226504e-04
-8.7404580e-04
-1.2033564e-03
-1.1866022e-03
-7.8447544e-04
-3.2637167e-04
1.9194221e-05
-2.7438334e-04
-3.6341931e-04
-8.8584439e-05
5.3923060e-05
1.9549429e-04
-6.2799450e-05
-3.2837251e-04
-5.4826149e-04
-7.5973024e-04
-6.4299472e-04
-6.5654408e-04
-3.6077951e-04
1.8771450e-04
5.2729880e-04
6.5876183e-04
4.0320211e-04
3.1644523e-04
2.5593981e-04
1.6473788e-04
6.0776464e-05
-7.3840405e-04
-1.7200148e-03
-2.6785933e-03
-3.3993248e-03
-3.6259838e-03
-3.8869362e-03
-3.8311466e-03
-3.5632932e-03
-3.0026823e-03
-1.9969308e-03
-1.3042425e-03
-8.1775786e-04
-5.5628210e-04
-3.4900400e-04
-1.7052621e-04
-2.2240137e-04
1.9413906e-04
7.4277778e-04
1.2235206e-03
1.5030247e-03
1.2091673e-03
1.0269219e-03
8.0953121e-04
7.3295933e-04
8.2551494e-04
5.3716071e-04
4.7008444e-04
5.5522711e-04
7.7156529e-04
1.0833416e-03
9.8765842e-04
7.3596331e-04
3.7789613e-04
3.7181894e-04
4.5041645e-04
-1.5317567e-04
-7.4900990e-04
-1.0691468e-03
-9.8354500e-04
-7.9445673e-04
-9.6177127e-04
-9.3404456e-04
-6.9680875e-04
-5.6822851e-05
6.8213703e-04
9.3921806e-04
1.1686903e-03
1.2720891e-03
1.3759276e-03
1.3846584e-03
9.3256701e-04
4.8288458e-04
2.1408319e-04
4.7679115e-04
8.3301063e-04
8.2860891e-04
1.0317047e-03
1.2751740e-03
1.6064814e-03
1.5874135e-03
9.5450774e-04
4.9743841e-04
1.6263472e-04
2.0730777e-04
3.3684969e-04
-2.6815005e-05
-4.5432001e-04
-9.3789676e-04
-1.0938542e-03
-1.1144797e-03
-1.4510917e-03
-1.8262289e-03
-2.1728416e-03
-1.6470742e-03
-5.5348815e-04
-5.6734167e-06
2.3427288e-05
-2.1690719e-04
9.6125434e-05
8.4739620e-04
1.5494513e-03
2.1156883e-03
2.0221295e-03
1.9340507e-03
2.0634116e-03
1.9744813e-03
1.6218133e-03
7.9434009e-04
1.5301647e-04
-1.8537768e-04
-3.1802769e-04
-3.3064194e-04
-8.8064057e-04
-1.1682495e-03
-9.2148871e-04
-7.4899019e-04
-9.1552017e-04
-1.5208809e-03
-1.5844713e-03
-1.1342919e-03
-7.2122601e-04
-4.8571366e-04
-8.7170040e-04
-1.2495282e-03
-1.3290292e-03
-1.2172479e-03
-1.0503896e-03
-1.2594503e-03
-1.1066060e-03
-4.3741405e-04
4.5373117e-04
1.4119049e-03
1.9127555e-03
2.3352750e-03
2.8257432e-03
3.3944999e-03
3.8007401e-03
3.6006678e-03
3.3715082e-03
3.2257111e-03
3.2861592e-03
3.3161380e-03
2.7779248e-03
2.3333535e-03
2.0907415e-03
2.0229952e-03
1.9424370e-03
1.5508660e-03
1.4319965e-03
1.3893882e-03
1.3455990e-03
1.3232041e-03
9.9896198e-04
6.2182227e-04
1.8619184e-04
1.4894548e-04
3.5685930e-04
2.3290633e-04
9.8888721e-05
-4.2691652e-04
-1.1183253e-03
-1.6647366e-03
-2.3524784e-03
-2.8955870e-03
-3.3988105e-03
-3.4898096e-03
-3.3339358e-03
-3.6026948e-03
-3.8448307e-03
-3.9324985e-03
-3.6514995e-03
-3.2338349e-03
-3.0476840e-03
-2.7074921e-03
-2.3556192e-03
-1.7843434e-03
-1.2963542e-03
-1.2539661e-03
-1.0355167e-03
-7.4386851e-04
-1.7234282e-04
5.2210208e-04
9.3564270e-04
1.4115735e-03
1.7322023e-03
2.2876740e-03
3.0240796e-03
3.4723907e-03
3.7762462e-03
3.4898897e-03
3.1044162e-03
2.8157394e-03
2.1960086e-03
1.5583062e-03
8.6299449e-04
4.6423258e-04
4.6799778e-05
-7.0901411e-04
-1.3366353e-03
-2.0457456e-03
-2.3867893e-03
-2.4789388e-03
-2.6172573e-03
-2.4991507e-03
-2.3818882e-03
-1.8011740e-03
-1.1115848e-03
-8.0774597e-04
-5.5124077e-04
-4.1530787e-04
2.0676749e-04
1.0654285e-03
1.4843453e-03
1.4960991e-03
1.1698032e-03
1.2749948e-03
1.6250145e-03
1.8764784e-03
1.9614320e-03
1.3443706e-03
8.0690578e-04
5.1466586e-04
6.4819072e-05
-4.2377397e-04
-9.8101198e-04
-1.1082982e-03
-9.7517364e-04
-7.1966970e-04
-4.7988616e-04
-7.3091673e-04
-8.6794366e-04
-9.0424101e-04
-1.0963882e-03
-1.5173697e-03
-2.4212539e-03
-3.0622609e-03
-3.0138897e-03
-2.3142620e-03
-1.6577745e-03
-1.6593051e-03
-1.4091104e-03
-8.9083775e-04
-3.7997701e-04
-5.1350460e-05
-2.6150667e-04
-3.1795133e-04
-6.4013009e-05
5.2590411e-04
1.0949879e-03
1.0496971e-03
1.1053821e-03
1.5099239e-03
2.2431924e-03
2.8355308e-03
2.6648488e-03
2.3267324e-03
2.0888179e-03
2.3797589e-03
2.9820696e-03
2.9731314e-03
2.4588772e-03
1.6355680e-03
1.0274440e-03
4.4196721e-04
-5.2128751e-04
-1.2135308e-03
-1.5694353e-03
-1.4182269e-03
-1.2574349e-03
-1.7027687e-03
-2.2094382e-03
-2.7247709e-03
-2.7870857e-03
-2.4328719e-03
-2.2155994e-03
-2.0829040e-03
-2.1918691e-03
-1.8906470e-03
-1.0767798e-03
-1.7460451e-04
7.7672890e-04
1.2998781e-03
1.9326421e-03
2.6253095e-03
2.8631821e-03
2.8790550e-03
2.3338021e-03
1.9364775e-03
2.0518129e-03
2.2048467e-03
2.4061817e-03
2.4031216e-03
2.6872803e-03
2.9451140e-03
2.7090579e-03
2.4055325e-03
1.5818358e-03
8.3452727e-04
4.6972938e-04
-7.7448296e-05
-5.8486935e-04
-1.0542075e-03
-1.2135899e-03
-1.3782992e-03
-1.7800785e-03
-2.2230492e-03
-3.0019107e-03
-3.4002406e-03
-3.3593159e-03
-3.2285696e-03
-2.8545944e-03
-2.6829055e-03
-2.3990012e-03
-1.9954044e-03
-1.6283011e-03
-1.1789416e-03
-9.0216530e-04
-2.9375952e-04
3.7046629e-04
7.3942975e-04
9.7471902e-04
9.2735841e-04
1.1194852e-03
1.3222831e-03
1.5486942e-03
1.9688740e-03
2.0220773e-03
2.2530242e-03
2.6402211e-03
2.9266445e-03
3.0345599e-03
2.6364738e-03
2.3723836e-03
2.0277335e-03
1.3234351e-03
6.6529083e-04
3.4035336e-05
-3.9296381e-04
-8.4557296e-04
-1.2263617e-03
-1.6739630e-03
-2.5319674e-03
-2.9116002e-03
-2.8458454e-03
-2.5274577e-03
-2.0637804e-03
-1.8703528e-03
-1.3532470e-03
-5.5863446e-04
3.1557486e-04
8.8551042e-04
7.5607492e-04
6.3149093e-04
6.1529174e-04
7.5595429e-04
9.0077141e-04
9.2562668e-04
1.4409329e-03
2.1536175e-03
2.8415167e-03
3.0871078e-03
2.5605560e-03
1.9494145e-03
1.3440560e-03
1.0614350e-03
8.5599603e-04
1.5264550e-04
-5.3687117e-04
-1.2031516e-03
-1.6673844e-03
-2.0877584e-03
-2.6914196e-03
-2.9844000e-03
-3.1495773e-03
-2.7373965e-03
-1.9734144e-03
-1.6456781e-03
-1.4242421e-03
-1.4173621e-03
-1.2112985e-03
-8.1028151e-04
-7.3655808e-04
-8.1835895e-04
-1.0163764e-03
-6.3121558e-04
-2.8702291e-06
1.2287111e-04
-1.4723673e-05
-4.3775606e-04
-4.4006014e-04
1.5033863e-05
5.2092470e-04
8.8371440e-04
6.9026828e-04
8.9049924e-04
1.6487652e-03
2.2978809e-03
2.4204466e-03
1.6300689e-03
1.0384785e-03
9.5921433e-04
8.5732128e-04
5.2686179e-04
-4.4761346e-04
-1.2064038e-03
-1.5561901e-03
-1.9313604e-03
-2.2907218e-03
-3.0480279e-03
-3.6591410e-03
-3.7625331e-03
-3.3097982e-03
-2.3201406e-03
-1.5376799e-03
-7.3025695e-04
1.6302592e-04
9.7545611e-04
1.5759432e-03
1.4416951e-03
1.1690683e-03
1.1706299e-03
1.4874885e-03
1.7676592e-03
1.5384881e-03
1.5015383e-03
1.6219844e-03
1.8192540e-03
2.0969661e-03
1.9598597e-03
1.8155785e-03
1.6473475e-03
1.4404459e-03
1.0257916e-03
1.7612009e-05
-9.2713422e-04
-1.6181040e-03
-1.6125736e-03
-1.0378869e-03
-9.0232529e-04
-1.1165656e-03
-1.5924919e-03
-1.7156458e-03
-1.2810973e-03
-9.4962781e-04
-5.3096926e-04
-2.5276693e-04
3.3352534e-05
3.6869078e-04
3.7023738e-04
5.1364709e-04
6.1709300e-04
8.9909463e-04
1.2988010e-03
1.3195806e-03
1.5163553e-03
1.7098280e-03
1.9412899e-03
2.1477475e-03
1.9047667e-03
1.6716415e-03
1.4746629e-03
1.5950790e-03
1.7943684e-03
1.4609282e-03
1.1076791e-03
7.9792205e-04
8.5027226e-04
1.2084794e-03
1.2737703e-03
1.2833605e-03
1.0699252e-03
8.4710822e-04
5.1020578e-04
-2.4102905e-04
-9.1006405e-04
-1.5184016e-03
-1.5384994e-03
-1.2950934e-03
-1.5017345e-03
-1.6196784e-03
-1.7829562e-03
-1.7708241e-03
-1.7004732e-03
-1.8719995e-03
-1.9636282e-03
-2.2950176e-03
-2.2783078e-03
-1.7674990e-03
-1.1477325e-03
-5.1242341e-04
-3.2406935e-04
2.1052480e-04
1.0893639e-03
1.6451116e-03
1.7568627e-03
9.8314638e-04
2.8230501e-04
8.8876292e-06
-2.5000656e-04
-2.9124399e-04
-3.1629056e-04
3.4737443e-05
2.7070499e-04
-5.3282389e-05
-5.3635878e-04
-1.1736130e-03
-1.1750161e-03
-6.4313660e-04
-3.7307287e-04
-6.9158640e-04
-1.5183220e-03
-1.8279587e-03
-1.6286634e-03
-1.2452014e-03
-8.7075058e-04
-1.0770100e-03
-1.0451551e-03
-4.6831406e-04
1.5176657e-04
4.8507233e-04
3.2280758e-04
4.9246484e-04
1.1799460e-03
2.0954302e-03
2.5263512e-03
1.9519239e-03
1.6374976e-03
1.8195448e-03
2.0980501e-03
2.1885713e-03
1.7167910e-03
1.3722400e-03
1.1487174e-03
1.0414704e-03
9.0199758e-04
3.0876658e-04
-9.0299065e-05
-2.3930786e-04
-1.2472523e-04
-2.0106317e-04
-1.1103172e-03
-2.0239331e-03
-2.5992648e-03
-2.6434237e-03
-2.4548615e-03
-2.7631356e-03
-3.0492264e-03
-3.1904770e-03
-2.9619639e-03
-2.4488251e-03
-2.2093080e-03
-2.0815476e-03
-2.1757940e-03
-1.8788542e-03
-1.1127359e-03
-5.4803096e-04
-7.1548949e-05
6.4181545e-05
2.3966414e-04
5.0733087e-04
3.5592888e-04
9.2893558e-05
-2.0323480e-04
3.1116230e-05
5.8406689e-04
8.3405167e-04
1.1419874e-03
1.2181824e-03
1.3428640e-03
1.5493746e-03
1.5560740e-03
1.7342494e-03
1.7510369e-03
2.0071877e-03
2.4922365e-03
2.5830213e-03
2.3633665e-03
1.5924413e-03
8.3216137e-04
3.5096475e-04
-1.0578184e-04
-4.2205334e-04
-9.2332787e-04
-1.1646493e-03
-1.2936976e-03
-1.7768355e-03
-2.2752303e-03
-2.9248125e-03
-3.0688109e-03
-2.5408432e-03
-1.8743643e-03
-1.1590627e-03
-7.2380549e-04
-1.5927213e-04
4.9893054e-04
1.0466056e-03
1.5973662e-03
1.7008610e-03
1.8228034e-03
2.0115533e-03
2.0305105e-03
1.9946412e-03
1.4799075e-03
1.0004408e-03
6.9215618e-04
4.6814829e-04
5.0509602e-04
5.0646233e-04
8.2169881e-04
1.0905633e-03
1.2932975e-03
1.6563403e-03
1.4877607e-03
1.1811473e-03
7.5816939e-04
1.0116248e-04
-6.0841133e-04
-1.6156206e-03
-2.2030645e-03
-2.1913999e-03
-1.8405571e-03
-1.5151325e-03
-1.6329187e-03
-1.3302596e-03
-4.7702099e-04
6.0646986e-04
1.4921911e-03
1.6468962e-03
1.7291192e-03
1.7166933e-03
1.5337919e-03
1.2120277e-03
5.3086844e-04
1.0683427e-04
-7.5425212e-05
2.3750501e-04
8.8729759e-04
9.7998070e-04
9.3662335e-04
1.0126249e-03
1.3250012e-03
1.3871644e-03
7.1870522e-04
9.6813481e-05
-4.0080495e-04
-4.4933910e-04
-2.8009121e-04
-5.5994602e-04
-6.2962831e-04
-6.4386598e-04
-5.9186786e-04
-5.9951596e-04
-1.3031497e-03
-2.1215154e-03
-2.6245205e-03
-2.3896916e-03
-1.8047292e-03
-1.6086583e-03
-1.4710224e-03
-1.3142880e-03
-6.6483378e-04
1.7265970e-04
4.9442902e-04
7.1236830e-04
7.4040161e-04
9.7153939e-04
1.3280637e-03
1.2354539e-03
9.8828395e-04
4.7894004e-04
2.8067587e-04
3.4472617e-04
6.8464105e-05
-1.4753013e-04
-2.9571594e-04
-2.2698743e-05
4.7616690e-04
5.8782111e-04
1.9473770e-04
-6.5949791e-04
-9.6301585e-04
-8.8260540e-04
-9.4804989e-04
-1.0569161e-03
-1.6326124e-03
-1.9134689e-03
-1.6973352e-03
-1.4825301e-03
-1.3440426e-03
-1.5859696e-03
-1.5006666e-03
-1.0564013e-03
-5.3306643e-04
8.0260545e-05
2.1432218e-04
5.0826762e-04
1.1209753e-03
1.7913465e-03
2.3859339e-03
2.2154675e-03
2.0670410e-03
2.3409436e-03
2.6795535e-03
2.9672170e-03
2.8644933e-03
2.8653383e-03
2.9490064e-03
3.0042718e-03
3.0606234e-03
2.7260356e-03
2.3751811e-03
1.8466579e-03
1.1327508e-03
4.2906363e-04
-4.8114989e-04
-1.2118066e-03
-2.0053113e-03
-2.6191075e-03
-2.8863700e-03
-3.3966472e-03
-3.7100801e-03
-3.8593721e-03
-3.8313950e-03
-3.7629672e-03
-4.0371305e-03
-3.9517537e-03
-3.4956202e-03
-2.5560543e-03
-1.2410133e-03
-2.6540802e-04
6.2256283e-04
1.2779105e-03
1.8332202e-03
2.2344787e-03
1.9985587e-03
1.6992333e-03
1.4095606e-03
1.4021623e-03
1.8493961e-03
2.2113030e-03
2.5460855e-03
2.6305081e-03
2.6044646e-03
2.4835291e-03
2.0489177e-03
1.7282534e-03
1.4141134e-03
1.2522345e-03
9.4332118e-04
1.7436443e-04
-5.9206276e-04
-1.4304457e-03
-1.9950199e-03
-2.5298263e-03
-3.1425036e-03
-3.1077609e-03
-2.9163059e-03
-2.5895331e-03
-2.1467244e-03
-1.8962638e-03
-1.4299733e-03
-8.5222263e-04
1.7294351e-04
1.2611683e-03
1.6241455e-03
1.6061923e-03
1.3154026e-03
1.2013770e-03
9.7065949e-04
3.2363335e-04
1.1771584e-05
-1.9658214e-05
3.7331347e-04
9.5797136e-04
1.4188599e-03
1.9056280e-03
2.0652268e-03
2.3373593e-03
2.3143176e-03
1.4624498e-03
3.9192714e-04
-7.8773738e-04
-1.4555321e-03
-1.8051033e-03
-2.3030897e-03
-2.6866335e-03
-3.0106651e-03
-2.5788501e-03
-1.8263718e-03
-1.5570164e-03
-1.6385259e-03
-2.0175055e-03
-1.7094498e-03
-8.5390605e-04
-2.0178487e-04
1.2178908e-04
-1.4045318e-04
-1.4981891e-04
2.4938510e-04
7.2669956e-04
1.1476839e-03
1.0489128e-03
1.1052304e-03
1.5028210e-03
1.9095049e-03
2.2167380e-03
2.2665064e-03
2.6270787e-03
3.1206111e-03
3.4166588e-03
3.1481693e-03
1.9693022e-03
8.8484073e-04
1.1830461e-04
-1.5561128e-04
-1.1298649e-04
-6.3521465e-04
-1.1493572e-03
-1.5372529e-03
-1.8044784e-03
-1.9300734e-03
-2.2899975e-03
-2.4052826e-03
-2.3404853e-03
-2.0299023e-03
-1.4771433e-03
-1.2294830e-03
-9.7219833e-04
-5.5159478e-04
2.5412854e-04
1.2287941e-03
1.8610374e-03
2.4233701e-03
2.6363266e-03
2.6951841e-03
2.6086413e-03
2.0541915e-03
1.5786764e-03
1.0975413e-03
8.8912411e-04
7.6532723e-04
1.6564750e-04
-5.0092820e-04
-1.2256885e-03
-1.4805519e-03
-1.4001061e-03
-1.4884386e-03
-1.5584602e-03
-2.0556778e-03
-2.3957843e-03
-2.4228834e-03
-2.6758191e-03
-2.8539337e-03
-3.0572942e-03
-2.8419535e-03
-2.4137254e-03
-2.3363457e-03
-2.1082964e-03
-1.7692134e-03
-1.0952480e-03
-3.0369450e-04
3.4079844e-04
1.0877708e-03
1.3031197e-03
1.3526672e-03
1.4852851e-03
1.3893736e-03
1.3538159e-03
1.4740074e-03
2.1970563e-03
2.8688480e-03
2.8233537e-03
2.3293980e-03
1.3822446e-03
7.6416840e-04
4.1054070e-04
7.7348430e-05
6.8999205e-05
-1.3972019e-04
-2.9672019e-04
-3.8127602e-04
-6.2374245e-04
-8.4144568e-04
-1.2153904e-03
-1.2491097e-03
-1.0863442e-03
-9.1729085e-04
-6.6976294e-04
-8.6637102e-04
-8.7013841e-04
-6.9630412e-04
-7.3011405e-04
-7.6548531e-04
-1.0434396e-03
-1.1251857e-03
-1.0092747e-03
-7.8495755e-04
-5.0640750e-04
-6.5544117e-04
-7.3201102e-04
-7.9762936e-04
-9.4113018e-04
-1.0211447e-03
-1.3831690e-03
-1.4317573e-03
-1.1921824e-03
-9.6674572e-04
-7.8482255e-04
-8.9765814e-04
-6.0004932e-04
8.0494955e-05
6.8450178e-04
9.4928711e-04
6.2013453e-04
3.6117637e-04
3.1677450e-04
4.8201162e-04
5.4719202e-04
1.5778419e-04
3.1206862e-05
1.0103083e-04
4.1918360e-04
7.9066557e-04
6.9111854e-04
7.8917138e-04
1.0326878e-03
1.4314218e-03
1.7320695e-03
1.4541327e-03
1.2650974e-03
1.2006882e-03
1.4808501e-03
1.9823424e-03
2.0957092e-03
2.1399489e-03
2.0384977e-03
2.0882470e-03
2.0892755e-03
1.2740514e-03
1.0924270e-04
-9.6872655e-04
-1.3869448e-03
-1.4835949e-03
-1.9277087e-03
-2.2483456e-03
-2.4954654e-03
-2.3883969e-03
-1.9884475e-03
-1.8680111e-03
-1.9029259e-03
-1.9247313e-03
-1.1696203e-03
-3.8867644e-05
6.2211403e-04
1.3134864e-03
1.9798189e-03
2.7279379e-03
3.3400236e-03
3.4642649e-03
3.4499801e-03
3.2557271e-03
3.4180807e-03
3.5964542e-03
3.3405701e-03
3.1439403e-03
2.6052388e-03
2.0679809e-03
1.6908007e-03
1.3109733e-03
1.0488950e-03
4.0077536e-04
5.9598618e-05
1.7649520e-04
2.4696199e-04
2.8449138e-04
-1.5534418e-04
-5.2289633e-04
-7.2077191e-04
-1.0494844e-03
-1.3019567e-03
-1.6266331e-03
-1.3867496e-03
-8.3853063e-04
-4.5756998e-04
2.0190089e-05
4.3729593e-04
1.3833572e-03
2.7019420e-03
4.1107034e-03
5.7415362e-03
7.0960663e-03
8.4705727e-03
9.7920126e-03
1.1240824e-02
1.2915109e-02
1.3999947e-02
1.4845176e-02
1.5355365e-02
1.5418296e-02
1.5231668e-02
1.4339837e-02
1.2953508e-02
1.0769938e-02
7.5091868e-03
