1.4884629e-02
2.9460618e-02
3.8134371e-02
4.3556794e-02
4.5860427e-02
4.5730931e-02
4.5361095e-02
4.3171595e-02
4.0023337e-02
3.5720429e-02
3.0039161e-02
2.4175745e-02
1.7751118e-02
1.2026981e-02
6.4192010e-03
2.1433450e-03
2.5413693e-04
-2.4180638e-03
-4.7635648e-03
-6.6685657e-03
-8.4586847e-03
-8.5366198e-03
-8.6010998e-03
-8.9574910e-03
-1.0686016e-02
-1.2905016e-02
-1.3401722e-02
-1.3580986e-02
-1.2719663e-02
-1.1377269e-02
-9.0395325e-03
-3.8983890e-03
2.2070199e-03
8.4404007e-03
1.2780263e-02
1.5789801e-02
1.9438080e-02
2.1858833e-02
2.3558875e-02
2.4192501e-02
2.4142823e-02
2.4539271e-02
2.4349811e-02
2.3979039e-02
2.1112106e-02
1.6674972e-02
1.4897921e-02
1.4640754e-02
1.3075805e-02
7.1442872e-03
-1.1018641e-03
-7.2695813e-03
-1.0965603e-02
-1.1962390e-02
-1.3628504e-02
-1.7298143e-02
-2.0397042e-02
-2.2104924e-02
-2.2234426e-02
-2.3496178e-02
-2.5873493e-02
-2.8078127e-02
-3.0235579e-02
-3.1077050e-02
-3.2072427e-02
-3.2943765e-02
-3.3204067e-02
-3.3646311e-02
-3.3867204e-02
-3.6191832e-02
-3.9489717e-02
-4.0910134e-02
-3.9520513e-02
-3.3892706e-02
-2.5240083e-02
-1.3927724e-02
-2.3121083e-03
6.4530591e-03
1.3010926e-02
1.5725071e-02
1.5821680e-02
1.6240877e-02
1.7635636e-02
2.1013599e-02
2.3785968e-02
2.5080933e-02
2.4532662e-02
2.0927164e-02
1.6191694e-02
1.0071878e-02
3.9764565e-03
-1.0314163e-03
-6.0856384e-03
-9.5013033e-03
-1.0870462e-02
-1.0772939e-02
-1.0536750e-02
-9.1380407e-03
-4.3631016e-03
2.3554769e-03
1.0329981e-02
1.6775916e-02
1.9936784e-02
2.0533186e-02
1.7681026e-02
1.4493759e-02
1.2778484e-02
1.1579340e-02
1.0280405e-02
6.6224330e-03
2.1246610e-03
-2.0867820e-03
-6.0271408e-03
-8.9075738e-03
-1.2017337e-02
-1.3904841e-02
-1.5341361e-02
-1.7791433e-02
-1.9335479e-02
-2.0635165e-02
-2.0683051e-02
-1.9076291e-02
-1.6322316e-02
-1.0426585e-02
-1.7006172e-03
8.6853450e-03
1.7428268e-02
2.3642355e-02
2.9052086e-02
3.1542063e-02
3.1714114e-02
3.0359845e-02
2.7748862e-02
2.5206657e-02
2.1521808e-02
1.8096594e-02
1.5228950e-02
1.3252055e-02
1.3695605e-02
1.4144803e-02
1.4553359e-02
1.4028493e-02
1.2469198e-02
1.2124140e-02
1.1676161e-02
1.1623510e-02
1.1603382e-02
1.1269476e-02
1.1495389e-02
9.7970807e-03
7.1867793e-03
5.6884817e-03
6.3096165e-03
9.3652802e-03
1.1455433e-02
1.1808580e-02
1.0585858e-02
8.9693773e-03
8.7655206e-03
8.3623607e-03
7.5420042e-03
5.8613741e-03
4.4898401e-03
5.5677809e-03
7.3092000e-03
8.6472279e-03
8.6887402e-03
8.7611877e-03
1.0242586e-02
1.1667153e-02
1.3508935e-02
1.3093633e-02
9.8176511e-03
6.5188364e-03
1.4041517e-03
-5.6726731e-03
-1.2599083e-02
-1.6134622e-02
-1.5822964e-02
-1.4617847e-02
-1.2004176e-02
-9.1446684e-03
-5.9845933e-03
-1.6730303e-03
2.5418652e-03
7.5537437e-03
1.1987995e-02
1.6813765e-02
2.3404756e-02
2.9520324e-02
3.6358751e-02
4.2724836e-02
4.6620393e-02
4.8537146e-02
4.8215001e-02
4.6648958e-02
4.0613398e-02
2.8157467e-02
1.1840048e-02
-7.9620134e-03
-2.8043940e-02
-4.5094334e-02
-5.7522849e-02
-6.5384788e-02
-7.0618552e-02
-7.2408081e-02
-7.2620428e-02
-7.2195509e-02
-7.0088298e-02
-6.7044280e-02
-6.3385550e-02
-6.2138525e-02
-6.3113833e-02
-6.3879995e-02
-6.4022005e-02
-6.2871789e-02
-6.2669756e-02
-6.3134646e-02
-6.2625009e-02
-6.0606620e-02
-5.4903373e-02
-4.6685315e-02
-3.5268169e-02
-1.8768174e-02
4.0155661e-03
3.1267679e-02
5.3530437e-02
6.8827770e-02
7.9179071e-02
8.4314437e-02
8.6171941e-02
8.3830917e-02
7.9827995e-02
7.6459839e-02
7.1636549e-02
6.5700966e-02
5.8473617e-02
5.1446958e-02
4.5998286e-02
4.2361760e-02
4.1876419e-02
4.2695767e-02
4.4227790e-02
4.6192063e-02
4.8431384e-02
5.1395826e-02
5.1061631e-02
4.5859566e-02
3.5374212e-02
1.8681305e-02
4.9846610e-04
-1.4676048e-02
-2.5107638e-02
-3.1091361e-02
-3.4037996e-02
-3.4517267e-02
-3.3917415e-02
-3.1399425e-02
-2.7356301e-02
-2.2618161e-02
-1.5325253e-02
-7.1029749e-03
2.7988262e-04
6.0445871e-03
1.1645053e-02
1.8461498e-02
2.3655092e-02
2.7040448e-02
2.8655958e-02
2.9284419e-02
3.0446565e-02
2.9502777e-02
2.5018603e-02
1.6725870e-02
4.6970062e-03
-8.5889523e-03
-2.0310452e-02
-2.8130697e-02
-3.2546720e-02
-3.3192642e-02
-2.9291604e-02
-2.4808732e-02
-2.1603099e-02
-2.0124873e-02
-1.8483791e-02
-1.3536785e-02
-7.1514941e-03
-5.7889306e-04
5.3575827e-03
1.1763751e-02
1.9626421e-02
2.6762911e-02
3.3483939e-02
3.8116130e-02
4.0192330e-02
4.0766939e-02
3.7505496e-02
3.0916989e-02
2.0565375e-02
6.0159316e-03
-8.5631019e-03
-1.8792610e-02
-2.3607223e-02
-2.7055741e-02
-3.0622795e-02
-3.2717925e-02
-3.3834579e-02
-3.3629410e-02
-3.3775359e-02
-3.4406947e-02
-3.4696133e-02
-3.5656533e-02
-3.5940003e-02
-3.6912916e-02
-3.8209449e-02
-3.7809937e-02
-3.6578325e-02
-3.4037735e-02
-3.1508477e-02
-2.8385705e-02
-2.4052272e-02
-2.0718032e-02
-1.7380722e-02
-1.6048192e-02
-1.8178849e-02
-2.2114962e-02
-2.7171726e-02
-3.0859437e-02
-3.4177247e-02
-3.7834702e-02
-4.1019303e-02
-4.5015010e-02
-4.8810091e-02
-5.3196281e-02
-5.8431727e-02
-6.3379461e-02
-6.7912376e-02
-7.1545952e-02
-7.6865219e-02
-8.4153148e-02
-9.1766448e-02
-9.7938589e-02
-1.0034658e-01
-1.0064577e-01
-9.7929207e-02
-9.1430567e-02
-8.1455790e-02
-6.5312665e-02
-4.1774571e-02
-5.2483076e-03
4.0622345e-02
8.0334616e-02
1.0883047e-01
1.2676668e-01
1.3655985e-01
1.4035753e-01
1.3967316e-01
1.3818917e-01
1.3603108e-01
1.3448179e-01
1.3472464e-01
1.3680857e-01
1.4103095e-01
1.4476757e-01
1.4838886e-01
1.5255679e-01
1.5721851e-01
1.6230043e-01
1.6445475e-01
1.6362108e-01
1.5904855e-01
1.4805820e-01
1.2933186e-01
9.9587329e-02
5.7501159e-02
8.6386314e-03
-3.4303004e-02
-6.5257768e-02
-8.7685104e-02
-1.0289995e-01
-1.1346511e-01
-1.1951394e-01
-1.1917104e-01
-1.1591431e-01
-1.1099151e-01
-1.0513632e-01
-9.8367664e-02
-8.9121912e-02
-7.9162645e-02
-6.8472502e-02
-5.8159960e-02
-4.9562819e-02
-4.2698780e-02
-3.9078805e-02
-3.6884186e-02
-3.4322884e-02
-3.0307636e-02
-2.5592137e-02
-2.1913738e-02
-1.6873774e-02
-1.1455085e-02
-6.7567722e-03
-1.9245182e-03
1.7062141e-03
4.6158024e-03
5.6235187e-03
5.5297266e-03
6.2588166e-03
5.9413032e-03
4.8743792e-03
1.9927627e-03
-1.7725621e-03
-3.7630322e-03
-5.2906961e-03
-6.0122354e-03
-6.7559861e-03
-6.8528588e-03
-4.4580621e-03
-1.3461923e-03
1.9374278e-03
3.4648466e-03
3.6253981e-03
4.1418860e-03
3.4600191e-03
1.9196130e-03
-1.7226594e-03
-5.9293595e-03
-7.0931317e-03
-5.1440029e-03
-5.4515834e-04
3.2967323e-03
5.8973811e-03
7.9901692e-03
7.9571561e-03
7.5354050e-03
6.1749976e-03
3.6591395e-03
9.5879316e-04
-2.8622969e-03
-5.8985932e-03
-8.4500368e-03
-1.0155939e-02
-9.9676062e-03
-9.9483582e-03
-9.9062027e-03
-9.8901320e-03
-9.2006436e-03
-7.9723038e-03
-6.6927198e-03
-3.9213132e-03
-1.8480623e-03
-7.7845114e-04
5.5565310e-05
5.7246640e-04
2.0133543e-03
2.5352803e-03
1.2762898e-03
-1.6420216e-03
-4.3955605e-03
-4.0836285e-03
-2.7016438e-03
-1.0850669e-03
6.5546834e-04
2.0919355e-03
4.5697563e-03
7.5051158e-03
1.0417754e-02
1.1699293e-02
1.0636388e-02
8.8739335e-03
6.5281448e-03
4.3174950e-03
2.1570817e-03
1.3467754e-03
3.1675777e-03
5.0861234e-03
6.6715093e-03
6.8803363e-03
5.6586892e-03
5.1459708e-03
4.8521604e-03
5.6239527e-03
6.3072446e-03
6.7513687e-03
9.0460729e-03
1.1568033e-02
1.3738507e-02
1.4288037e-02
1.3482727e-02
1.3707605e-02
1.4820264e-02
1.6651423e-02
1.6989466e-02
1.6778914e-02
1.8181633e-02
1.8264331e-02
1.6719046e-02
1.3455286e-02
8.4856705e-03
2.5493987e-03
-5.6153464e-03
-1.3553539e-02
-1.9685957e-02
-2.4364472e-02
-2.7654518e-02
-3.0410568e-02
-3.0916577e-02
-2.9495136e-02
-2.7256795e-02
-2.5465069e-02
-2.5868515e-02
-2.6699939e-02
-2.8912424e-02
-3.2661615e-02
-3.6074290e-02
-3.8265445e-02
-3.8190799e-02
-3.8987865e-02
-4.0352285e-02
-3.8988477e-02
-3.4289572e-02
-2.5798167e-02
-1.5992121e-02
-5.4697729e-03
6.4676843e-03
1.8019460e-02
2.7000008e-02
3.0116641e-02
2.9169055e-02
2.7555565e-02
2.5569408e-02
2.4171301e-02
2.1232525e-02
1.6702612e-02
1.2610462e-02
9.5966776e-03
8.9702775e-03
8.3559559e-03
7.3676668e-03
7.5910039e-03
8.9603471e-03
1.1828507e-02
1.3534776e-02
1.3106905e-02
1.2419248e-02
1.2033542e-02
1.1200985e-02
9.0298913e-03
7.2888481e-03
5.5661711e-03
3.5502376e-03
2.8754577e-03
2.1147442e-03
1.3435298e-03
2.2178382e-04
-2.9072946e-04
1.6827843e-03
3.2314436e-03
3.4258430e-03
8.5058597e-04
-4.9349291e-03
-1.0918737e-02
-1.6720214e-02
-2.0783740e-02
-2.3454514e-02
-2.4204240e-02
-2.0937268e-02
-1.7191594e-02
-1.3653154e-02
-1.0274203e-02
-7.6382352e-03
-4.3155422e-03
-1.7465790e-03
2.0937741e-04
1.0695530e-03
7.8213915e-04
1.5232539e-03
2.7367777e-03
4.9088386e-03
7.2590853e-03
9.8146605e-03
1.3761758e-02
1.7459257e-02
2.1235852e-02
2.3727808e-02
2.4383807e-02
2.4477071e-02
2.3417599e-02
2.2492972e-02
2.0622217e-02
1.8053119e-02
1.6866646e-02
1.6315897e-02
1.7281220e-02
1.7469881e-02
1.5799652e-02
1.4524694e-02
1.3102518e-02
1.0505955e-02
2.4288333e-03
-9.6898658e-03
-1.9317039e-02
-2.5108041e-02
-2.6680291e-02
-2.6512250e-02
-2.6097538e-02
-2.4979359e-02
-2.3605791e-02
-2.0795276e-02
-1.8332812e-02
-1.7343717e-02
-1.6951337e-02
-1.6717325e-02
-1.5085441e-02
-1.3655967e-02
-1.3424918e-02
-1.4545690e-02
-1.6910490e-02
-1.7853962e-02
-1.8857607e-02
-2.0513416e-02
-2.1055704e-02
-2.0172528e-02
-1.6320137e-02
-8.9125744e-03
1.1758267e-03
9.5820477e-03
1.3738070e-02
1.6726714e-02
1.9402641e-02
2.2192680e-02
2.4348548e-02
2.4441475e-02
2.3494265e-02
2.1556232e-02
1.9970016e-02
1.8550127e-02
1.8818872e-02
2.3048732e-02
2.7025420e-02
2.8373964e-02
2.7171780e-02
2.5520694e-02
2.5224615e-02
2.4182742e-02
2.2704331e-02
2.0058882e-02
1.4911644e-02
7.1913665e-03
-3.3299565e-03
-1.2970964e-02
-2.0055416e-02
-2.4015656e-02
-2.4254590e-02
-2.3736315e-02
-2.2753147e-02
-2.2410737e-02
-2.2948606e-02
-2.2226408e-02
-2.1227982e-02
-1.9605177e-02
-1.7673433e-02
-1.5415596e-02
-1.3153803e-02
-1.2734934e-02
-1.2231612e-02
-1.1506324e-02
-9.6548913e-03
-6.0640054e-03
-3.6386181e-03
-2.0666792e-03
-2.1477370e-03
-3.6043430e-03
-4.3039204e-03
-4.2031737e-03
-3.3729982e-03
-5.0036406e-03
-8.6960741e-03
-1.1484989e-02
-1.4866500e-02
-1.8378805e-02
-2.2160634e-02
-2.6050152e-02
-2.8400286e-02
-2.8888175e-02
-2.6933765e-02
-2.5675157e-02
-2.6078965e-02
-2.6265525e-02
-2.5510410e-02
-2.3662548e-02
-2.4314773e-02
-2.6500061e-02
-2.6886652e-02
-2.5927151e-02
-2.3693609e-02
-2.1142653e-02
-1.6563547e-02
-8.0124315e-03
5.4299819e-03
2.2576017e-02
3.5385735e-02
4.1858227e-02
4.4879846e-02
4.5873077e-02
4.6469542e-02
4.3884345e-02
3.8028334e-02
3.1342912e-02
2.5665870e-02
2.2519441e-02
1.9220243e-02
1.4652565e-02
9.4535587e-03
6.3054443e-03
6.9735890e-03
7.4263609e-03
6.9478796e-03
6.0792857e-03
5.0721084e-03
5.5883108e-03
6.3615850e-03
7.4199776e-03
8.4025740e-03
9.6202114e-03
1.2162809e-02
1.3633754e-02
1.3511270e-02
1.0998321e-02
6.6038667e-03
1.9233578e-03
-4.2734528e-03
-1.0393233e-02
-1.6685375e-02
-2.4060580e-02
-3.0081365e-02
-3.3460338e-02
-3.4346313e-02
-3.5635056e-02
-3.6982285e-02
-3.6377611e-02
-3.5352604e-02
-3.3327933e-02
-3.0719592e-02
-2.7754786e-02
-2.3981682e-02
-1.9824757e-02
-1.3642738e-02
-6.9608878e-03
7.0057644e-04
1.0582908e-02
1.9679717e-02
2.7193114e-02
3.1125066e-02
3.1652369e-02
3.0617054e-02
2.8432628e-02
2.7576100e-02
2.6045652e-02
2.2675785e-02
2.0322063e-02
1.9738017e-02
2.0068785e-02
1.9539484e-02
1.9834205e-02
2.1624099e-02
2.4044597e-02
2.8389138e-02
3.2155586e-02
3.5277261e-02
3.8405752e-02
3.9965836e-02
4.1005669e-02
3.8023613e-02
2.8985582e-02
1.8200602e-02
1.0794766e-02
8.9704813e-03
9.9393521e-03
1.2368201e-02
1.3990270e-02
1.3623091e-02
1.3609595e-02
1.1552309e-02
7.6593398e-03
4.0520378e-03
4.6183116e-04
-1.9868071e-03
-4.4693966e-03
-6.7789903e-03
-8.7420715e-03
-1.0468019e-02
-1.0263216e-02
-9.1262688e-03
-6.9769538e-03
-4.8125460e-03
-3.4459728e-03
-1.2291531e-03
4.7040604e-05
-9.2846297e-04
-3.5457653e-03
-5.5214619e-03
-5.6011145e-03
-5.8421970e-03
-5.5694068e-03
-5.3273679e-03
-5.4375572e-03
-4.4038716e-03
-4.0038344e-03
-4.4753038e-03
-6.0173580e-03
-7.6025163e-03
-7.4484325e-03
-6.9005963e-03
-5.6496194e-03
-4.7423426e-03
-4.4458747e-03
-4.4528491e-03
-6.5411182e-03
-9.1678315e-03
-1.1839235e-02
-1.2907488e-02
-1.0705853e-02
-8.4097855e-03
-6.8701169e-03
-6.9229567e-03
-7.5829561e-03
-6.9369493e-03
-5.8686234e-03
-3.1389983e-03
-1.1055076e-03
-3.6675199e-04
1.7875150e-03
3.8190493e-03
4.8501246e-03
3.8308164e-03
1.9898153e-03
9.5781000e-04
-3.6842854e-04
-1.0846183e-03
-2.5112522e-03
-4.5464707e-03
-5.1871527e-03
-5.8865415e-03
-6.9984306e-03
-9.4602324e-03
-1.2806560e-02
-1.4474980e-02
-1.4342085e-02
-1.2758312e-02
-1.1449024e-02
-9.7043720e-03
-6.9080175e-03
-4.8546344e-03
-2.4483901e-03
-8.5350258e-04
-2.8383096e-04
9.5215192e-05
-7.5212768e-04
-1.1573097e-03
-9.6553145e-04
-3.4693436e-04
3.3190391e-04
6.2059534e-04
2.3463772e-03
4.0096671e-03
5.3908659e-03
7.9885867e-03
1.2159859e-02
1.8250064e-02
2.3593914e-02
2.7601975e-02
2.9230565e-02
2.7543125e-02
2.5138899e-02
2.1889313e-02
1.8464067e-02
1.4801064e-02
1.0711101e-02
7.5884827e-03
4.0979078e-03
4.0624463e-04
-3.6817763e-03
-7.0592619e-03
-7.6523085e-03
-7.8294672e-03
-8.4444418e-03
-1.0176026e-02
-1.2292733e-02
-1.1937529e-02
-1.0598394e-02
-9.4776281e-03
-9.5059706e-03
-1.0193154e-02
-9.9081746e-03
-1.0376011e-02
-1.1255111e-02
-1.3260531e-02
-1.5769003e-02
-1.5427542e-02
-1.3577098e-02
-1.1066628e-02
-8.4953433e-03
-5.2139229e-03
-3.9358663e-04
3.1347882e-03
5.5806880e-03
6.9260177e-03
7.9074032e-03
1.0586316e-02
1.3225525e-02
1.6363328e-02
1.9128196e-02
2.0536938e-02
2.2964857e-02
2.5507779e-02
2.6926369e-02
2.6128976e-02
2.3879592e-02
2.1214996e-02
1.7696097e-02
1.4799985e-02
1.0914723e-02
5.1429712e-03
-2.0999942e-03
-1.0913061e-02
-1.7608601e-02
-2.1418276e-02
-2.3036812e-02
-2.2897613e-02
-2.2265459e-02
-2.0089793e-02
-1.8656944e-02
-1.8120285e-02
-1.5961821e-02
-1.2814070e-02
-9.0281386e-03
-6.4504532e-03
-4.4685182e-03
-1.8568018e-03
7.2322697e-04
4.4514058e-03
7.7121153e-03
1.0650873e-02
1.3862223e-02
1.5713199e-02
1.6879820e-02
1.5942270e-02
1.3210275e-02
9.1069734e-03
3.7557268e-03
2.7424599e-04
-2.2667645e-03
-3.6030591e-03
-4.0033683e-03
-5.3774857e-03
-5.9020495e-03
-7.0087403e-03
-8.8598656e-03
-1.0207227e-02
-1.1379307e-02
-1.1068561e-02
-1.1226939e-02
-1.1868706e-02
-1.0787751e-02
-8.4018034e-03
-5.1872835e-03
-2.8048485e-03
-7.2659794e-04
1.0741225e-03
2.0997877e-03
3.3945742e-03
2.3810652e-03
-5.2408949e-04
-4.0097659e-03
-7.8018873e-03
-1.0358590e-02
-1.3626760e-02
-1.6992133e-02
-1.9739374e-02
-2.1534934e-02
-2.0478492e-02
-1.9053151e-02
-1.7791474e-02
-1.6347123e-02
-1.5068822e-02
-1.3213621e-02
-1.1835243e-02
-9.5918299e-03
-6.7326268e-03
-5.5050096e-03
-5.8624828e-03
-8.7252138e-03
-1.3007451e-02
-1.7390849e-02
-2.0220832e-02
-1.9220356e-02
-1.5896498e-02
-1.0773816e-02
-4.7912701e-03
1.6390710e-03
8.8411142e-03
1.4807593e-02
1.8902925e-02
1.9787573e-02
1.8744402e-02
1.8675226e-02
1.9304977e-02
2.1022376e-02
2.1995162e-02
2.1629557e-02
2.1668411e-02
2.1768777e-02
2.2345088e-02
2.2423696e-02
2.3028944e-02
2.5164053e-02
2.6923439e-02
2.8942203e-02
2.9179842e-02
2.7301538e-02
2.5637593e-02
2.2587894e-02
1.7707442e-02
1.0172806e-02
1.8582032e-03
-4.0737148e-03
-9.0190429e-03
-1.3215796e-02
-1.7668249e-02
-2.2096453e-02
-2.5094080e-02
-2.7216275e-02
-2.8051102e-02
-2.9500180e-02
-3.0145543e-02
-2.8139833e-02
-2.6011571e-02
-2.4139921e-02
-2.4486507e-02
-2.6122175e-02
-2.5944393e-02
-2.4260106e-02
-2.1566650e-02
-2.0197290e-02
-1.9378976e-02
-1.6887555e-02
-1.3186776e-02
-7.5898528e-03
-3.7325172e-04
9.0289983e-03
1.8453634e-02
2.4568912e-02
2.9232871e-02
3.2473004e-02
3.5419098e-02
3.8608392e-02
4.0138346e-02
4.1519464e-02
4.2051882e-02
4.0733170e-02
3.7989261e-02
3.5210945e-02
3.4725537e-02
3.4738249e-02
3.4467263e-02
3.3629499e-02
3.2990928e-02
3.4932281e-02
3.6096588e-02
3.4186766e-02
2.8791799e-02
2.0615225e-02
1.1397885e-02
-2.1462153e-03
-1.8823259e-02
-3.3401502e-02
-4.3248204e-02
-4.7881288e-02
-5.0550546e-02
-5.1158061e-02
-4.9112040e-02
-4.6141679e-02
-4.2455269e-02
-3.9108915e-02
-3.5518282e-02
-3.2572527e-02
-3.1494979e-02
-3.0884322e-02
-3.1080317e-02
-3.0934003e-02
-3.1141432e-02
-3.2502633e-02
-3.3007085e-02
-3.3427938e-02
-3.2983349e-02
-3.1486686e-02
-2.7935690e-02
-2.0139604e-02
-9.9324294e-03
9.5334667e-04
8.2366211e-03
1.0853661e-02
1.2521799e-02
1.3140713e-02
1.2992063e-02
1.1515177e-02
1.0073490e-02
1.2128027e-02
1.4784483e-02
1.6658828e-02
1.8662860e-02
2.1797815e-02
2.6379235e-02
2.8911844e-02
2.9088568e-02
2.6830818e-02
2.4453999e-02
2.5690622e-02
2.7472836e-02
2.6742863e-02
2.3064442e-02
1.9351311e-02
1.6540511e-02
1.1742623e-02
6.1224554e-03
-5.6240364e-05
-5.7192303e-03
-8.4144425e-03
-9.0085498e-03
-7.7735441e-03
-7.2544638e-03
-7.8516591e-03
-7.4352207e-03
-7.1217525e-03
-7.1107037e-03
-9.0065419e-03
-1.2256067e-02
-1.3996221e-02
-1.4672732e-02
-1.3959532e-02
-1.3126000e-02
-1.2112064e-02
-9.6654824e-03
-7.2120541e-03
-3.4827634e-03
3.7789891e-04
3.0022557e-03
5.9696495e-03
9.3065064e-03
1.2527894e-02
1.3074361e-02
1.1764850e-02
1.0489692e-02
8.2871967e-03
6.5013676e-03
4.2956551e-03
1.3751042e-03
-2.1638729e-03
-7.1267651e-03
-1.1009625e-02
-1.4239641e-02
-1.7290744e-02
-1.9413210e-02
-2.0405359e-02
-2.0059322e-02
-2.1054834e-02
-2.2157769e-02
-2.2154979e-02
-2.2147614e-02
-2.0692489e-02
-1.9587125e-02
-1.8268319e-02
-1.4584635e-02
-8.2869110e-03
1.5251536e-03
1.1269222e-02
1.8286312e-02
2.2275484e-02
2.4692418e-02
2.7150250e-02
2.7739471e-02
2.8179558e-02
2.8999937e-02
2.8469577e-02
2.7305446e-02
2.4635765e-02
2.0835722e-02
1.6050604e-02
1.0983007e-02
7.2758349e-03
3.3573302e-03
-1.4352485e-04
-3.6438992e-03
-6.8564471e-03
-6.9479529e-03
-5.6937143e-03
-4.2227874e-03
-3.0587157e-03
-2.5727448e-03
-1.7502698e-03
-1.5746072e-03
-2.1056032e-03
-3.9110435e-03
-6.2322729e-03
-6.7412235e-03
-6.8371178e-03
-6.6873627e-03
-7.0475366e-03
-7.5625820e-03
-6.6530020e-03
-6.5293869e-03
-6.8114310e-03
-8.1901300e-03
-1.0000799e-02
-1.0324748e-02
-1.1731587e-02
-1.4069007e-02
-1.7682622e-02
-2.2240511e-02
-2.5296122e-02
-2.6476723e-02
-2.4534493e-02
-1.9650509e-02
-1.0282624e-02
2.7727651e-03
1.3520710e-02
2.1080437e-02
2.4900676e-02
2.5551838e-02
2.6105305e-02
2.5841857e-02
2.4758701e-02
2.3331674e-02
2.2738515e-02
2.4260876e-02
2.6560675e-02
2.9514868e-02
3.1950440e-02
3.4653276e-02
3.9703150e-02
4.5022761e-02
4.9444135e-02
5.2243170e-02
5.4943343e-02
5.7767974e-02
5.6749064e-02
5.0679007e-02
3.7944848e-02
1.9444281e-02
-1.9336369e-04
-1.7607344e-02
-3.0236812e-02
-3.9122309e-02
-4.4744541e-02
-4.6886279e-02
-4.7280889e-02
-4.7042332e-02
-4.8181024e-02
-4.8568060e-02
-4.6731949e-02
-4.5516752e-02
-4.4745051e-02
-4.5387905e-02
-4.6656727e-02
-4.6393823e-02
-4.4951753e-02
-4.1150327e-02
-3.6634274e-02
-3.2400777e-02
-2.8579081e-02
-2.5560690e-02
-2.0981659e-02
-1.5586455e-02
-8.7054283e-03
2.2150086e-04
8.0678142e-03
1.3865120e-02
1.6148010e-02
1.5534482e-02
1.3917375e-02
1.1935680e-02
1.0951840e-02
9.1650642e-03
6.5398083e-03
4.5466003e-03
3.4208196e-03
3.5403386e-03
3.0987756e-03
2.7070310e-03
2.5534369e-03
2.3664653e-03
4.3247334e-03
6.3389553e-03
8.1411438e-03
1.0205422e-02
1.1138059e-02
1.2426377e-02
1.3053455e-02
1.2862403e-02
1.1587872e-02
1.0006224e-02
1.2088353e-02
1.5308362e-02
1.6343577e-02
1.5122568e-02
1.3701523e-02
1.5067708e-02
1.7669921e-02
2.0505403e-02
2.2570571e-02
2.3255475e-02
2.4404336e-02
2.5062233e-02
2.4758379e-02
2.2091614e-02
1.7375126e-02
1.4354588e-02
1.2691649e-02
1.1811890e-02
1.0801353e-02
9.7331919e-03
9.7581132e-03
6.8802225e-03
-1.9788805e-04
-9.1046554e-03
-1.7398375e-02
-2.2521372e-02
-2.5456028e-02
-2.6498657e-02
-2.6502174e-02
-2.6637067e-02
-2.5559397e-02
-2.3377970e-02
-2.0455369e-02
-1.9498697e-02
-2.1072497e-02
-2.2588412e-02
-2.4934008e-02
-2.7523680e-02
-2.9792295e-02
-3.0892156e-02
-2.9998729e-02
-2.9539902e-02
-2.8881019e-02
-2.7545216e-02
-2.5253672e-02
-2.1107167e-02
-1.5844702e-02
-7.6359302e-03
1.3512534e-03
7.9979569e-03
1.2927132e-02
1.6358810e-02
2.0200339e-02
2.2937637e-02
2.3811450e-02
2.4630264e-02
2.3860186e-02
2.1784796e-02
1.8867727e-02
1.6094361e-02
1.4422771e-02
1.3257040e-02
1.2684717e-02
1.0879479e-02
1.0171611e-02
1.2339110e-02
1.3826369e-02
1.5272213e-02
1.6417256e-02
1.6742346e-02
1.7542169e-02
1.7344342e-02
1.5990300e-02
1.2789747e-02
8.5546625e-03
5.0141557e-03
1.1359328e-03
-2.7946008e-03
-7.2553681e-03
-1.0376355e-02
-9.9773428e-03
-7.7716304e-03
-5.0432438e-03
-4.1396417e-03
-3.3911286e-03
-6.3107582e-04
1.9317068e-03
4.8374204e-03
7.8601543e-03
1.0713414e-02
1.3526433e-02
1.5662252e-02
1.8649662e-02
2.1586543e-02
2.3704159e-02
2.4183121e-02
2.2560006e-02
2.0223719e-02
1.5763905e-02
1.1934341e-02
1.0041476e-02
7.3674240e-03
4.6747878e-03
8.3480138e-04
-3.0349661e-03
-5.5988648e-03
-8.3633611e-03
-1.0255335e-02
-1.1508608e-02
-1.1926570e-02
-1.1490272e-02
-1.0899803e-02
-9.4022999e-03
-8.2128026e-03
-6.9435904e-03
-6.2424657e-03
-6.6309073e-03
-6.0548431e-03
-6.4493705e-03
-7.0863900e-03
-7.0040474e-03
-7.2666011e-03
-6.5223180e-03
-6.1328034e-03
-6.7784674e-03
-8.1660265e-03
-8.7548847e-03
-6.6337465e-03
-4.8308389e-03
-4.2930510e-03
-4.6999615e-03
-5.6488569e-03
-5.1047674e-03
-4.6707347e-03
-5.2002381e-03
-6.6028182e-03
-7.6367393e-03
-6.1859577e-03
-4.5772030e-03
-3.6594776e-03
-3.8452945e-03
-5.6083031e-03
-7.4858147e-03
-9.6682327e-03
-1.0651898e-02
-1.1067534e-02
-1.2331190e-02
-1.3396932e-02
-1.4953636e-02
-1.6798439e-02
-2.0225027e-02
-2.4467594e-02
-2.5996214e-02
-2.5554759e-02
-2.3379891e-02
-2.1066367e-02
-1.9439515e-02
-1.6208180e-02
-1.3601590e-02
-1.2120971e-02
-1.0967858e-02
-1.0293721e-02
-1.0089786e-02
-1.2132576e-02
-1.5176541e-02
-1.9287994e-02
-2.3972488e-02
-2.7279162e-02
-2.9443584e-02
-2.8539712e-02
-2.4295313e-02
-1.5895270e-02
-1.4538673e-03
1.5609714e-02
3.1021117e-02
4.2665115e-02
5.0576677e-02
5.4101692e-02
5.2283418e-02
4.8037535e-02
4.1539903e-02
3.2861436e-02
2.5130867e-02
1.8731752e-02
1.3498819e-02
8.6219725e-03
4.9716236e-03
4.0619178e-03
4.1916472e-03
4.7023604e-03
3.5447047e-03
5.9976182e-04
-1.3947532e-03
-2.4810395e-03
-3.0075192e-03
-4.7919889e-03
-5.6325614e-03
-3.1665406e-03
-6.5802256e-04
8.3063931e-04
-5.5341384e-04
-3.4629154e-03
-4.1274218e-03
-3.1420958e-03
-1.5288966e-03
-1.8165695e-03
-2.5206730e-03
-1.3626660e-03
4.3494704e-04
3.7123372e-03
5.7943775e-03
5.7039281e-03
4.9045773e-03
3.0913709e-03
2.2617757e-03
1.2981731e-03
-1.7140669e-04
-2.3656155e-04
1.1589852e-03
3.8663259e-03
5.1974306e-03
5.1621808e-03
4.9913395e-03
4.4146902e-03
4.5153154e-03
3.9536396e-03
3.0120500e-03
2.6604462e-03
2.7857022e-03
3.5891057e-03
2.9454042e-03
1.9696756e-03
1.1970408e-03
-7.9282459e-04
-2.4633676e-03
-4.5519971e-03
-6.4049117e-03
-7.1994628e-03
-7.4669352e-03
-6.0555684e-03
-5.0901673e-03
-4.8481111e-03
-4.7931648e-03
-4.5851917e-03
-1.8331989e-03
1.2807294e-03
3.7531971e-03
6.2054026e-03
9.1329193e-03
1.3648580e-02
1.7157762e-02
1.8929167e-02
1.8777371e-02
1.7884410e-02
1.9332227e-02
2.0736262e-02
2.1551365e-02
2.2677773e-02
2.4007458e-02
2.6430596e-02
2.7942955e-02
2.9270762e-02
3.1788537e-02
3.5031795e-02
3.8759441e-02
4.0806111e-02
4.1458536e-02
4.0487793e-02
3.8316517e-02
3.6883416e-02
3.3198942e-02
2.5683365e-02
1.3608324e-02
-1.7119994e-03
-1.4532931e-02
-2.3391194e-02
-2.9294415e-02
-3.4054682e-02
-3.7646661e-02
-3.8850807e-02
-3.9814256e-02
-4.0230629e-02
-4.0106987e-02
-3.9601481e-02
-3.7570965e-02
-3.4847939e-02
-3.0717831e-02
-2.6959238e-02
-2.4355998e-02
-2.2412303e-02
-2.3484668e-02
-2.4670455e-02
-2.4400495e-02
-2.3520910e-02
-2.1693965e-02
-2.0148221e-02
-1.6953304e-02
-1.1864481e-02
-5.8838269e-03
2.8566304e-04
4.4442047e-03
6.8891333e-03
7.0065198e-03
5.9831871e-03
5.3238736e-03
3.7967720e-03
2.2584398e-03
-5.6392686e-04
-5.1317031e-03
-9.5693160e-03
-1.3547220e-02
-1.6622727e-02
-2.1415067e-02
-2.7487338e-02
-3.1368150e-02
-3.3552605e-02
-3.4215630e-02
-3.3976306e-02
-3.2135822e-02
-2.8016669e-02
-2.2237388e-02
-1.3415666e-02
-3.1735198e-03
6.9537373e-03
1.6100600e-02
2.3141607e-02
2.9547884e-02
3.3478811e-02
3.4036506e-02
3.3252537e-02
3.1888688e-02
3.0550554e-02
2.7706177e-02
2.3720101e-02
1.9445603e-02
1.4462329e-02
1.0683483e-02
6.8425744e-03
2.4132462e-03
-1.2437783e-03
-3.9061180e-03
-4.5956567e-03
-5.6007876e-03
-6.6825030e-03
-6.5950236e-03
-6.2763357e-03
-5.0334469e-03
-4.4183660e-03
-3.6080264e-03
-1.2138802e-03
1.9827542e-03
6.3268266e-03
9.5300661e-03
1.1216054e-02
1.1836925e-02
1.2107779e-02
1.4870987e-02
1.7434304e-02
1.8018903e-02
1.7272300e-02
1.5585977e-02
1.4701892e-02
1.3317966e-02
1.2193886e-02
1.2068473e-02
1.2595546e-02
1.4164114e-02
1.3002471e-02
1.0052108e-02
7.9706848e-03
6.1589874e-03
5.7621137e-03
5.5451166e-03
4.4343627e-03
1.9524048e-03
-1.7669855e-03
-4.5293644e-03
-6.4894700e-03
-7.7694712e-03
-9.4034274e-03
-1.1462447e-02
-1.1876909e-02
-1.1378012e-02
-9.7746403e-03
-7.9343963e-03
-7.3090531e-03
-7.7950755e-03
-1.0038908e-02
-1.2551075e-02
-1.5036760e-02
-1.7481238e-02
-1.9879704e-02
-2.3744711e-02
-2.6626336e-02
-2.7928892e-02
-2.8236940e-02
-2.6602740e-02
-2.3756455e-02
-1.8624758e-02
-1.2852878e-02
-7.6317513e-03
-2.6362594e-03
4.4485815e-04
3.0456147e-03
4.1338357e-03
4.6845439e-03
7.4419069e-03
9.8545701e-03
1.2176621e-02
1.3501682e-02
1.3797021e-02
1.5794500e-02
1.7750459e-02
1.8299840e-02
1.6887697e-02
1.5188874e-02
1.4398266e-02
1.1608072e-02
6.3375725e-03
-5.9777525e-04
-6.4723994e-03
-9.8266859e-03
-1.2757658e-02
-1.4572367e-02
-1.5510082e-02
-1.5544144e-02
-1.4442349e-02
-1.3980145e-02
-1.2748135e-02
-1.0932566e-02
-8.7143581e-03
-5.8372628e-03
-3.9944546e-03
-1.6439638e-03
7.8990620e-05
4.7743214e-04
7.5647490e-04
-2.6018756e-05
-6.4571235e-04
-1.1744172e-03
-1.1537689e-03
-5.3456667e-04
-4.6695882e-04
4.9017071e-04
1.5904165e-03
3.1121405e-03
4.9881770e-03
5.1561094e-03
4.8786850e-03
4.2329669e-03
3.3140171e-03
2.2903672e-03
6.9207809e-04
-4.7819779e-04
-2.9919544e-03
-5.2242456e-03
-4.4551084e-03
-2.5415231e-03
-7.3743418e-04
-1.3105840e-03
-3.3137200e-03
-4.8970126e-03
-6.4098240e-03
-6.5008896e-03
-6.5121314e-03
-7.0080314e-03
-7.3056138e-03
-6.6348647e-03
-4.4709089e-03
-3.7521328e-03
-4.0073227e-03
-3.5107456e-03
-1.5281236e-03
2.2039930e-03
5.2225131e-03
8.5931791e-03
1.2000036e-02
1.4127749e-02
1.6745386e-02
1.8880262e-02
2.0074101e-02
1.9926295e-02
2.0614000e-02
2.4664994e-02
2.8616770e-02
3.1699703e-02
3.3262506e-02
3.2929835e-02
3.4397196e-02
3.7754071e-02
4.0976044e-02
4.1032239e-02
3.7897688e-02
3.5189169e-02
3.2510554e-02
2.8707104e-02
2.1907795e-02
1.1280116e-02
-7.2416516e-04
-1.1648852e-02
-1.8986646e-02
-2.4711795e-02
-3.0043312e-02
-3.3042367e-02
-3.4922227e-02
-3.5857831e-02
-3.7774584e-02
-4.0462408e-02
-4.0367964e-02
-3.8077005e-02
-3.3420336e-02
-2.8013223e-02
-2.2500417e-02
-1.6012483e-02
-1.0383858e-02
-5.1088113e-03
-1.5613107e-03
6.3141806e-04
3.8517907e-03
6.5974727e-03
8.0021953e-03
6.0687133e-03
1.7561095e-03
-1.5502757e-03
-3.7541797e-03
-4.0086759e-03
-4.0586380e-03
-4.5799198e-03
-3.7868677e-03
-2.8871652e-03
-1.6503518e-03
-6.9826388e-04
1.5098111e-04
2.0181324e-03
3.5825225e-03
5.7183886e-03
7.8501871e-03
9.6337993e-03
1.2088421e-02
1.4426695e-02
1.7280220e-02
1.9082224e-02
1.9057012e-02
1.8048363e-02
1.5949391e-02
1.3905264e-02
1.1260838e-02
8.5489538e-03
5.3224690e-03
1.7578230e-03
3.9687021e-04
-1.0487898e-03
-3.0458934e-03
-4.4566505e-03
-5.8915656e-03
-7.1321650e-03
-1.0091986e-02
-1.3922498e-02
-1.6914977e-02
-1.9710419e-02
-2.1398066e-02
-2.3516612e-02
-2.5899886e-02
-2.6620139e-02
-2.6174443e-02
-2.5531576e-02
-2.7118240e-02
-2.8820131e-02
-2.8329766e-02
-2.6862326e-02
-2.4021401e-02
-2.0134277e-02
-1.3774717e-02
-6.3815673e-03
-8.7414624e-04
3.3956761e-03
6.3219770e-03
9.8037294e-03
1.3577812e-02
1.7000075e-02
2.1353239e-02
2.3829712e-02
2.4387039e-02
2.4728455e-02
2.6310999e-02
3.0704485e-02
3.5478487e-02
4.0512258e-02
4.5754891e-02
5.0235266e-02
5.4526612e-02
5.6276048e-02
5.4192100e-02
4.8108301e-02
3.9126338e-02
2.9020650e-02
1.6702494e-02
1.5903513e-03
-1.5738917e-02
-3.0011183e-02
-3.7105192e-02
-4.0079836e-02
-4.1239173e-02
-4.2736372e-02
-4.3979692e-02
-4.3762291e-02
-4.5186596e-02
-4.8045525e-02
-5.1603241e-02
-5.5011450e-02
-5.7286577e-02
-5.9788423e-02
-6.0816626e-02
-6.1204447e-02
-6.2233239e-02
-6.1792423e-02
-6.0250238e-02
-5.7415615e-02
-5.3924577e-02
-4.8757719e-02
-3.9315300e-02
-2.5774195e-02
-7.0641496e-03
1.2628270e-02
2.7732357e-02
3.7976104e-02
4.3929326e-02
4.7951112e-02
4.9720786e-02
4.8991174e-02
4.8280227e-02
4.8079770e-02
4.8065769e-02
4.6268717e-02
4.2781952e-02
3.9218586e-02
3.6187201e-02
3.5093217e-02
3.3887905e-02
3.1831891e-02
2.9811018e-02
2.7863028e-02
2.7335487e-02
2.5159822e-02
1.9950387e-02
1.4206535e-02
9.2986179e-03
5.5048140e-03
5.7584089e-05
-5.3626187e-03
-8.3039678e-03
-9.5100401e-03
-7.9311843e-03
-6.1585425e-03
-4.9719132e-03
-3.6730644e-03
-2.5275300e-03
3.7162871e-04
2.8237539e-03
3.9367922e-03
4.5942001e-03
5.1193314e-03
5.9618116e-03
4.8803370e-03
3.6967671e-03
2.9766861e-03
7.1546743e-04
-1.8480877e-03
-5.3417178e-03
-8.2303772e-03
-8.9204683e-03
-8.8725671e-03
-8.0351467e-03
-7.1569836e-03
-6.6046758e-03
-6.7955827e-03
-6.8742232e-03
-5.0199921e-03
-3.6000070e-03
-3.5822404e-03
-4.7170031e-03
-5.7185849e-03
-4.4390262e-03
-3.2957248e-03
-2.7559333e-03
-1.7027214e-03
3.2963052e-04
2.6264021e-03
2.7930532e-03
2.3006907e-03
1.5571279e-03
1.6554412e-03
3.9951376e-03
6.0291013e-03
8.1692253e-03
1.0081439e-02
1.1986561e-02
1.4752980e-02
1.4972723e-02
1.2367634e-02
8.2235442e-03
3.9813220e-03
8.3352875e-04
-2.0042076e-03
-3.5777911e-03
-5.4119653e-03
-7.7679253e-03
-8.2829910e-03
-7.8467281e-03
-6.3519097e-03
-4.7752087e-03
-3.2948426e-03
-1.6563314e-03
-1.8789557e-03
-2.3761452e-03
-3.7704901e-03
-5.4527447e-03
-4.4356517e-03
-1.7193478e-03
1.6270511e-03
3.1867989e-03
3.2348883e-03
2.2797681e-03
-4.8230557e-04
-2.4510617e-03
-3.7128679e-03
-4.3657893e-03
-5.0961921e-03
-7.3369451e-03
-9.5833157e-03
-1.2812222e-02
-1.5799499e-02
-1.6747357e-02
-1.6909667e-02
-1.6696696e-02
-1.8528777e-02
-2.1795150e-02
-2.4311551e-02
-2.5267406e-02
-2.3448471e-02
-2.1796952e-02
-2.0918804e-02
-1.9603296e-02
-1.8354305e-02
-1.5979670e-02
-1.3567858e-02
-1.1106673e-02
-7.1630219e-03
-1.4957792e-03
5.8993701e-03
1.2187430e-02
1.5867256e-02
1.6873404e-02
1.6525086e-02
1.7403309e-02
1.7843892e-02
1.7178916e-02
1.6076442e-02
1.5214492e-02
1.5851642e-02
1.5894857e-02
1.5059612e-02
1.4038707e-02
1.3292653e-02
1.3349875e-02
1.1901632e-02
9.2989591e-03
6.7462267e-03
5.6481071e-03
6.7824370e-03
7.1769336e-03
6.9516254e-03
6.4392626e-03
6.5057638e-03
8.7032737e-03
9.9756676e-03
9.7105553e-03
7.8867988e-03
5.6129161e-03
5.4305077e-03
6.6977826e-03
1.0140724e-02
1.3492506e-02
1.5327805e-02
1.7745746e-02
2.0928268e-02
2.5386746e-02
2.8562044e-02
3.0291845e-02
3.3562795e-02
3.7747586e-02
4.1705559e-02
4.3613212e-02
4.5127249e-02
4.7600274e-02
4.8945952e-02
4.8400884e-02
4.2495172e-02
3.2246914e-02
2.1396779e-02
9.8725418e-03
-3.7506727e-04
-9.6902304e-03
-1.8851017e-02
-2.7530397e-02
-3.6274191e-02
-4.4102805e-02
-5.2555867e-02
-6.0422237e-02
-6.4537171e-02
-6.4430892e-02
-5.9586718e-02
-5.3246778e-02
-4.6549357e-02
-3.8542207e-02
-2.9023232e-02
-1.7336871e-02
-7.5136854e-03
-6.2267716e-04
4.7024198e-03
8.6064170e-03
1.3266957e-02
1.6578702e-02
1.6818195e-02
1.5620181e-02
1.4215954e-02
1.3211253e-02
1.0857500e-02
7.9532468e-03
3.9915196e-03
-1.0315952e-03
-3.5151108e-03
-5.6427704e-03
-9.1835849e-03
-1.3164980e-02
-1.5906995e-02
-1.6517459e-02
-1.7517136e-02
-1.8035979e-02
-1.7270451e-02
-1.5646555e-02
-1.3394719e-02
-1.2683586e-02
-1.1341374e-02
-8.3795228e-03
-5.4636253e-03
-2.2858779e-03
1.9954501e-04
2.8565842e-03
4.7411088e-03
6.1106844e-03
9.8369735e-03
1.3449303e-02
1.5531771e-02
1.6160052e-02
1.6409236e-02
1.7148601e-02
1.5852119e-02
1.2747599e-02
7.8682806e-03
2.0149775e-03
-2.8398945e-03
-8.3896197e-03
-1.3675850e-02
-1.7096430e-02
-1.7463786e-02
-1.4437008e-02
-1.0945826e-02
-7.3734070e-03
-5.1543870e-03
-4.2158061e-03
-1.8945885e-03
1.5071481e-03
5.2304449e-03
7.3569327e-03
8.9147216e-03
1.0596278e-02
1.0143887e-02
8.6107512e-03
5.5706024e-03
2.0548479e-03
-6.4997960e-04
-4.2135242e-03
-6.8148364e-03
-8.7075853e-03
-1.0120537e-02
-9.7963858e-03
-8.2174208e-03
-4.8660718e-03
-2.5397848e-03
-2.0877712e-03
-2.1027997e-03
-2.7812916e-03
-2.9621958e-03
-4.9041158e-03
-8.6391241e-03
-1.1687176e-02
-1.3672548e-02
-1.2906081e-02
-1.1361966e-02
-1.0391891e-02
-9.5790117e-03
-9.2848313e-03
-7.9135705e-03
-6.6116255e-03
-5.0937447e-03
-3.4943405e-03
-2.7418759e-03
-5.6471515e-04
8.1307082e-04
7.7380992e-04
7.6988517e-04
1.5150921e-03
4.5059895e-03
6.9585912e-03
8.5775845e-03
9.7569403e-03
9.6997443e-03
9.4285949e-03
7.7549015e-03
5.7811690e-03
3.8016627e-03
1.9963907e-03
2.5994017e-03
3.4989812e-03
4.0499016e-03
3.6551595e-03
2.0479560e-03
1.9432881e-03
3.6158962e-03
6.2555678e-03
7.3786669e-03
6.7909786e-03
6.4378922e-03
6.5473775e-03
7.9853227e-03
9.0257379e-03
9.9351697e-03
1.2502112e-02
1.4788264e-02
1.5731736e-02
1.4431032e-02
1.2591201e-02
1.1547786e-02
1.0214991e-02
9.7322414e-03
8.9680800e-03
7.1101915e-03
4.4627895e-03
1.6186902e-03
1.1200024e-03
1.5595179e-03
1.7641936e-03
2.1847070e-03
2.7969054e-03
5.8407456e-03
9.6554350e-03
1.2108818e-02
1.2814929e-02
1.2016281e-02
1.3810608e-02
1.8334088e-02
2.2828892e-02
2.6007725e-02
2.8659216e-02
3.2351572e-02
3.4449203e-02
3.5296308e-02
3.5262035e-02
3.1995742e-02
2.6691310e-02
1.7991743e-02
4.3413397e-03
-1.2869516e-02
-2.8217167e-02
-3.6945261e-02
-4.2515485e-02
-4.6316157e-02
-4.7906211e-02
-4.7890751e-02
-4.5909668e-02
-4.5076890e-02
-4.6463989e-02
-4.8899354e-02
-5.1642340e-02
-5.3624645e-02
-5.5566736e-02
-5.7359233e-02
-5.9960669e-02
-6.2784425e-02
-6.3016440e-02
-6.1124323e-02
-5.6599065e-02
-5.0677374e-02
-4.4806272e-02
-3.6306813e-02
-2.5049230e-02
-9.9275059e-03
7.4404685e-03
2.2287315e-02
3.4132243e-02
4.2111391e-02
4.7178081e-02
4.8787282e-02
4.6516312e-02
4.3868582e-02
4.0571662e-02
3.6162716e-02
3.0215488e-02
2.3986784e-02
1.9903799e-02
1.6106794e-02
1.2924400e-02
1.0517078e-02
8.9713430e-03
8.8807964e-03
8.3449459e-03
7.9671028e-03
6.5721007e-03
4.0397185e-03
2.5372611e-03
7.8750072e-04
-9.4598168e-04
-2.2397075e-03
-1.8631999e-03
4.5348497e-04
2.2267764e-03
3.7018809e-03
3.9078664e-03
4.1987496e-03
6.6609437e-03
9.0549301e-03
1.1062010e-02
1.1213079e-02
9.1782995e-03
6.5896628e-03
4.2319306e-03
3.3826815e-03
1.2311376e-03
-2.5827230e-03
-6.4812076e-03
-1.0081751e-02
-1.1405418e-02
-1.2640777e-02
-1.3875242e-02
-1.3141322e-02
-1.0801848e-02
-6.4473180e-03
-1.8043246e-03
3.2211649e-03
8.0009807e-03
1.0286377e-02
1.1468871e-02
1.0787467e-02
9.2989796e-03
8.8750646e-03
9.0783497e-03
1.1273709e-02
1.3311306e-02
1.4290988e-02
1.5485840e-02
1.6890359e-02
1.9932344e-02
2.3847440e-02
2.7261950e-02
2.9586657e-02
3.3365746e-02
3.9035025e-02
4.1115642e-02
3.9051881e-02
3.3135296e-02
2.3307391e-02
1.1243669e-02
-2.6167326e-03
-1.4715435e-02
-2.3861964e-02
-2.9850492e-02
-3.0791041e-02
-2.9999822e-02
-2.9569429e-02
-2.9651828e-02
-2.9249423e-02
-2.6245722e-02
-2.2832104e-02
-1.9437868e-02
-1.6581341e-02
-1.5133136e-02
-1.3239743e-02
-1.1793576e-02
-1.1828151e-02
-1.3823646e-02
-1.6088946e-02
-1.6097837e-02
-1.4522630e-02
-1.1504558e-02
-8.5340263e-03
-5.8619702e-03
-1.8935657e-03
2.4312994e-03
6.0850796e-03
6.6422759e-03
4.6354530e-03
2.6866854e-03
8.4423943e-04
-2.9888836e-04
-3.0172883e-03
-7.3455620e-03
-1.1107200e-02
-1.4525960e-02
-1.6821945e-02
-1.8905922e-02
-1.9806379e-02
-1.8460293e-02
-1.6367572e-02
-1.3892580e-02
-1.3948565e-02
-1.6642751e-02
-1.9539413e-02
-2.1976475e-02
-2.1769666e-02
-2.0063136e-02
-1.7401730e-02
-1.2748251e-02
-7.2260289e-03
-1.0333161e-03
3.7505455e-03
7.3627781e-03
1.1179486e-02
1.4448733e-02
1.7716779e-02
1.9202238e-02
1.8190766e-02
1.5539319e-02
1.3094794e-02
1.3607441e-02
1.4434732e-02
1.3858113e-02
1.1912640e-02
9.3504303e-03
8.6589331e-03
7.7376306e-03
5.9715217e-03
5.0044856e-03
5.1891632e-03
6.3454541e-03
6.2056526e-03
5.6367234e-03
5.5753398e-03
5.0672273e-03
3.7644534e-03
1.3677844e-03
3.4264868e-04
4.1913215e-04
1.0924398e-03
3.3436101e-03
4.5383859e-03
5.4444811e-03
6.9447831e-03
8.8911552e-03
1.1616007e-02
1.2711076e-02
1.3197615e-02
1.3126657e-02
1.2147740e-02
1.2252895e-02
1.2937007e-02
1.3389395e-02
1.1795299e-02
8.9383033e-03
6.8728954e-03
5.0178447e-03
3.9666801e-03
1.9150451e-03
-6.6485965e-04
-1.2239920e-03
-1.9138489e-03
-2.5185108e-03
-2.9470362e-03
-2.9176571e-03
-1.3911568e-03
-1.2661563e-05
2.7642418e-03
6.8201057e-03
1.0999476e-02
1.5270464e-02
1.8597584e-02
2.1585059e-02
2.2301711e-02
2.2243527e-02
2.3782226e-02
2.5078076e-02
2.6746315e-02
2.6837982e-02
2.4280191e-02
2.0264525e-02
1.5670616e-02
1.1639387e-02
4.3734770e-03
-5.3189695e-03
-1.3613134e-02
-2.0534185e-02
-2.3901996e-02
-2.5823936e-02
-2.7417166e-02
-2.6619855e-02
-2.4777957e-02
-2.1707679e-02
-1.9251577e-02
-1.7473343e-02
-1.4566795e-02
-1.1772360e-02
-9.5537301e-03
-9.7411531e-03
-1.0563393e-02
-9.7654399e-03
-8.9110145e-03
-7.5550569e-03
-7.2063687e-03
-6.5646635e-03
-3.2124818e-03
8.9048527e-04
5.5177364e-03
8.9962517e-03
1.0095670e-02
9.6140977e-03
8.6851472e-03
7.9481189e-03
5.6820883e-03
3.3625605e-03
1.1986879e-03
-1.2488667e-03
-1.6831521e-03
-2.0011358e-03
-3.2380280e-03
-4.9043058e-03
-6.3762123e-03
-6.3529877e-03
-6.8369214e-03
-7.7890284e-03
-8.4279927e-03
-8.1999467e-03
-6.9955076e-03
-7.4263440e-03
-8.1755446e-03
-8.6697780e-03
-8.8410252e-03
-6.7782872e-03
-4.6392270e-03
-3.5690073e-03
-4.1289229e-03
-6.1415608e-03
-7.4061675e-03
-8.0325013e-03
-8.3859724e-03
-1.0357524e-02
-1.2833266e-02
-1.3267457e-02
-1.5242262e-02
-1.9427045e-02
-2.4593933e-02
-3.0068148e-02
-3.4002302e-02
-3.7355152e-02
-4.0864789e-02
-4.5185989e-02
-4.7843436e-02
-4.6854042e-02
-4.5056784e-02
-4.2034741e-02
-3.8387471e-02
-3.4100370e-02
-2.5909388e-02
-1.1831904e-02
6.9324871e-03
2.2598151e-02
3.2098468e-02
3.7957016e-02
4.1041329e-02
4.3278264e-02
4.3564015e-02
4.2284746e-02
4.1075388e-02
3.9455710e-02
4.0359507e-02
4.2582839e-02
4.3867699e-02
4.5302741e-02
4.5557941e-02
4.4337456e-02
4.0777465e-02
3.6519403e-02
3.3225776e-02
2.8826985e-02
2.5161891e-02
2.1997216e-02
1.7856058e-02
1.3458316e-02
7.7842521e-03
2.6455512e-03
-2.2110959e-04
-1.3251545e-03
-2.3216209e-03
-4.1303413e-03
-4.7233903e-03
-5.1337281e-03
-5.4319411e-03
-4.4042737e-03
-2.9005905e-03
-9.8695707e-04
1.9218173e-04
1.8870450e-03
3.9765551e-03
5.3432064e-03
8.0218197e-03
1.0671086e-02
1.2973011e-02
1.4906964e-02
1.5957730e-02
1.6533831e-02
1.4206701e-02
1.0000145e-02
4.6163285e-03
-3.6008425e-03
-1.2667489e-02
-2.1028927e-02
-2.6944265e-02
-3.0333219e-02
-3.1419640e-02
-2.8658182e-02
-2.4177742e-02
-1.8361659e-02
-1.3029213e-02
-1.0086178e-02
-7.1776903e-03
-5.9876440e-03
-6.9777483e-03
-8.9611508e-03
-1.0544147e-02
-9.8191341e-03
-9.2041028e-03
-9.0069233e-03
-8.0041062e-03
-5.7411612e-03
-1.4051612e-03
3.1295655e-03
7.1012411e-03
8.9299394e-03
7.9051414e-03
5.5812142e-03
1.1845176e-03
-3.3538409e-03
-7.2729546e-03
-1.0177714e-02
-1.1256853e-02
-1.3074161e-02
-1.5410227e-02
-1.8947694e-02
-2.3137319e-02
-2.5042235e-02
-2.5790146e-02
-2.6378618e-02
-2.8234273e-02
-3.0693190e-02
-3.0689384e-02
-2.9060636e-02
-2.6794624e-02
-2.5284564e-02
-2.3329582e-02
-1.8634915e-02
-1.3384672e-02
-7.1521858e-03
9.8071876e-05
9.0221928e-03
2.0515338e-02
3.1066950e-02
3.9330986e-02
4.3041379e-02
4.2677721e-02
4.1612948e-02
3.9393410e-02
3.5974286e-02
3.0749845e-02
2.5923464e-02
2.3477576e-02
2.2043557e-02
2.2828606e-02
2.4255769e-02
2.5222616e-02
2.7033531e-02
2.8994295e-02
3.0940219e-02
3.0930155e-02
2.9122740e-02
2.6873787e-02
2.3719248e-02
2.0266006e-02
1.3778153e-02
4.1938470e-03
-4.4091868e-03
-9.7769300e-03
-1.1312083e-02
-1.3281238e-02
-1.6544664e-02
-1.8216421e-02
-1.9075436e-02
-1.9302085e-02
-1.9548691e-02
-1.9649755e-02
-1.9322023e-02
-1.8678732e-02
-1.7305034e-02
-1.7729576e-02
-1.9548177e-02
-2.0969336e-02
-2.1697454e-02
-2.0555784e-02
-1.8772322e-02
-1.6429053e-02
-1.4236795e-02
-1.2920005e-02
-1.0815695e-02
-1.0557404e-02
-1.2664089e-02
-1.5353421e-02
-1.7064250e-02
-1.5971299e-02
-1.5429129e-02
-1.5858746e-02
-1.5280334e-02
-1.3650729e-02
-1.0646883e-02
-8.6023823e-03
-7.5256209e-03
-6.7304922e-03
-5.4513262e-03
-2.2231082e-03
-1.0287129e-03
-2.9171854e-03
-6.4238889e-03
-1.1387636e-02
-1.5694051e-02
-1.9434888e-02
-2.2214174e-02
-2.3490167e-02
-2.3497736e-02
-2.2022503e-02
-2.0524480e-02
-1.6437331e-02
-9.5006236e-03
-3.6706352e-03
5.0536137e-04
2.8815937e-03
5.1851130e-03
7.5616796e-03
1.0145688e-02
1.4121647e-02
1.6540444e-02
1.6848582e-02
1.5538908e-02
1.3769757e-02
1.3035813e-02
1.1076861e-02
7.9324597e-03
4.2517665e-03
1.2967736e-03
3.1808667e-04
-1.1135211e-03
-2.8788811e-03
-4.6198632e-03
-5.5462878e-03
-4.3542161e-03
-3.4949339e-03
-2.3043786e-03
4.8110962e-05
3.0218746e-03
7.5320649e-03
1.2400882e-02
1.7491284e-02
2.0907622e-02
2.2488588e-02
2.4354496e-02
2.4778640e-02
2.4357314e-02
2.2815570e-02
2.0742049e-02
2.0453876e-02
2.0630369e-02
2.1520277e-02
2.2544853e-02
2.3148494e-02
2.3864877e-02
2.4083329e-02
2.4320731e-02
2.3257336e-02
2.2076621e-02
2.1956894e-02
1.9212331e-02
1.3240970e-02
5.1465211e-03
-2.1906663e-03
-6.8715359e-03
-1.0765714e-02
-1.3824708e-02
-1.7442184e-02
-2.1582240e-02
-2.4357858e-02
-2.5488516e-02
-2.4661157e-02
-2.4889432e-02
-2.6529960e-02
-2.7446047e-02
-2.7297317e-02
-2.5181409e-02
-2.3115071e-02
-2.1913489e-02
-2.1800072e-02
-2.2725317e-02
-2.2405805e-02
-2.2135581e-02
-2.0891355e-02
-1.7438350e-02
-1.2079491e-02
-2.8778188e-03
6.7423816e-03
1.3997412e-02
1.8616430e-02
1.9825467e-02
2.0399314e-02
2.0854090e-02
2.1221569e-02
2.1264116e-02
1.9188207e-02
1.5727367e-02
1.0068964e-02
4.0014456e-03
-4.0668157e-04
-3.4922786e-03
-3.1117461e-03
-1.5157747e-03
-3.7277690e-04
1.3036390e-03
3.3826818e-03
7.2717896e-03
1.0831372e-02
1.2038236e-02
1.0869298e-02
8.1096581e-03
6.1325081e-03
4.2736569e-03
3.2751272e-03
3.0572894e-03
2.8316511e-03
5.2469939e-03
9.1085456e-03
1.2870929e-02
1.5223335e-02
1.6112555e-02
1.7873350e-02
1.9352613e-02
2.1015916e-02
2.2112616e-02
2.1290955e-02
2.0153633e-02
1.7695730e-02
1.5268489e-02
1.3840889e-02
1.1993066e-02
1.0461126e-02
7.3060327e-03
2.6847091e-03
-1.6597868e-03
-5.7360954e-03
-9.9388721e-03
-1.6298444e-02
-2.2204215e-02
-2.5956579e-02
-2.7948119e-02
-2.7190928e-02
-2.6035181e-02
-2.4936166e-02
-2.3432647e-02
-2.0498254e-02
-1.5622098e-02
-1.2073161e-02
-9.0281816e-03
-5.4068553e-03
-1.5601192e-03
2.9787858e-03
6.3154857e-03
8.9430462e-03
1.0643251e-02
1.1320746e-02
1.1563791e-02
9.0917161e-03
6.1688041e-03
4.1776821e-03
1.8602782e-03
-6.2219942e-04
-4.8614122e-03
-9.9512521e-03
-1.4959371e-02
-1.8393656e-02
-1.7948000e-02
-1.5779266e-02
-1.3704599e-02
-1.3999746e-02
-1.5346671e-02
-1.4310172e-02
-1.4276526e-02
-1.6652001e-02
-1.9841796e-02
-2.1367693e-02
-1.9876916e-02
-1.8757282e-02
-1.8089674e-02
-1.7410898e-02
-1.6224198e-02
-1.2889921e-02
-9.0034678e-03
-5.3772158e-03
-3.1472474e-03
5.5253064e-05
7.6108262e-03
1.5882480e-02
2.1518112e-02
2.3127698e-02
2.2044272e-02
2.0809531e-02
1.9189940e-02
1.7866863e-02
1.4676784e-02
9.1033759e-03
4.8730071e-03
2.4508489e-03
1.4600312e-03
1.8774183e-04
-1.3055640e-03
-1.5981907e-03
-1.1042238e-03
1.3111540e-03
3.6595153e-03
5.7701377e-03
8.7496678e-03
1.0857423e-02
1.3354043e-02
1.4327976e-02
1.2312059e-02
8.9836329e-03
5.4494889e-03
4.0571060e-03
3.3500662e-03
2.2676266e-03
1.1794999e-03
4.7763278e-04
2.7260865e-03
5.2688505e-03
6.2245389e-03
7.4965965e-03
8.8693546e-03
9.6669832e-03
8.0260595e-03
5.5405950e-03
4.2134325e-03
2.8241164e-03
1.8207189e-03
1.8573023e-05
-1.9096748e-03
-2.6128482e-03
-3.6649522e-03
-3.8806839e-03
-3.8156840e-03
-4.8737077e-03
-6.6617309e-03
-8.0195767e-03
-7.6931015e-03
-8.1723292e-03
-8.8627128e-03
-9.0403980e-03
-9.2464360e-03
-6.6688441e-03
-2.6671950e-03
1.8265777e-03
6.3719176e-03
9.8535046e-03
1.2888411e-02
1.3380806e-02
1.2868842e-02
1.2467622e-02
1.1337631e-02
1.1059323e-02
1.0165371e-02
9.0996425e-03
8.7342900e-03
8.5052106e-03
8.8222217e-03
7.0091645e-03
2.7285388e-03
-2.5125203e-03
-7.2683725e-03
-9.3865162e-03
-9.9582015e-03
-8.4102519e-03
-4.7861125e-03
-1.2425756e-03
1.6477975e-03
3.2705492e-03
5.1395965e-03
6.0988233e-03
5.2841865e-03
5.3109782e-03
4.7099687e-03
4.2664946e-03
5.2870352e-03
6.8516442e-03
9.6314706e-03
1.2397649e-02
1.4805026e-02
1.6051988e-02
1.6677609e-02
1.8694954e-02
1.9977078e-02
1.9010883e-02
1.3894645e-02
6.4793173e-03
1.5355797e-03
-2.3478760e-03
-6.0321847e-03
-1.0191597e-02
-1.4061239e-02
-1.5396121e-02
-1.6287806e-02
-1.7124359e-02
-1.8393695e-02
-1.8892961e-02
-1.6402607e-02
-1.2998973e-02
-8.8002726e-03
-5.8061074e-03
-4.6770554e-03
-2.4870291e-03
-3.4433820e-04
1.2238472e-03
5.2679264e-04
-2.1541057e-03
-3.1037476e-03
-2.8343861e-03
-2.9527657e-03
-5.8045076e-03
-9.7902117e-03
-1.1903542e-02
-1.4138720e-02
-1.5850995e-02
-1.6847762e-02
-1.7554252e-02
-1.7630861e-02
-1.8389740e-02
-1.8359134e-02
-1.8965102e-02
-2.1029044e-02
-2.2138775e-02
-2.3214964e-02
-2.5276324e-02
-2.9421802e-02
-3.4120876e-02
-3.7565907e-02
-3.9608479e-02
-3.9041402e-02
-3.8035811e-02
-3.5972953e-02
-3.0341928e-02
-2.2299369e-02
-1.2382208e-02
-1.2549261e-03
1.0810487e-02
2.0929095e-02
2.8219235e-02
3.5856914e-02
4.1209251e-02
4.3206171e-02
4.3682573e-02
4.2994536e-02
4.2528379e-02
4.1769999e-02
4.1531539e-02
4.1743741e-02
4.1177801e-02
4.1632805e-02
4.2421799e-02
4.2652775e-02
4.1699602e-02
3.9901480e-02
3.9064794e-02
3.6292776e-02
3.0869004e-02
2.3641864e-02
1.5154251e-02
8.2048455e-03
2.7274162e-04
-8.9580912e-03
-1.5628892e-02
-1.9128179e-02
-2.0158846e-02
-1.9730770e-02
-1.7396668e-02
-1.5252064e-02
-1.4336476e-02
-1.2472086e-02
-1.1129755e-02
-9.9462927e-03
-8.8651619e-03
-8.5302536e-03
-7.3497315e-03
-6.1791433e-03
-3.5585978e-03
6.9508986e-04
3.6045432e-03
4.4753271e-03
2.9741632e-03
9.6025006e-04
-1.2897322e-03
-4.2661886e-03
-6.9624520e-03
-1.0352996e-02
-1.2484093e-02
-1.3340895e-02
-1.4329451e-02
-1.4227359e-02
-1.4242222e-02
-1.3473238e-02
-1.1902566e-02
-1.0287726e-02
-7.4720706e-03
-5.1952954e-03
-3.3424610e-03
-1.6080979e-03
3.6568658e-04
3.0436730e-03
4.2280453e-03
4.6980484e-03
5.0211884e-03
5.8543262e-03
7.8853147e-03
9.4765633e-03
1.1235975e-02
1.2147382e-02
1.1390075e-02
9.4372405e-03
6.9190298e-03
5.9993391e-03
4.1923872e-03
1.5762147e-03
-1.7436109e-04
-3.2139745e-03
-5.1756815e-03
-5.7688682e-03
-6.0617665e-03
-4.7659591e-03
-3.1258862e-03
-2.1600952e-03
-3.4529327e-03
-5.4540289e-03
-6.1762629e-03
-6.8225399e-03
-6.1156113e-03
-5.6223405e-03
-6.0238862e-03
-5.4503457e-03
-4.1434307e-03
-1.2737856e-03
1.2821090e-03
3.1691841e-03
5.4320008e-03
6.9303650e-03
8.4012876e-03
8.1268813e-03
5.6678132e-03
2.4077953e-03
-1.4073531e-03
-4.8072814e-03
-9.2077462e-03
-1.3231915e-02
-1.5405630e-02
-1.7135804e-02
-1.7705522e-02
-1.8534931e-02
-2.0045185e-02
-2.1399109e-02
-2.2340212e-02
-2.1958082e-02
-2.3184578e-02
-2.6513678e-02
-3.0207947e-02
-3.3279426e-02
-3.3728128e-02
-3.2512738e-02
-2.8660089e-02
-2.0703105e-02
-8.9395729e-03
4.9429660e-03
1.5345439e-02
2.2026047e-02
2.7259949e-02
3.1139313e-02
3.4125099e-02
3.4488109e-02
3.3311167e-02
3.1503072e-02
2.8498698e-02
2.6582632e-02
2.5102112e-02
2.3145751e-02
2.1158722e-02
2.0051354e-02
2.0715355e-02
2.1077226e-02
2.1490527e-02
2.1459427e-02
2.0601905e-02
2.0867902e-02
2.0375558e-02
1.7968099e-02
1.2046045e-02
2.7074716e-03
-6.5216997e-03
-1.3894666e-02
-1.6896260e-02
-1.7661757e-02
-1.8467427e-02
-1.6759643e-02
-1.2770315e-02
-7.3160868e-03
-2.3591001e-03
1.7352723e-03
5.6798076e-03
7.9215019e-03
8.7424734e-03
7.0148283e-03
3.3416892e-03
-1.1117986e-04
-3.3782025e-03
-5.7975943e-03
-8.9436412e-03
-1.2354365e-02
-1.3516839e-02
-1.2883004e-02
-1.0720389e-02
-9.1731176e-03
-8.7648918e-03
-8.4244325e-03
-8.8894922e-03
-8.1360199e-03
-6.4106145e-03
-4.6427924e-03
-2.4910658e-03
-1.4483422e-03
-1.0854572e-03
-1.5638139e-03
-2.4916784e-03
-3.4178973e-03
-4.7309681e-03
-5.5055275e-03
-7.0711959e-03
-9.5357267e-03
-1.2645720e-02
-1.6469285e-02
-1.9053335e-02
-2.1234382e-02
-2.3224589e-02
-2.4698310e-02
-2.5322665e-02
-2.3299147e-02
-1.9779062e-02
-1.4000038e-02
-5.4936905e-03
3.4293455e-03
1.1217909e-02
1.5754599e-02
1.8986310e-02
2.2279228e-02
2.4565960e-02
2.6518381e-02
2.7234785e-02
2.8057206e-02
2.9418444e-02
3.0583356e-02
3.2285269e-02
3.3387693e-02
3.5121970e-02
3.6323150e-02
3.6688601e-02
3.8820587e-02
4.0578624e-02
4.0706846e-02
3.7489535e-02
3.1471155e-02
2.5049012e-02
1.6863018e-02
7.8000417e-03
-2.3314195e-03
-1.2417733e-02
-1.9566266e-02
-2.4287858e-02
-2.5924891e-02
-2.6201182e-02
-2.5699418e-02
-2.2524532e-02
-1.8231578e-02
-1.3872405e-02
-1.1673815e-02
-1.0827546e-02
-7.9961823e-03
-3.9010778e-03
8.9123552e-04
4.6604920e-03
7.9178450e-03
1.1633998e-02
1.4286063e-02
1.7575143e-02
2.0545549e-02
2.1865670e-02
2.1679434e-02
1.8306956e-02
1.1356111e-02
1.1495159e-03
-8.4235647e-03
-1.5845643e-02
-2.2571364e-02
-2.7466636e-02
-3.2407942e-02
-3.5858925e-02
-3.5514784e-02
-3.3855873e-02
-3.0883371e-02
-2.7423776e-02
-2.4103616e-02
-2.1071031e-02
-1.8734158e-02
-1.6463099e-02
-1.6487303e-02
-1.8142337e-02
-1.9075896e-02
-1.8176420e-02
-1.4555808e-02
-1.0649774e-02
-6.7987561e-03
-2.7311000e-03
1.3731027e-03
5.6538929e-03
7.7953282e-03
8.7891937e-03
9.3671405e-03
9.4977928e-03
1.0722268e-02
1.1039313e-02
9.4864455e-03
5.6836809e-03
3.4855175e-04
-3.8909618e-03
-8.1696406e-03
-1.2302421e-02
-1.6332246e-02
-2.0296612e-02
-2.3061635e-02
-2.6707279e-02
-3.0395043e-02
-3.3737943e-02
-3.5879020e-02
-3.4576571e-02
-3.1855437e-02
-2.8857422e-02
-2.7113589e-02
-2.4990121e-02
-1.8394541e-02
-8.7176801e-03
1.5229893e-03
9.2804738e-03
1.4440352e-02
1.8609200e-02
2.1485979e-02
2.5205616e-02
2.8505280e-02
2.9783062e-02
3.0692259e-02
3.1359978e-02
3.1663459e-02
2.9767160e-02
2.6597557e-02
2.4229116e-02
2.1840188e-02
2.0118663e-02
1.8135983e-02
1.7011685e-02
1.8560481e-02
2.1035359e-02
2.3298057e-02
2.2721992e-02
1.9011870e-02
1.3604191e-02
7.5580236e-03
2.4234119e-03
-2.9339935e-03
-6.9935805e-03
-9.3352164e-03
-1.0589215e-02
-9.2006280e-03
-7.5516453e-03
-6.0214339e-03
-4.7261277e-03
-3.6285988e-03
-7.4708590e-04
1.8089813e-03
3.8772124e-03
5.9444742e-03
8.0725293e-03
1.1594983e-02
1.4867957e-02
1.6833010e-02
1.6382886e-02
1.4009852e-02
1.2121999e-02
1.0082027e-02
7.6222622e-03
2.9707784e-03
-3.3267770e-03
-7.4216578e-03
-1.0259679e-02
-1.2483927e-02
-1.4306799e-02
-1.4791666e-02
-1.2749559e-02
-9.8030459e-03
-5.4444197e-03
-1.5634158e-03
1.1952483e-03
5.2326482e-03
1.0675282e-02
1.7161825e-02
2.1295211e-02
2.3236698e-02
2.5311076e-02
2.6329901e-02
2.7044418e-02
2.5781415e-02
2.2913601e-02
2.1004251e-02
1.9017199e-02
1.7375945e-02
1.3589341e-02
6.8828950e-03
6.6475492e-04
-4.3453154e-03
-7.7367689e-03
-1.1943077e-02
-1.7074907e-02
-2.1335859e-02
-2.5823404e-02
-2.9498473e-02
-3.3250748e-02
-3.6313844e-02
-3.7502506e-02
-3.8589322e-02
-3.8807201e-02
-3.9698603e-02
-4.1161547e-02
-4.1052198e-02
-4.0047969e-02
-3.8055983e-02
-3.5657991e-02
-3.1847100e-02
-2.7205769e-02
-2.3048554e-02
-1.7751303e-02
-1.2177363e-02
-5.5141724e-03
1.7214228e-03
6.9339319e-03
1.0771007e-02
1.3921227e-02
1.7886733e-02
2.1423973e-02
2.2980209e-02
2.3998967e-02
2.3447820e-02
2.2093851e-02
2.0553936e-02
1.8617478e-02
1.7359520e-02
1.5182012e-02
1.2010136e-02
7.4352831e-03
2.2697188e-03
-8.1768847e-04
-2.4341683e-03
-2.2297347e-03
-1.4165095e-03
-5.4000751e-04
7.0695828e-04
3.1819800e-04
-6.5392855e-04
-2.3352076e-03
-3.3143488e-03
-1.5213746e-03
4.4162562e-04
1.8564634e-03
1.2085130e-03
-1.2360582e-03
-2.6515482e-03
-3.0570664e-03
-2.2444323e-03
-1.2581940e-03
7.8404136e-04
4.7206612e-03
8.4058159e-03
1.1150002e-02
1.1030534e-02
9.9546004e-03
1.0325119e-02
9.6892760e-03
8.2910213e-03
6.7369600e-03
6.0392018e-03
6.0393698e-03
5.2296785e-03
4.8730724e-03
4.2581804e-03
3.0371117e-03
9.1176369e-04
-1.9774409e-03
-3.5177052e-03
-5.5010526e-03
-7.9384663e-03
-8.8042400e-03
-7.6786833e-03
-4.3952470e-03
-8.8216813e-04
2.4246663e-03
4.5454448e-03
4.7339857e-03
4.8723853e-03
5.0333537e-03
5.8967327e-03
6.9091618e-03
8.1131713e-03
1.0511446e-02
1.0830863e-02
8.5186644e-03
4.5184897e-03
-7.7109591e-04
-5.1605941e-03
-8.7982106e-03
-1.1714684e-02
-1.4735749e-02
-1.7186034e-02
-1.6924426e-02
-1.6577421e-02
-1.7192265e-02
-1.9271138e-02
-2.2100464e-02
-2.3451952e-02
-2.4367497e-02
-2.4801752e-02
-2.5954012e-02
-2.7300656e-02
-2.7000788e-02
-2.6073179e-02
-2.4088369e-02
-2.2630192e-02
-2.1468537e-02
-1.9235982e-02
-1.7403894e-02
-1.4889252e-02
-1.1444937e-02
-5.6283408e-03
3.2483905e-03
1.1312690e-02
1.7020187e-02
1.9524289e-02
2.0096364e-02
2.1248116e-02
2.3842447e-02
2.8509259e-02
3.1710495e-02
3.2548103e-02
3.2822274e-02
3.2661938e-02
3.3164646e-02
3.2525454e-02
3.1245466e-02
3.0503434e-02
2.9697179e-02
2.9540437e-02
2.7801193e-02
2.5299655e-02
2.3097546e-02
2.0219037e-02
1.8033072e-02
1.4508425e-02
8.2498739e-03
-8.4690164e-05
-8.1787146e-03
-1.2686421e-02
-1.5376891e-02
-1.6671501e-02
-1.7277393e-02
-1.8429875e-02
-1.7599817e-02
-1.5378233e-02
-1.2952590e-02
-1.1110006e-02
-9.3366309e-03
-6.5235436e-03
-4.7699530e-03
-3.5830317e-03
-3.1383794e-03
-2.5134587e-03
7.7863705e-04
4.1327559e-03
6.1247897e-03
5.6165371e-03
3.0216649e-03
1.8631473e-03
2.4212708e-03
3.8886295e-03
3.7825695e-03
1.6416747e-03
-1.5147965e-04
-1.9779498e-03
-2.3921204e-03
-1.0334751e-03
9.6268706e-04
2.8892777e-03
4.4999989e-03
7.1834005e-03
7.8646549e-03
7.0304806e-03
7.6267158e-03
8.8821668e-03
1.2188740e-02
1.5201362e-02
1.7205545e-02
2.0310894e-02
2.2380834e-02
2.2465076e-02
2.0740976e-02
1.9653714e-02
1.8634999e-02
1.5241597e-02
1.1628649e-02
7.8452301e-03
4.7749042e-03
2.0729746e-03
-1.6685468e-03
-4.8181678e-03
-9.5061875e-03
-1.6447849e-02
-2.3644116e-02
-2.9982255e-02
-3.3684795e-02
-3.6547280e-02
-3.9540038e-02
-4.1770294e-02
-4.3001244e-02
-4.3166454e-02
-4.4570781e-02
-4.5552769e-02
-4.4867027e-02
-4.3540329e-02
-4.0227255e-02
-3.5902239e-02
-3.0332941e-02
-2.3589878e-02
-1.6247170e-02
-6.5952492e-03
3.6360471e-03
1.1924781e-02
1.6661510e-02
1.8689452e-02
2.0692175e-02
2.1892448e-02
2.2400856e-02
2.2174704e-02
2.0810238e-02
1.8948336e-02
1.4893974e-02
9.2672563e-03
4.1776760e-03
1.5472786e-03
3.4490075e-04
-3.3943961e-03
-8.8756458e-03
-1.5369755e-02
-2.0951109e-02
-2.3051500e-02
-2.3470808e-02
-2.2002146e-02
-1.8673949e-02
-1.2825857e-02
-3.1104832e-03
7.2604028e-03
1.5111566e-02
1.8727798e-02
1.9826008e-02
1.9975322e-02
1.8897870e-02
1.8784197e-02
1.8168127e-02
1.6754588e-02
1.6002178e-02
1.5292315e-02
1.6351375e-02
1.8306003e-02
2.1199065e-02
2.5472090e-02
2.9512929e-02
3.3817550e-02
3.5617818e-02
3.3771893e-02
3.0073293e-02
2.5545715e-02
2.1263754e-02
1.4806632e-02
6.1845628e-03
-3.1722312e-03
-1.2648746e-02
-1.9793541e-02
-2.5481767e-02
-2.9366110e-02
-3.1126567e-02
-3.1483336e-02
-2.9832877e-02
-2.9379638e-02
-3.0022327e-02
-2.9547822e-02
-2.8278526e-02
-2.6977433e-02
-2.6425744e-02
-2.4862423e-02
-2.2948332e-02
-2.1045489e-02
-1.8434525e-02
-1.6976635e-02
-1.5577220e-02
-1.4079306e-02
-1.1895256e-02
-7.9129339e-03
-4.7383527e-03
-2.5181537e-03
-1.3042111e-03
7.3392950e-04
5.8501957e-03
1.1113777e-02
1.4909212e-02
1.5234152e-02
1.2368657e-02
9.3224233e-03
6.3860071e-03
4.8543533e-03
4.3582606e-03
4.6846466e-03
6.4865166e-03
8.8539357e-03
1.2062426e-02
1.4412046e-02
1.5577076e-02
1.5952153e-02
1.4600704e-02
1.3151696e-02
1.0881880e-02
8.9705154e-03
9.6665605e-03
1.1368725e-02
1.3230263e-02
1.2942483e-02
1.0757360e-02
8.8709553e-03
7.3580693e-03
6.3364983e-03
4.0374597e-03
1.7323053e-03
1.1122682e-03
1.2844697e-03
2.2797808e-03
1.7076673e-03
-1.3859009e-04
-2.3078476e-03
-4.1221662e-03
-2.9281694e-03
-1.3926733e-03
-1.1566725e-03
-2.0872629e-03
-3.2768681e-03
-2.1112233e-03
-7.1747280e-04
3.4017258e-04
1.0419277e-03
1.7387563e-03
5.3863773e-03
9.7448404e-03
1.2964277e-02
1.3763667e-02
1.2320868e-02
1.2097069e-02
1.1392737e-02
8.3082232e-03
2.3417629e-03
-4.7426115e-03
-9.9414776e-03
-1.4435616e-02
-1.8388888e-02
-2.2782262e-02
-2.6825842e-02
-2.7511495e-02
-2.5883878e-02
-2.2685807e-02
-2.0341986e-02
-1.9321556e-02
-1.7278123e-02
-1.5628577e-02
-1.4350410e-02
-1.3828232e-02
-1.2878602e-02
-8.7791980e-03
-1.2441979e-03
1.0087808e-02
2.0148781e-02
2.6458256e-02
3.1515536e-02
3.5507621e-02
3.9330690e-02
4.1607919e-02
4.3305531e-02
4.6187237e-02
4.8366899e-02
5.0071910e-02
5.0084290e-02
4.8169714e-02
4.5772632e-02
4.3584588e-02
4.2320556e-02
3.9524557e-02
3.6454755e-02
3.5537747e-02
3.6309332e-02
3.8864065e-02
3.9382564e-02
3.6095953e-02
2.8253272e-02
1.3543821e-02
-3.9500785e-03
-1.9076194e-02
-2.9345300e-02
-3.5770996e-02
-4.0357924e-02
-4.2931056e-02
-4.5304407e-02
-4.6640391e-02
-4.7175181e-02
-4.9016366e-02
-5.0581779e-02
-5.2255726e-02
-5.2293183e-02
-4.9955183e-02
-4.8094184e-02
-4.6582496e-02
-4.6347178e-02
-4.7418941e-02
-4.9452434e-02
-5.1626707e-02
-5.1646182e-02
-5.0178771e-02
-4.5883746e-02
-3.8168228e-02
-2.6857517e-02
-1.2092508e-02
1.1318692e-06
7.3618166e-03
1.1514517e-02
1.4525513e-02
1.8539228e-02
2.0835659e-02
2.0835334e-02
1.9785678e-02
1.9827340e-02
2.2137061e-02
2.4644862e-02
2.8164676e-02
3.1976422e-02
3.5929792e-02
4.0669001e-02
4.3893373e-02
4.6008034e-02
4.6359831e-02
4.4439706e-02
4.1024430e-02
3.6195468e-02
3.0717857e-02
2.2020693e-02
1.0225333e-02
-2.3144940e-03
-1.4762668e-02
-2.4642611e-02
-3.2604511e-02
-3.8151325e-02
-4.0203327e-02
-4.0779759e-02
-4.0348614e-02
-4.0433098e-02
-4.0228009e-02
-3.8916167e-02
-3.7868881e-02
-3.5711102e-02
-3.3345107e-02
-3.0582501e-02
-2.7095281e-02
-2.4082748e-02
-2.0207949e-02
-1.7847902e-02
-1.7030336e-02
-1.5390665e-02
-1.3188721e-02
-9.0081451e-03
-3.1480314e-03
4.8069401e-03
1.3956422e-02
2.1307202e-02
2.6099489e-02
2.7138252e-02
2.5692476e-02
2.2795670e-02
2.0025948e-02
1.9395431e-02
1.8510923e-02
1.7934118e-02
1.7275690e-02
1.5574381e-02
1.5680408e-02
1.7330122e-02
1.9189900e-02
1.9704308e-02
1.9991958e-02
2.2841962e-02
2.5855137e-02
2.7470696e-02
2.7992175e-02
2.8160118e-02
2.8124419e-02
2.4626545e-02
1.6563661e-02
4.5616093e-03
-7.5735906e-03
-1.5245065e-02
-1.9505424e-02
-2.1117278e-02
-2.1671527e-02
-2.2456187e-02
-2.3890273e-02
-2.7357696e-02
-3.1080694e-02
-3.5602638e-02
-4.0556585e-02
-4.3585707e-02
-4.5846083e-02
-4.7516533e-02
-4.9185378e-02
-4.9984619e-02
-4.8611649e-02
-4.6509829e-02
-4.3293469e-02
-4.0559770e-02
-3.7567744e-02
-3.0000272e-02
-1.7431090e-02
-2.5809500e-04
1.7407570e-02
3.1636713e-02
4.2873752e-02
5.1892944e-02
5.9964782e-02
6.5331275e-02
6.8142531e-02
6.9878209e-02
6.9910211e-02
6.8826897e-02
6.4810778e-02
5.9262188e-02
5.4654987e-02
5.0118165e-02
4.6610348e-02
4.2648515e-02
3.7819182e-02
3.3971640e-02
3.1654192e-02
3.0907047e-02
2.8847036e-02
2.4733071e-02
1.8181472e-02
7.4475256e-03
-6.3665941e-03
-2.1216011e-02
-3.2046532e-02
-3.7603097e-02
-4.0062726e-02
-3.8975517e-02
-3.6828600e-02
-3.4078846e-02
-2.9662200e-02
-2.4832927e-02
-2.0796083e-02
-1.7906755e-02
-1.3692592e-02
-9.1851726e-03
-5.5953831e-03
-1.0208678e-03
2.2986125e-03
3.8193815e-03
4.0079524e-03
3.0878447e-03
2.2452754e-03
-4.1000901e-04
-3.8901613e-03
-7.4318129e-03
-1.0450221e-02
-1.0685570e-02
-1.0330756e-02
-1.0532093e-02
-1.2012452e-02
-1.4788437e-02
-1.6342463e-02
-1.6285270e-02
-1.4678626e-02
-1.3006850e-02
-1.1399247e-02
-8.9273879e-03
-6.8514366e-03
-5.4471644e-03
-6.0260808e-03
-7.1558404e-03
-6.5503725e-03
-5.4810384e-03
-3.5451463e-03
-1.7272129e-03
2.1744706e-04
3.7326802e-03
6.9839043e-03
9.4378224e-03
1.0034370e-02
9.7778624e-03
9.7807722e-03
8.5888831e-03
6.8968445e-03
2.9846317e-03
-2.0371430e-03
-5.3376195e-03
-7.8812797e-03
-9.5778575e-03
-1.2474643e-02
-1.6352792e-02
-1.8995393e-02
-2.0735304e-02
-2.1400890e-02
-2.2786329e-02
-2.4244220e-02
-2.4712655e-02
-2.5144262e-02
-2.4396237e-02
-2.4069698e-02
-2.4616553e-02
-2.4437284e-02
-2.2711204e-02
-1.9394515e-02
-1.6399140e-02
-1.1579107e-02
-3.0539513e-03
7.2459127e-03
1.6922514e-02
2.3396250e-02
2.7529057e-02
2.9291516e-02
2.9073362e-02
2.8355353e-02
2.4759094e-02
1.9899183e-02
1.5628771e-02
1.3071790e-02
1.3901189e-02
1.4108910e-02
1.3260783e-02
1.2573240e-02
1.2002269e-02
1.2396647e-02
1.2024647e-02
1.1107742e-02
9.3818823e-03
7.1857299e-03
6.0767118e-03
4.5295759e-03
2.5870684e-03
4.3397270e-04
-3.4985866e-04
1.7660377e-03
4.3668539e-03
7.5786974e-03
9.8359657e-03
1.0223252e-02
1.1018559e-02
1.1206765e-02
1.1088029e-02
1.0024209e-02
8.8706673e-03
9.9646676e-03
1.1569133e-02
1.2926031e-02
1.1768928e-02
9.4059291e-03
9.8324034e-03
1.2026953e-02
1.5254998e-02
1.6610179e-02
1.5850514e-02
1.5543233e-02
1.4195768e-02
1.0388957e-02
1.9349370e-03
-8.4238390e-03
-1.5908021e-02
-2.1226609e-02
-2.4450312e-02
-2.7370619e-02
-3.0988145e-02
-3.3353970e-02
-3.2979592e-02
-2.9763776e-02
-2.7955208e-02
-2.7759320e-02
-2.7059669e-02
-2.6218828e-02
-2.3146344e-02
-1.9557002e-02
-1.7845825e-02
-1.7057334e-02
-1.6765327e-02
-1.6415661e-02
-1.7362118e-02
-1.7775694e-02
-1.5238684e-02
-1.1212227e-02
-5.7345310e-03
2.2440343e-04
6.4171448e-03
1.1593342e-02
1.4701967e-02
1.7483915e-02
1.8111935e-02
1.7136225e-02
1.6702342e-02
1.7442777e-02
2.0496006e-02
2.3030608e-02
2.4276413e-02
2.5486955e-02
2.6773690e-02
2.8838663e-02
3.0082600e-02
3.0779755e-02
3.0837664e-02
2.9944419e-02
3.0096495e-02
3.0074876e-02
2.9108710e-02
2.5304191e-02
1.8290149e-02
1.1058355e-02
2.6049379e-03
-6.0666603e-03
-1.3734881e-02
-1.9690739e-02
-2.2591315e-02
-2.4420755e-02
-2.5429905e-02
-2.6049318e-02
-2.5467837e-02
-2.2687116e-02
-2.0829531e-02
-2.0584259e-02
-2.1703697e-02
-2.2519477e-02
-2.1727259e-02
-2.1630917e-02
-2.2194062e-02
-2.4248179e-02
-2.6288469e-02
-2.5742166e-02
-2.5180784e-02
-2.5139200e-02
-2.5131009e-02
-2.3083094e-02
-1.6672802e-02
-7.4788215e-03
3.1727751e-03
1.2098385e-02
1.7815729e-02
2.1429741e-02
2.3619944e-02
2.6025986e-02
2.5927321e-02
2.3018568e-02
1.9386577e-02
1.4851735e-02
1.1470223e-02
7.8620060e-03
4.1871614e-03
2.6105621e-03
1.9806874e-03
1.9506036e-03
4.1379021e-04
-1.7220435e-03
-2.2989944e-03
-3.4125534e-03
-5.5521359e-03
-8.4442200e-03
-1.0210799e-02
-1.0305213e-02
-9.7102255e-03
-7.4475860e-03
-5.6361305e-03
-4.4663785e-03
-2.3905392e-03
8.6897892e-04
5.5345413e-03
8.7611436e-03
1.1261921e-02
1.4363405e-02
1.6806435e-02
1.9457822e-02
2.1958044e-02
2.4600621e-02
2.6750124e-02
2.7842889e-02
2.9568054e-02
3.0243710e-02
2.9027797e-02
2.7004305e-02
2.5365842e-02
2.4616972e-02
2.1434544e-02
1.5440149e-02
7.8781736e-03
-9.0611078e-04
-8.7737932e-03
-1.4658611e-02
-1.7398867e-02
-1.8646650e-02
-1.8728290e-02
-1.6553492e-02
-1.5277193e-02
-1.4712992e-02
-1.3576452e-02
-1.0666998e-02
-5.7757820e-03
-2.3598156e-03
2.4244453e-04
1.6428916e-03
1.2377875e-03
1.6032127e-03
1.7276943e-03
1.0717340e-03
-1.6232528e-03
-5.3077830e-03
-7.1974109e-03
-9.3770512e-03
-1.1046326e-02
-1.1798801e-02
-1.1855737e-02
-1.0086038e-02
-8.3131154e-03
-6.2873553e-03
-4.9731719e-03
-4.7742135e-03
-3.7631210e-03
-1.9280667e-03
1.7827344e-03
5.2879999e-03
7.8421570e-03
1.1684473e-02
1.5568440e-02
1.8568085e-02
1.9116569e-02
1.7928101e-02
1.5967197e-02
1.1577149e-02
6.9755625e-03
3.1623942e-03
7.2504729e-04
-9.1304721e-05
4.5483705e-05
2.6149595e-03
4.1046691e-03
2.8175685e-03
4.8460441e-04
-2.2455213e-03
-2.8835390e-03
-3.3931154e-03
-5.7363924e-03
-8.7659388e-03
-1.0741058e-02
-9.2782589e-03
-6.9766123e-03
-5.5398478e-03
-4.0827984e-03
-2.3050122e-03
5.4700289e-04
2.2354725e-03
2.5442337e-03
2.9517050e-03
3.3444001e-03
4.0370272e-03
3.3273428e-03
1.8889602e-03
1.1189607e-03
1.0211430e-03
2.2227995e-03
1.8815448e-03
-4.2836331e-05
-2.2567991e-03
-5.0339041e-03
-6.5148727e-03
-6.8620100e-03
-6.1958560e-03
-5.7554812e-03
-5.8225871e-03
-4.3781672e-03
-3.3764347e-03
-2.7496609e-03
-2.6219443e-03
-3.3580328e-03
-3.0774493e-03
-3.4833514e-03
-4.2979429e-03
-5.2348142e-03
-6.2670161e-03
-6.3789106e-03
-7.0115286e-03
-6.9237505e-03
-6.5470594e-03
-5.8742287e-03
-2.4250602e-03
1.8337738e-03
6.0732986e-03
9.6140106e-03
1.2011631e-02
1.3806796e-02
1.3394688e-02
1.1807055e-02
8.6516511e-03
4.3775251e-03
1.6769400e-03
-1.6457500e-04
-1.2292316e-03
-2.4988395e-03
-2.8489408e-03
-1.3511399e-03
-1.2278087e-03
-1.6386112e-03
-2.6473480e-03
-4.8766516e-03
-6.7533531e-03
-8.1493705e-03
-9.0115114e-03
-1.1664190e-02
-1.5367621e-02
-1.7925353e-02
-2.0006500e-02
-2.0086296e-02
-1.9294029e-02
-1.8303633e-02
-1.6223016e-02
-1.4308502e-02
-1.1558219e-02
-8.8639932e-03
-6.4379599e-03
-3.1874801e-03
2.5133274e-04
5.0043111e-03
8.7831755e-03
1.0863866e-02
1.3027722e-02
1.4255272e-02
1.3681941e-02
9.2526350e-03
3.7831901e-03
1.2530689e-03
3.7360371e-04
-3.3828044e-04
-2.3143292e-03
-3.9874720e-03
-4.2270386e-03
-3.6148453e-03
-2.2372217e-03
-2.5679384e-03
-2.9556449e-03
-1.7922630e-03
-9.2667952e-04
1.2155091e-04
-3.6871866e-05
-4.8999438e-04
1.0647037e-03
3.5669784e-03
6.9814318e-03
1.0298921e-02
1.3164612e-02
1.5256324e-02
1.7323332e-02
2.1057916e-02
2.4060570e-02
2.6955470e-02
3.0255440e-02
3.2729007e-02
3.4338239e-02
3.2544444e-02
2.7745216e-02
2.0935353e-02
1.3045525e-02
5.5560568e-03
-2.7227459e-03
-9.8823153e-03
-1.5773199e-02
-2.0746108e-02
-2.3153740e-02
-2.5656456e-02
-2.8856310e-02
-3.2269109e-02
-3.4874746e-02
-3.5475889e-02
-3.5671665e-02
-3.4030652e-02
-3.2222127e-02
-3.1966649e-02
-3.0767818e-02
-3.0477664e-02
-3.1613910e-02
-3.2592010e-02
-3.1840297e-02
-2.8314347e-02
-2.3404964e-02
-1.7049867e-02
-1.1027099e-02
-5.5684099e-03
1.5765526e-03
9.2850107e-03
1.6412791e-02
2.0226650e-02
2.0506679e-02
2.0081092e-02
1.8113607e-02
1.5012453e-02
1.1429077e-02
9.1648284e-03
9.8336477e-03
1.0862094e-02
1.1783903e-02
1.1480896e-02
1.0484995e-02
1.0429458e-02
1.0054914e-02
1.0452119e-02
1.0162841e-02
8.8653799e-03
7.9332247e-03
6.2862111e-03
5.6201554e-03
5.9509273e-03
7.4528287e-03
9.4607714e-03
9.2301282e-03
8.7017433e-03
8.4938577e-03
8.5273042e-03
9.3023281e-03
1.0151169e-02
1.2148182e-02
1.3681956e-02
1.4547379e-02
1.5584807e-02
1.5682556e-02
1.6530531e-02
1.6889339e-02
1.6333524e-02
1.6466239e-02
1.6353573e-02
1.6275649e-02
1.4823166e-02
1.1966881e-02
9.3139080e-03
8.0468139e-03
9.1593894e-03
9.0970005e-03
6.5875576e-03
1.9695714e-03
-4.6732262e-03
-9.7340063e-03
-1.3130653e-02
-1.5600569e-02
-1.7045964e-02
-1.7318031e-02
-1.5229238e-02
-1.3518873e-02
-1.2498215e-02
-1.1163669e-02
-9.9199232e-03
-7.0838802e-03
-3.8022165e-03
-7.6557558e-04
3.0069495e-03
7.8227775e-03
1.2556669e-02
1.3536676e-02
1.0851804e-02
6.3921550e-03
1.9839191e-03
-2.8526099e-04
-2.2882386e-03
-4.5889707e-03
-7.1327669e-03
-1.0064651e-02
-1.1889748e-02
-1.3711996e-02
-1.5988169e-02
-1.9232985e-02
-2.3032385e-02
-2.5207405e-02
-2.6615079e-02
-2.7188521e-02
-2.7602629e-02
-2.7709888e-02
-2.6937387e-02
-2.7738533e-02
-2.8409396e-02
-2.8572468e-02
-2.8603366e-02
-2.7155830e-02
-2.5363869e-02
-2.2300006e-02
-1.9876136e-02
-1.8946347e-02
-1.6085858e-02
-1.1208965e-02
-3.9497574e-03
4.5427186e-03
1.3321756e-02
2.2190844e-02
2.8119239e-02
3.1174937e-02
3.1142038e-02
2.8161563e-02
2.4562449e-02
2.0414632e-02
1.6030485e-02
1.1117554e-02
7.6366081e-03
7.0275041e-03
6.5193430e-03
5.4884321e-03
3.2655549e-03
1.9312288e-03
3.5515858e-03
5.7847284e-03
7.7505514e-03
8.3942773e-03
8.5212723e-03
8.5104966e-03
7.5628727e-03
5.9609911e-03
1.1893853e-03
-4.6284123e-03
-7.5576561e-03
-8.0066203e-03
-6.2555428e-03
-5.6256123e-03
-5.7258590e-03
-3.3395569e-03
-4.2721047e-05
2.9681997e-03
3.8123732e-03
3.7935174e-03
4.1298447e-03
3.6761355e-03
4.5230476e-03
5.9899170e-03
7.2621555e-03
7.5897796e-03
6.3190295e-03
5.4474218e-03
3.9265268e-03
2.2822436e-03
1.2942109e-03
-3.8395068e-04
-1.3704245e-03
-1.1643198e-03
1.9303329e-04
1.3286832e-03
1.7136848e-03
2.6608970e-03
2.1252738e-03
5.7150663e-04
-1.1942593e-03
-3.6362660e-03
-5.1590650e-03
-5.8697201e-03
-4.6458667e-03
-2.6192364e-03
-1.4333914e-03
6.1682713e-04
1.7407922e-03
1.5869543e-03
8.0122085e-04
3.7051600e-04
2.6014080e-03
5.5005287e-03
8.2628854e-03
9.9824296e-03
1.0003476e-02
1.0111308e-02
8.3469595e-03
4.5937716e-03
2.6036075e-04
-3.0994946e-03
-3.5188311e-03
-3.0672564e-03
-1.6767002e-03
-1.8895203e-04
2.0144174e-04
3.2775206e-04
-1.5945049e-03
-3.2800116e-03
-3.5692147e-03
-3.8696513e-03
-3.4270462e-03
-2.6705102e-03
-1.9332227e-04
3.5499288e-03
7.5239128e-03
1.1917094e-02
1.3655526e-02
1.2339237e-02
9.4408257e-03
7.9846546e-03
1.0016887e-02
1.1796617e-02
1.2268134e-02
1.1481347e-02
1.0041404e-02
9.3910018e-03
7.3119020e-03
4.4035758e-03
9.7600267e-04
-3.2450581e-03
-6.5669875e-03
-8.7992626e-03
-8.7439695e-03
-8.0061671e-03
-7.3804829e-03
-6.4316513e-03
-7.2594924e-03
-8.2185084e-03
-8.1584894e-03
-5.5315440e-03
-2.9284796e-05
4.4487729e-03
7.2429377e-03
7.3172784e-03
5.7181567e-03
5.1147495e-03
5.1941221e-03
5.6775965e-03
4.1553272e-03
1.5479574e-03
3.9165447e-04
4.0350915e-04
2.1784341e-03
3.4368107e-03
4.0754768e-03
5.4920722e-03
6.6253779e-03
7.5353086e-03
5.2707300e-03
1.2931691e-03
-3.7450689e-04
-1.7939670e-03
-3.4250539e-03
-5.7400760e-03
-8.4268213e-03
-1.0114662e-02
-1.1662373e-02
-1.2959715e-02
-1.5553568e-02
-1.9039271e-02
-2.1281075e-02
-2.1384451e-02
-1.8437370e-02
-1.5244905e-02
-1.3016049e-02
-1.1311610e-02
-9.6898584e-03
-6.4771408e-03
-3.8798843e-03
-3.1452345e-03
-3.7699387e-03
-3.5382298e-03
3.7777715e-04
4.8338489e-03
9.4544766e-03
1.4922121e-02
1.8679042e-02
2.1079090e-02
2.1608112e-02
2.0954904e-02
1.9648390e-02
1.7701030e-02
1.6184478e-02
1.2529480e-02
7.4265405e-03
2.8495664e-03
-5.1380863e-04
-1.8780075e-03
-4.2743408e-03
-7.8403482e-03
-1.1466080e-02
-1.4776038e-02
-1.6159590e-02
-1.7255277e-02
-1.8289045e-02
-1.9252208e-02
-2.0234593e-02
-1.9728325e-02
-1.9029128e-02
-1.7864029e-02
-1.6049476e-02
-1.3672610e-02
-1.0003361e-02
-7.9295857e-03
-7.1814857e-03
-5.8735761e-03
-4.3066222e-03
-2.4384504e-03
-1.1324798e-03
6.9643393e-04
2.7122202e-03
4.3584259e-03
7.0628900e-03
9.9624947e-03
1.4113391e-02
1.8361067e-02
2.0576091e-02
2.1966261e-02
2.1872412e-02
2.0901919e-02
1.8939444e-02
1.5809895e-02
1.2069794e-02
7.1602890e-03
3.6320404e-03
8.2149269e-04
-2.1682677e-03
-3.1566223e-03
-2.7677441e-03
-4.0126260e-04
2.1724493e-03
3.3718559e-03
4.8887417e-03
6.1100398e-03
7.0637615e-03
6.0977786e-03
3.5056576e-03
1.7274477e-03
9.0396082e-05
-1.0421647e-03
-3.8213856e-03
-7.8744917e-03
-9.3319962e-03
-9.3782104e-03
-8.7667873e-03
-8.3128713e-03
-7.4358242e-03
-3.5428207e-03
2.5073934e-03
9.3611847e-03
1.5047705e-02
1.9722411e-02
2.3535304e-02
2.5614333e-02
2.8150634e-02
2.9880985e-02
3.0037075e-02
2.9221601e-02
2.6193176e-02
2.1246543e-02
1.2989994e-02
2.1338130e-03
-8.2503737e-03
-1.6276422e-02
-2.1282731e-02
-2.5292789e-02
-2.7862798e-02
-2.9272204e-02
-3.0649217e-02
-2.9991463e-02
-2.9097524e-02
-2.8843715e-02
-2.7868577e-02
-2.6068329e-02
-2.3187826e-02
-2.1425479e-02
-2.0357612e-02
-1.9077249e-02
-1.7829722e-02
-1.5608837e-02
-1.4791343e-02
-1.5511084e-02
-1.6617500e-02
-1.6754741e-02
-1.2419554e-02
-5.6233027e-03
1.6124670e-03
8.1818167e-03
1.2609079e-02
1.6260299e-02
1.7574163e-02
1.7051449e-02
1.6086622e-02
1.4751349e-02
1.4122866e-02
1.2266780e-02
9.5582341e-03
6.6497698e-03
4.1761499e-03
3.3928394e-03
1.9566085e-03
8.5470826e-04
1.8882761e-04
-1.0334494e-03
-3.8666133e-04
1.0047351e-03
1.9300773e-03
2.5348597e-03
3.4661691e-03
5.2360370e-03
6.2171199e-03
7.8900108e-03
9.5279762e-03
1.0083221e-02
1.2706710e-02
1.6396900e-02
1.9638785e-02
2.2178894e-02
2.4667714e-02
2.8243698e-02
3.1438371e-02
3.3510255e-02
3.2810869e-02
2.9895143e-02
2.7287800e-02
2.4627838e-02
2.2669088e-02
2.0574259e-02
1.8762498e-02
1.9332157e-02
1.9847851e-02
1.9715924e-02
1.8102690e-02
1.5020723e-02
1.2246606e-02
6.9070529e-03
-2.2475089e-03
-1.4397407e-02
-2.5115406e-02
-3.0794172e-02
-3.4469383e-02
-3.6006425e-02
-3.5964287e-02
-3.5194657e-02
-3.2903260e-02
-3.1597847e-02
-3.0238102e-02
-2.7965253e-02
-2.4746867e-02
-1.9925272e-02
-1.4984333e-02
-8.7783822e-03
-2.7056602e-03
1.5232867e-03
4.7969508e-03
6.6892046e-03
8.1066299e-03
7.9808396e-03
6.0221257e-03
3.6421756e-03
6.1537847e-04
-2.4717573e-03
-6.5155387e-03
-1.0227037e-02
-1.1879559e-02
-1.2155228e-02
-1.0613771e-02
-9.6194384e-03
-8.7625284e-03
-5.7869697e-03
-2.0475741e-03
1.7297543e-03
2.5462762e-03
4.7094548e-04
-1.3651829e-03
-2.6214805e-03
-2.9638694e-03
-4.5443858e-03
-6.6260515e-03
-7.1333467e-03
-6.8525233e-03
-5.6853403e-03
-6.3212402e-03
-8.1113268e-03
-8.3096002e-03
-6.6741392e-03
-2.4299792e-03
6.1357024e-04
7.6783793e-04
-1.0428020e-04
-1.1563063e-03
-4.4006583e-04
1.3629980e-04
-7.3461048e-04
-2.7587126e-03
-5.9283770e-03
-7.8002762e-03
-9.5750874e-03
-1.2030116e-02
-1.3885238e-02
-1.5090009e-02
-1.5398797e-02
-1.6926236e-02
-1.8762212e-02
-1.8314205e-02
-1.5431914e-02
-1.1199788e-02
-8.0793439e-03
-4.8682699e-03
-2.0495392e-03
8.5602698e-05
3.8570926e-03
5.9381185e-03
5.8709581e-03
5.5124060e-03
5.2460383e-03
6.4912050e-03
7.8688673e-03
9.2654885e-03
1.0266410e-02
1.1335508e-02
1.4531687e-02
1.6499092e-02
1.5288883e-02
1.1045350e-02
5.0848581e-03
4.6058533e-04
-3.6385389e-03
-7.3052980e-03
-1.0502114e-02
-1.3009122e-02
-1.3735809e-02
-1.4146684e-02
-1.3212254e-02
-1.1271740e-02
-9.3953984e-03
-5.8732437e-03
-1.7031476e-03
2.2660965e-03
4.5825323e-03
5.1920310e-03
6.0708898e-03
6.3143483e-03
6.0041637e-03
4.9236493e-03
4.3610031e-03
6.0227459e-03
8.4235971e-03
1.1627474e-02
1.4001375e-02
1.5438754e-02
1.7304625e-02
1.7645340e-02
1.7130459e-02
1.5437000e-02
1.2265863e-02
8.9627294e-03
5.8663053e-03
4.7121301e-03
3.2457732e-03
7.5903609e-04
-4.7061049e-04
-1.3612230e-03
-1.1524842e-03
-7.0801853e-04
-3.0571715e-05
1.4051126e-03
1.5094118e-03
1.0531486e-03
-9.3417390e-04
-3.5540802e-03
-4.4935721e-03
-4.6633877e-03
-4.0308387e-03
-3.9163361e-03
-3.1401720e-03
-7.4122846e-04
2.0181445e-03
6.5831340e-03
1.1354766e-02
1.5792559e-02
1.9414838e-02
2.0626045e-02
2.1939299e-02
2.2348986e-02
2.1578400e-02
2.0159342e-02
1.6617004e-02
1.3206962e-02
1.0417102e-02
8.3518266e-03
7.1303794e-03
6.3585901e-03
6.5539741e-03
4.9912207e-03
2.4977398e-03
8.1887301e-04
4.0481311e-04
2.6457636e-03
4.5752438e-03
6.0697877e-03
7.4688616e-03
8.4095505e-03
1.0556828e-02
1.1712891e-02
1.1939565e-02
1.1606881e-02
1.0590276e-02
1.1185881e-02
1.2062684e-02
1.2143095e-02
9.8786745e-03
5.9281385e-03
4.4626740e-03
3.8773721e-03
2.9613821e-03
1.5247691e-03
-5.3931577e-04
-1.8106328e-03
-3.9666199e-03
-7.0599108e-03
-1.0935169e-02
-1.4924767e-02
-1.7075104e-02
-1.8951676e-02
-2.0049624e-02
-1.9656222e-02
-1.8339962e-02
-1.5438331e-02
-1.2669897e-02
-1.1143113e-02
-1.1437676e-02
-1.2296248e-02
-1.1771760e-02
-1.1917821e-02
-1.2791029e-02
-1.3659738e-02
-1.3025308e-02
-1.0333014e-02
-9.1928669e-03
-8.8861297e-03
-8.3079067e-03
-6.9341446e-03
-3.2098162e-03
5.9529671e-04
3.7479416e-03
6.4592852e-03
9.3652889e-03
1.2647548e-02
1.4455092e-02
1.4899371e-02
1.1954210e-02
6.7649400e-03
3.8057710e-03
2.4260577e-03
1.2772044e-03
-1.6606953e-03
-6.2083843e-03
-1.0673176e-02
-1.4966403e-02
-1.6737338e-02
-1.6794446e-02
-1.5941455e-02
-1.3218327e-02
-9.6800389e-03
-4.9720090e-03
-8.0457728e-04
2.3004436e-03
4.6047220e-03
5.3066506e-03
7.1609231e-03
9.0482017e-03
1.0149012e-02
1.2322805e-02
1.5183853e-02
1.8824719e-02
2.0300625e-02
1.9818698e-02
2.0375899e-02
2.1684807e-02
2.4628778e-02
2.7117022e-02
2.7763120e-02
2.7643269e-02
2.6034666e-02
2.3022955e-02
1.5524470e-02
4.0778821e-03
-7.1794785e-03
-1.8134732e-02
-2.7613978e-02
-3.5557166e-02
-4.1825237e-02
-4.6137411e-02
-4.8762807e-02
-4.8942654e-02
-4.8995053e-02
-4.9197009e-02
-4.8527781e-02
-4.6674774e-02
-4.3220762e-02
-4.1654343e-02
-4.1783536e-02
-4.0808557e-02
-3.8435026e-02
-3.5641478e-02
-3.5416961e-02
-3.6207870e-02
-3.5252487e-02
-3.2474813e-02
-2.7116425e-02
-1.9316544e-02
-9.7511697e-03
-1.7843018e-03
3.6278126e-03
8.3332773e-03
1.1375059e-02
1.5191157e-02
2.0511635e-02
2.5309328e-02
2.9906895e-02
3.3098471e-02
3.5063163e-02
3.5301169e-02
3.4401126e-02
3.5142591e-02
3.5394812e-02
3.3886927e-02
3.0996737e-02
2.7795005e-02
2.5541005e-02
2.2466310e-02
1.8600385e-02
1.4077980e-02
1.0450260e-02
9.0524836e-03
6.8165580e-03
3.9797419e-03
7.8499295e-04
-2.4564868e-03
-3.8685147e-03
-5.0802722e-03
-6.2147525e-03
-8.3332376e-03
-1.1306607e-02
-1.2502340e-02
-1.3135108e-02
-1.2725118e-02
-1.1749525e-02
-1.0647050e-02
-7.7292632e-03
-4.7901773e-03
-2.1624783e-03
1.7627082e-05
2.7061625e-03
6.7074473e-03
9.6097709e-03
1.2082442e-02
1.3691315e-02
1.4408130e-02
1.4728032e-02
1.3713464e-02
1.2787174e-02
1.0183778e-02
6.9587153e-03
5.7443742e-03
4.4794702e-03
3.0752261e-03
3.0876341e-04
-3.2400256e-03
-4.8554314e-03
-4.9226472e-03
-4.0675329e-03
-4.0560965e-03
-3.8085138e-03
-2.5804998e-03
-1.7284582e-03
6.6021482e-04
2.8631935e-03
4.1832987e-03
6.4441625e-03
8.4154185e-03
9.4525521e-03
8.4969807e-03
6.6194382e-03
4.8469418e-03
3.1539362e-03
2.9467067e-03
2.5760932e-03
2.5569538e-03
4.8600572e-03
8.4338125e-03
1.2733947e-02
1.5179827e-02
1.4301209e-02
1.1140232e-02
7.4696656e-03
5.1022034e-03
1.3928236e-03
-3.0390756e-03
-5.6988543e-03
-6.6492395e-03
-5.4642345e-03
-4.9684360e-03
-5.6111707e-03
-6.0307882e-03
-5.9037335e-03
-4.2867276e-03
-3.8520747e-03
-5.4184748e-03
-7.6506926e-03
-8.8862150e-03
-7.5479310e-03
-6.3636524e-03
-6.4361009e-03
-8.2662087e-03
-1.1118953e-02
-1.1323659e-02
-8.8972495e-03
-4.8234499e-03
-2.5375531e-04
5.1242047e-03
1.1957736e-02
1.6728816e-02
1.8874009e-02
1.9635707e-02
2.0833724e-02
2.3902669e-02
2.6061966e-02
2.6926930e-02
2.6377159e-02
2.4505054e-02
2.2694540e-02
1.9949620e-02
1.6584999e-02
1.1391153e-02
2.9074639e-03
-6.9987241e-03
-1.6265137e-02
-2.3235017e-02
-2.9458956e-02
-3.4563780e-02
-3.7029108e-02
-3.8612702e-02
-3.8501254e-02
-3.8151698e-02
-3.8948776e-02
-3.9405124e-02
-4.0310318e-02
-4.1478050e-02
-4.3412645e-02
-4.4270201e-02
-4.2412912e-02
-4.0513647e-02
-3.7354803e-02
-3.4104636e-02
-3.1775496e-02
-2.7724257e-02
-2.3108018e-02
-1.8072939e-02
-1.2005661e-02
-3.1293732e-03
8.1236246e-03
1.7869544e-02
2.6070141e-02
3.1045713e-02
3.2747810e-02
3.3109334e-02
3.1306557e-02
2.9128736e-02
2.6420977e-02
2.3090384e-02
2.0269554e-02
1.7003665e-02
1.3984659e-02
1.0240857e-02
6.6657895e-03
5.0437383e-03
3.8783669e-03
3.1917939e-03
1.7725824e-03
1.4616795e-04
-1.4650912e-03
-4.1979284e-03
-5.5929300e-03
-6.5399268e-03
-7.0504735e-03
-6.0941037e-03
-4.5853262e-03
-1.5485905e-03
1.5158399e-03
5.2316792e-03
1.0611965e-02
1.4768558e-02
1.7428039e-02
1.8903343e-02
2.0115878e-02
2.1546077e-02
2.3605123e-02
2.7480561e-02
2.9811057e-02
3.0162442e-02
2.9305206e-02
2.6655299e-02
2.4194847e-02
2.0369603e-02
1.5329262e-02
1.0608164e-02
6.8124114e-03
5.1771554e-03
2.8545827e-03
-1.2819814e-03
-6.0744328e-03
-1.0596879e-02
-1.4495007e-02
-2.0050110e-02
-2.5969898e-02
-3.0130100e-02
-3.1593880e-02
-2.9621495e-02
-2.7373709e-02
-2.5885854e-02
-2.5033610e-02
-2.4027982e-02
-2.1100561e-02
-1.8570042e-02
-1.6469884e-02
-1.3805804e-02
-1.0651419e-02
-6.9261135e-03
-4.6875567e-03
-3.8640395e-03
-5.4458736e-03
-8.0998419e-03
-7.7513104e-03
-5.7629016e-03
-1.6283296e-03
3.9663551e-03
8.3068751e-03
1.2092795e-02
1.4605635e-02
1.5534575e-02
1.3934577e-02
1.1282823e-02
1.0423665e-02
9.9390895e-03
1.0109540e-02
1.0038776e-02
8.9833935e-03
7.7921242e-03
6.5663359e-03
6.4004263e-03
4.5261599e-03
7.4204042e-04
-1.6014603e-03
-1.5923124e-03
1.2812546e-03
3.4087714e-03
3.5829010e-03
4.4006153e-03
6.2178005e-03
1.0105756e-02
1.3720593e-02
1.6274170e-02
1.9748426e-02
2.2942814e-02
2.6096584e-02
2.8176700e-02
2.8231297e-02
2.6350935e-02
2.2018684e-02
1.7961406e-02
1.4187473e-02
9.9381688e-03
6.9930716e-03
5.6333619e-03
6.1784724e-03
6.8671502e-03
6.6204158e-03
6.1305875e-03
6.1961388e-03
7.4650141e-03
6.9414349e-03
4.5323555e-03
1.4740410e-03
-3.1056613e-03
-8.8752715e-03
-1.6529699e-02
-2.3077059e-02
-2.6110921e-02
-2.6070175e-02
-2.2723080e-02
-1.9367051e-02
-1.7350100e-02
-1.7116521e-02
-1.8607754e-02
-1.8871302e-02
-1.8058521e-02
-1.6377053e-02
-1.5574300e-02
-1.7239674e-02
-1.8980122e-02
-2.1312101e-02
-2.3677374e-02
-2.5480040e-02
-2.6727661e-02
-2.5952156e-02
-2.5198374e-02
-2.3951717e-02
-2.1798448e-02
-1.8623739e-02
-1.2055880e-02
-5.4551360e-03
-1.0855649e-03
1.7733496e-03
3.7908416e-03
6.1893608e-03
7.4193512e-03
7.8962419e-03
7.2998471e-03
5.5711848e-03
5.6497556e-03
6.0235296e-03
6.1784600e-03
5.5142331e-03
3.0569773e-03
1.3665901e-03
4.8865058e-05
-3.8092385e-04
3.6521358e-04
2.4327278e-03
7.0751615e-03
1.1395370e-02
1.4620203e-02
1.6353862e-02
1.7015162e-02
1.8542577e-02
1.9225110e-02
1.9346969e-02
1.8397287e-02
1.6270618e-02
1.4576794e-02
1.2460370e-02
1.1315567e-02
9.9969073e-03
7.0812563e-03
3.6615098e-03
1.3714526e-04
-1.5903086e-03
-3.5667097e-03
-5.9716409e-03
-6.3345258e-03
-5.2554702e-03
-1.7538888e-03
1.5746590e-03
3.1786108e-03
4.3866643e-03
3.7251854e-03
2.0592802e-03
-7.3162333e-04
-2.7346235e-03
-2.2244944e-03
-1.4637248e-03
9.1283204e-06
1.0794648e-04
-1.7738497e-03
-2.3821048e-03
-3.3509224e-04
3.8121311e-03
6.2986208e-03
6.7941722e-03
7.0954608e-03
7.4129527e-03
9.2719524e-03
9.9222086e-03
7.9431962e-03
5.9137732e-03
4.5297792e-03
3.7621268e-03
1.3205368e-03
-2.9047083e-03
-7.2547677e-03
-9.8042880e-03
-8.9714443e-03
-8.7951744e-03
-9.8374194e-03
-1.0177543e-02
-9.9520200e-03
-8.4639271e-03
-7.9179561e-03
-7.6693257e-03
-6.3905994e-03
-4.7467311e-03
-2.4648226e-03
-1.5751074e-03
-1.4588768e-03
-8.0828050e-04
1.5012585e-03
7.2386685e-03
1.3013621e-02
1.7269260e-02
2.0110598e-02
2.1785102e-02
2.4689343e-02
2.6814104e-02
2.7510747e-02
2.7075048e-02
2.4856704e-02
2.2533503e-02
1.9823216e-02
1.6717750e-02
1.1463492e-02
3.5146670e-03
-3.7818460e-03
-1.0140546e-02
-1.4685035e-02
-1.7378540e-02
-1.8499683e-02
-1.6661524e-02
-1.4069093e-02
-1.1981928e-02
-1.1785739e-02
-1.3205797e-02
-1.3905847e-02
-1.5888983e-02
-1.8111249e-02
-1.9631020e-02
-2.0856540e-02
-2.1229273e-02
-2.2790487e-02
-2.4332510e-02
-2.5940010e-02
-2.7724318e-02
-2.6642626e-02
-2.2631296e-02
-1.5204474e-02
-5.1601894e-03
5.2325204e-03
1.4027585e-02
1.9466328e-02
2.3462079e-02
2.6136090e-02
2.8405075e-02
3.2531430e-02
3.6323884e-02
3.8935921e-02
3.8826437e-02
3.5934287e-02
3.2836058e-02
2.9730880e-02
2.8138906e-02
2.7591262e-02
2.7605542e-02
2.8517586e-02
2.8809483e-02
2.9499898e-02
2.9292066e-02
2.7769990e-02
2.6060547e-02
2.2248250e-02
1.6417072e-02
5.9544233e-03
-8.4220069e-03
-2.1155661e-02
-3.1371456e-02
-3.9048263e-02
-4.5580910e-02
-5.0210397e-02
-5.2682644e-02
-5.4806103e-02
-5.4338918e-02
-5.2302828e-02
-4.9540710e-02
-4.5537137e-02
-4.1725512e-02
-3.7598725e-02
-3.5597323e-02
-3.6650591e-02
-3.8928782e-02
-4.1417719e-02
-4.2533591e-02
-4.4816287e-02
-4.8642299e-02
-5.1286719e-02
-5.0619574e-02
-4.3662112e-02
-3.0843018e-02
-1.4342903e-02
1.1021131e-03
1.3026935e-02
2.3167041e-02
2.9678539e-02
3.2933833e-02
3.3275179e-02
3.0867517e-02
2.9223766e-02
2.7460698e-02
2.4633668e-02
2.1396392e-02
1.9293769e-02
1.9600664e-02
1.9523652e-02
1.9190049e-02
1.8263249e-02
1.6749457e-02
1.6824152e-02
1.5684923e-02
1.4236541e-02
1.4317374e-02
1.5373879e-02
1.8749348e-02
2.1977846e-02
2.3106009e-02
2.1654285e-02
1.8732295e-02
1.6621636e-02
1.4024344e-02
1.1200658e-02
7.6200121e-03
3.4167842e-03
3.4943885e-04
-3.0998935e-03
-5.3863188e-03
-6.4923844e-03
-7.3388815e-03
-6.4753219e-03
-5.1306934e-03
-2.8588293e-03
-1.1276433e-03
-1.1843900e-04
2.6351341e-03
4.4618629e-03
4.4295628e-03
2.8243368e-03
5.9233459e-04
8.9589263e-05
1.2024348e-03
3.0824271e-03
3.2421108e-03
3.0794899e-03
4.6824496e-03
6.6286406e-03
1.0164493e-02
1.3189813e-02
1.4419690e-02
1.5918580e-02
1.7074437e-02
1.8180347e-02
1.7536724e-02
1.5472631e-02
1.3597720e-02
1.0926195e-02
9.2796948e-03
7.5841307e-03
5.5443147e-03
4.3221653e-03
3.1353680e-03
3.5768165e-03
2.9639774e-03
-1.8687186e-04
-3.8049851e-03
-8.7649174e-03
-1.3979803e-02
-1.8597229e-02
-2.2183184e-02
-2.4478800e-02
-2.5941551e-02
-2.5634362e-02
-2.4700334e-02
-2.2634783e-02
-1.8941708e-02
-1.4972715e-02
-1.0460885e-02
-6.6893908e-03
-2.6564159e-03
1.2827985e-03
3.5585796e-03
6.1252317e-03
7.6466394e-03
8.2533487e-03
8.4572912e-03
8.3169416e-03
9.4801585e-03
9.0739648e-03
6.8549228e-03
3.8115775e-03
9.4024407e-05
-1.9961354e-03
-4.1258256e-03
-6.0249879e-03
-6.5400434e-03
-5.9336135e-03
-2.9049970e-03
-2.3170779e-04
9.5224388e-04
1.0913503e-03
-9.5201752e-04
-3.8018508e-03
-6.7603735e-03
-8.5414921e-03
-9.1232151e-03
-9.4729235e-03
-8.7848643e-03
-7.9096502e-03
-6.6069509e-03
-5.4018671e-03
-3.5306649e-03
5.2260619e-04
4.6986655e-03
8.8911701e-03
1.2386190e-02
1.5167124e-02
1.7037463e-02
1.4927633e-02
1.1636217e-02
9.4115982e-03
7.7121219e-03
7.1160218e-03
5.3281689e-03
2.5473922e-03
-9.5157379e-04
-4.3302737e-03
-4.6021063e-03
-3.2065389e-03
-1.2944012e-03
4.4468642e-04
2.9874038e-03
7.0864583e-03
8.8209235e-03
8.0409077e-03
5.7542949e-03
2.8705253e-03
7.6326110e-04
-1.5862797e-03
-3.9414930e-03
-7.4447300e-03
-9.8055642e-03
-8.1063109e-03
-5.2797408e-03
-2.2268590e-03
-1.0920852e-04
1.4234854e-03
3.9591716e-03
5.9901888e-03
6.9934779e-03
5.0818561e-03
2.2371840e-03
1.6756293e-03
2.0804720e-03
2.8050314e-03
7.2286796e-04
-3.0150932e-03
-4.4704883e-03
-4.2512484e-03
-2.5671966e-03
-1.9050105e-03
-2.3229655e-03
-2.2205381e-03
-2.5887074e-03
-2.2175335e-03
-2.5744047e-03
-4.6220332e-03
-6.8547661e-03
-9.5499858e-03
-1.2542261e-02
-1.6937938e-02
-2.1480183e-02
-2.4179922e-02
-2.4315378e-02
-2.1331201e-02
-1.9517335e-02
-1.9396107e-02
-1.9780769e-02
-2.0948174e-02
-2.0577339e-02
-2.0742317e-02
-2.2046824e-02
-2.3112611e-02
-2.4354141e-02
-2.5012177e-02
-2.6871998e-02
-2.9191708e-02
-3.0409736e-02
-3.1074991e-02
-2.8689315e-02
-2.2622696e-02
-1.2391754e-02
-1.0764602e-04
9.4805756e-03
1.5806841e-02
1.8203229e-02
1.9127284e-02
2.1069815e-02
2.4083112e-02
2.8221032e-02
3.0565388e-02
3.1399802e-02
3.1746938e-02
3.2571323e-02
3.4994194e-02
3.6605741e-02
3.7941686e-02
3.8924281e-02
3.9559425e-02
4.0760181e-02
4.0630812e-02
4.0847393e-02
4.0806520e-02
3.9144764e-02
3.7490513e-02
3.4166698e-02
2.7756159e-02
1.7775993e-02
7.9760083e-03
1.8890228e-03
-3.2271270e-03
-7.7866144e-03
-1.2069228e-02
-1.5863059e-02
-1.8256607e-02
-2.0386655e-02
-2.0572730e-02
-1.9639623e-02
-1.8371703e-02
-1.5862876e-02
-1.4531703e-02
-1.5615493e-02
-1.9590361e-02
-2.2864661e-02
-2.1926925e-02
-1.8811775e-02
-1.4619149e-02
-1.1379979e-02
-8.8094904e-03
-5.7232835e-03
-3.8522507e-03
-1.7590049e-03
2.9985919e-04
2.0249898e-03
4.4591553e-03
6.0664978e-03
7.5041848e-03
8.1776175e-03
8.1945117e-03
8.0675388e-03
6.9989889e-03
7.3931072e-03
7.1030121e-03
5.4529780e-03
5.3888393e-03
5.5269503e-03
5.8397276e-03
5.9846171e-03
5.9350898e-03
5.8983317e-03
5.1770047e-03
5.1873716e-03
4.7568844e-03
4.4800446e-03
5.1912277e-03
4.6786467e-03
3.9443129e-03
2.3497702e-03
3.5671831e-04
-1.5795962e-04
1.7131561e-04
1.3200079e-03
4.8664975e-04
-2.2028466e-03
-4.2793995e-03
-5.4315775e-03
-4.8611940e-03
-4.5714157e-03
-4.9490792e-03
-5.0300483e-03
-4.3733014e-03
-2.4509590e-03
-2.0655508e-03
-2.9648582e-03
-4.7077350e-03
-7.5448181e-03
-9.2907885e-03
-1.1929476e-02
-1.5143840e-02
-1.7267287e-02
-1.7650443e-02
-1.4765823e-02
-1.2230970e-02
-1.1787665e-02
-1.2854778e-02
-1.5033256e-02
-1.6116425e-02
-1.7251826e-02
-1.8418655e-02
-1.9024909e-02
-1.8707144e-02
-1.5618119e-02
-1.2245602e-02
-1.0166058e-02
-9.1883793e-03
-8.3027431e-03
-6.9331635e-03
-7.6460377e-03
-9.4226662e-03
-1.1744730e-02
-1.4803776e-02
-1.6244295e-02
-1.6235772e-02
-1.5575842e-02
-1.6038931e-02
-1.5532721e-02
-9.9103215e-03
-2.8583409e-03
2.8848837e-03
7.4361964e-03
1.1348670e-02
1.5685077e-02
1.8933032e-02
2.0826981e-02
2.0267501e-02
1.9156250e-02
2.0070678e-02
2.0382995e-02
2.1194049e-02
2.2620306e-02
2.3733963e-02
2.5378050e-02
2.6752931e-02
2.8705125e-02
2.9588730e-02
2.9055100e-02
2.8478993e-02
2.6747389e-02
2.5476837e-02
2.3379913e-02
1.9268525e-02
1.4105165e-02
7.3265986e-03
7.9859615e-04
-6.1602426e-03
-1.2364695e-02
-1.5809576e-02
-1.8897138e-02
-2.2078405e-02
-2.7060342e-02
-3.3329430e-02
-3.9507529e-02
-4.6507197e-02
-5.2279065e-02
-5.7280945e-02
-6.1528607e-02
-6.5576001e-02
-7.0483937e-02
-7.2929447e-02
-7.3839523e-02
-7.3605106e-02
-7.1190225e-02
-6.7791609e-02
-6.2793836e-02
-5.7298962e-02
-4.9349734e-02
-3.6001784e-02
