1.4667226e-02
2.9596906e-02
3.8354564e-02
4.3670246e-02
4.5694247e-02
4.5215663e-02
4.4546483e-02
4.2111684e-02
3.8832414e-02
3.4412613e-02
2.8607580e-02
2.2641923e-02
1.6078914e-02
1.0250333e-02
4.5391846e-03
1.9016463e-04
-1.7026900e-03
-4.3639819e-03
-6.6344127e-03
-8.4623300e-03
-1.0139412e-02
-9.9986140e-03
-9.7768545e-03
-9.7353011e-03
-1.0996200e-02
-1.2694181e-02
-1.2707887e-02
-1.2547274e-02
-1.1435965e-02
-1.0007649e-02
-7.6894399e-03
-2.5865161e-03
3.4210338e-03
9.5490349e-03
1.3720593e-02
1.6529796e-02
2.0026977e-02
2.2328732e-02
2.3947031e-02
2.4443477e-02
2.4245681e-02
2.4573957e-02
2.4407916e-02
2.4159483e-02
2.1361859e-02
1.6942958e-02
1.5219522e-02
1.5070914e-02
1.3697746e-02
7.9305668e-03
-1.9505769e-04
-6.2883411e-03
-9.9560407e-03
-1.0914050e-02
-1.2643651e-02
-1.6482404e-02
-1.9790329e-02
-2.1674938e-02
-2.1869350e-02
-2.3199187e-02
-2.5673273e-02
-2.7974334e-02
-3.0173760e-02
-3.0938400e-02
-3.1855699e-02
-3.2665198e-02
-3.2882612e-02
-3.3269643e-02
-3.3336559e-02
-3.5524745e-02
-3.8742226e-02
-4.0148797e-02
-3.8783767e-02
-3.3138753e-02
-2.4546918e-02
-1.3368886e-02
-1.8637679e-03
6.9153041e-03
1.3680655e-02
1.6637962e-02
1.6934403e-02
1.7490376e-02
1.8994450e-02
2.2548251e-02
2.5495556e-02
2.6938825e-02
2.6472682e-02
2.2898114e-02
1.8241729e-02
1.2198662e-02
6.1664504e-03
1.1708481e-03
-3.9124772e-03
-7.3049149e-03
-8.6382103e-03
-8.5314665e-03
-8.4319507e-03
-7.3512536e-03
-3.0262061e-03
3.0012878e-03
1.0156833e-02
1.5889076e-02
1.8544269e-02
1.8856338e-02
1.5865168e-02
1.2673905e-02
1.0987250e-02
9.8221275e-03
8.6281776e-03
5.0950988e-03
7.7977441e-04
-3.2529928e-03
-7.0280811e-03
-9.6763924e-03
-1.2540324e-02
-1.4150374e-02
-1.5339631e-02
-1.7589916e-02
-1.8938070e-02
-2.0109190e-02
-2.0062350e-02
-1.8465259e-02
-1.5873718e-02
-1.0268633e-02
-2.0435873e-03
7.7650067e-03
1.6055649e-02
2.2058601e-02
2.7486841e-02
3.0082758e-02
3.0424982e-02
2.9233195e-02
2.6772768e-02
2.4390568e-02
2.0792366e-02
1.7406601e-02
1.4471427e-02
1.2336220e-02
1.2609596e-02
1.2856635e-02
1.3058367e-02
1.2270579e-02
1.0481272e-02
1.0021700e-02
9.5036489e-03
9.4570101e-03
9.4564574e-03
9.2208467e-03
9.7426682e-03
8.4973182e-03
6.4379815e-03
5.3503306e-03
6.2147829e-03
9.4703367e-03
1.1684149e-02
1.2093904e-02
1.0784710e-02
9.0052321e-03
8.6924906e-03
8.2215294e-03
7.3698447e-03
5.5589410e-03
3.9876500e-03
4.9149162e-03
6.5274664e-03
7.7657031e-03
7.6366659e-03
7.4936778e-03
8.8183599e-03
1.0135574e-02
1.1947687e-02
1.1511390e-02
8.2842237e-03
5.2323902e-03
6.2575225e-04
-5.7338402e-03
-1.2093489e-02
-1.5313810e-02
-1.4819813e-02
-1.3508857e-02
-1.0809072e-02
-7.9962851e-03
-5.0140763e-03
-9.3707725e-04
3.0326706e-03
7.8384179e-03
1.1970180e-02
1.6406328e-02
2.2602017e-02
2.8353869e-02
3.4938909e-02
4.1065872e-02
4.4746968e-02
4.6535464e-02
4.6192749e-02
4.4812962e-02
3.9104118e-02
2.7095907e-02
1.1410609e-02
-7.4720584e-03
-2.6384924e-02
-4.2444433e-02
-5.4232662e-02
-6.1707271e-02
-6.6715728e-02
-6.8331441e-02
-6.8487367e-02
-6.8114592e-02
-6.6108591e-02
-6.3155400e-02
-5.9478172e-02
-5.8179788e-02
-5.9108200e-02
-5.9852612e-02
-5.9987754e-02
-5.8776635e-02
-5.8537935e-02
-5.9023920e-02
-5.8646528e-02
-5.6875837e-02
-5.1467669e-02
-4.3672895e-02
-3.2848689e-02
-1.7206608e-02
4.3958004e-03
3.0370588e-02
5.1553876e-02
6.6113229e-02
7.5959841e-02
8.0763236e-02
8.2462447e-02
8.0005947e-02
7.5933257e-02
7.2529823e-02
6.7706555e-02
6.1840369e-02
5.4658668e-02
4.7680463e-02
4.2253268e-02
3.8603984e-02
3.8137561e-02
3.8941353e-02
4.0451486e-02
4.2364588e-02
4.4559857e-02
4.7604423e-02
4.7442223e-02
4.2582463e-02
3.2680005e-02
1.6936625e-02
-1.3083768e-05
-1.4162697e-02
-2.3924740e-02
-2.9547302e-02
-3.2388377e-02
-3.2906422e-02
-3.2474557e-02
-3.0197520e-02
-2.6496484e-02
-2.2145924e-02
-1.5207723e-02
-7.3850469e-03
-4.4474495e-04
4.8031913e-03
9.8847749e-03
1.6272043e-02
2.1073848e-02
2.4137864e-02
2.5480663e-02
2.5969540e-02
2.7232203e-02
2.6579288e-02
2.2621241e-02
1.5089104e-02
4.1732968e-03
-7.7174168e-03
-1.8238608e-02
-2.5246901e-02
-2.9244661e-02
-2.9743278e-02
-2.5836032e-02
-2.1519896e-02
-1.8610004e-02
-1.7609467e-02
-1.6555839e-02
-1.2150501e-02
-6.2525100e-03
-1.1249397e-04
5.3208240e-03
1.1192486e-02
1.8626376e-02
2.5428867e-02
3.1908158e-02
3.6291138e-02
3.8161899e-02
3.8703759e-02
3.5589420e-02
2.9363170e-02
1.9538703e-02
5.7749063e-03
-7.8196806e-03
-1.7224021e-02
-2.1469869e-02
-2.4613259e-02
-2.8078072e-02
-3.0163644e-02
-3.1295655e-02
-3.1077408e-02
-3.1302835e-02
-3.2096710e-02
-3.2547946e-02
-3.3628057e-02
-3.3914324e-02
-3.4879494e-02
-3.6186453e-02
-3.5797666e-02
-3.4601006e-02
-3.2087005e-02
-2.9681774e-02
-2.6793870e-02
-2.2732758e-02
-1.9629431e-02
-1.6376526e-02
-1.5058623e-02
-1.7137727e-02
-2.0945482e-02
-2.5839359e-02
-2.9290716e-02
-3.2391378e-02
-3.5872259e-02
-3.8890495e-02
-4.2693628e-02
-4.6180828e-02
-5.0219557e-02
-5.5085423e-02
-5.9637428e-02
-6.3740731e-02
-6.6857098e-02
-7.1676295e-02
-7.8536124e-02
-8.5824109e-02
-9.1761402e-02
-9.3953631e-02
-9.4127335e-02
-9.1415882e-02
-8.5151719e-02
-7.5746133e-02
-6.0580775e-02
-3.8647402e-02
-4.5380879e-03
3.8414087e-02
7.5618801e-02
1.0242356e-01
1.1923063e-01
1.2830921e-01
1.3162114e-01
1.3058872e-01
1.2889676e-01
1.2654405e-01
1.2480355e-01
1.2482783e-01
1.2668037e-01
1.3071932e-01
1.3425043e-01
1.3769096e-01
1.4168602e-01
1.4619928e-01
1.5125173e-01
1.5347500e-01
1.5289312e-01
1.4879035e-01
1.3859558e-01
1.2121546e-01
9.3501439e-02
5.4358882e-02
8.9239434e-03
-3.1111966e-02
-6.0041630e-02
-8.1174373e-02
-9.5604753e-02
-1.0579233e-01
-1.1176565e-01
-1.1154872e-01
-1.0861156e-01
-1.0408881e-01
-9.8720592e-02
-9.2481894e-02
-8.3723238e-02
-7.4250853e-02
-6.4030129e-02
-5.4230247e-02
-4.6144415e-02
-3.9702375e-02
-3.6455458e-02
-3.4584521e-02
-3.2367490e-02
-2.8660724e-02
-2.4156418e-02
-2.0652997e-02
-1.5745791e-02
-1.0512389e-02
-6.0250513e-03
-1.3550812e-03
2.1462190e-03
4.9911466e-03
5.9042567e-03
5.7214599e-03
6.4460249e-03
6.1695719e-03
5.1866017e-03
2.3213758e-03
-1.4787068e-03
-3.4814593e-03
-4.9948908e-03
-5.6516704e-03
-6.4013472e-03
-6.5803810e-03
-4.2744196e-03
-1.2466234e-03
1.9986647e-03
3.4456188e-03
3.4872897e-03
3.9312493e-03
3.2672532e-03
1.8444342e-03
-1.7175820e-03
-5.8909930e-03
-7.0493583e-03
-5.1219147e-03
-5.0240586e-04
3.3365108e-03
5.9072436e-03
7.9576407e-03
7.9084176e-03
7.5583234e-03
6.2606810e-03
3.8096716e-03
1.1993229e-03
-2.4941025e-03
-5.3223886e-03
-7.6909453e-03
-9.2664698e-03
-9.0005440e-03
-8.9218453e-03
-8.7753453e-03
-8.7101582e-03
-8.0681701e-03
-7.0009172e-03
-5.9437827e-03
-3.3838913e-03
-1.5847043e-03
-8.0153953e-04
-2.3021158e-04
8.0613883e-05
1.4218766e-03
1.8535786e-03
5.0194806e-04
-2.5379415e-03
-5.3975189e-03
-5.0775540e-03
-3.6395713e-03
-1.9524378e-03
-1.8792709e-04
1.2613618e-03
3.8143450e-03
6.8415837e-03
9.8620326e-03
1.1171843e-02
1.0069343e-02
8.3066249e-03
5.9947501e-03
3.8638933e-03
1.7581646e-03
9.9194297e-04
2.8887114e-03
4.8687894e-03
6.5308523e-03
6.7653193e-03
5.5261831e-03
5.0035307e-03
4.6790433e-03
5.4225634e-03
5.9805784e-03
6.2405400e-03
8.4078788e-03
1.0847581e-02
1.3009383e-02
1.3531412e-02
1.2670558e-02
1.2856822e-02
1.3922316e-02
1.5742684e-02
1.6037187e-02
1.5770145e-02
1.7149642e-02
1.7208328e-02
1.5724777e-02
1.2607722e-02
7.9144593e-03
2.4708707e-03
-5.0549763e-03
-1.2349733e-02
-1.8006329e-02
-2.2343120e-02
-2.5363575e-02
-2.7944669e-02
-2.8312012e-02
-2.6830441e-02
-2.4607460e-02
-2.2878528e-02
-2.3377708e-02
-2.4262551e-02
-2.6527122e-02
-3.0306634e-02
-3.3733351e-02
-3.5958971e-02
-3.5900221e-02
-3.6755529e-02
-3.8184448e-02
-3.6898083e-02
-3.2342190e-02
-2.4050835e-02
-1.4608873e-02
-4.6159852e-03
6.5881552e-03
1.7295362e-02
2.5630918e-02
2.8314848e-02
2.7098673e-02
2.5341329e-02
2.3307293e-02
2.1987059e-02
1.9155277e-02
1.4754789e-02
1.0822116e-02
7.9995894e-03
7.6161734e-03
7.2147095e-03
6.4034213e-03
6.7592916e-03
8.2583609e-03
1.1292846e-02
1.3107042e-02
1.2742489e-02
1.2071292e-02
1.1698854e-02
1.0929953e-02
8.8036888e-03
7.1008343e-03
5.3506914e-03
3.2637897e-03
2.5543811e-03
1.7481489e-03
9.3479430e-04
-2.7628509e-04
-8.6333906e-04
1.1398551e-03
2.7396340e-03
2.9920320e-03
4.1188325e-04
-5.3925383e-03
-1.1318591e-02
-1.7040354e-02
-2.0995168e-02
-2.3610563e-02
-2.4348422e-02
-2.1042934e-02
-1.7261951e-02
-1.3671279e-02
-1.0324295e-02
-7.7961379e-03
-4.5443167e-03
-2.0224004e-03
-8.2620363e-05
7.0792996e-04
3.2405871e-04
1.0390785e-03
2.2749443e-03
4.5138412e-03
6.8642319e-03
9.3593235e-03
1.3261452e-02
1.6928292e-02
2.0720584e-02
2.3169908e-02
2.3718415e-02
2.3719467e-02
2.2623706e-02
2.1765109e-02
1.9940414e-02
1.7362328e-02
1.6155100e-02
1.5607470e-02
1.6656393e-02
1.6892770e-02
1.5223066e-02
1.3976867e-02
1.2655410e-02
1.0303838e-02
2.5698724e-03
-9.1634676e-03
-1.8499863e-02
-2.4131926e-02
-2.5557051e-02
-2.5295022e-02
-2.4841045e-02
-2.3735945e-02
-2.2382450e-02
-1.9506935e-02
-1.6985907e-02
-1.5974074e-02
-1.5601692e-02
-1.5385309e-02
-1.3674810e-02
-1.2167132e-02
-1.1890852e-02
-1.2991400e-02
-1.5327856e-02
-1.6184801e-02
-1.7119993e-02
-1.8763571e-02
-1.9415230e-02
-1.8710901e-02
-1.5020532e-02
-7.8510722e-03
1.9324878e-03
9.9909364e-03
1.3811799e-02
1.6542468e-02
1.8986438e-02
2.1590063e-02
2.3554264e-02
2.3457718e-02
2.2395563e-02
2.0383415e-02
1.8788913e-02
1.7353754e-02
1.7588621e-02
2.1810078e-02
2.5753071e-02
2.7080802e-02
2.5809379e-02
2.4057857e-02
2.3724224e-02
2.2682545e-02
2.1287689e-02
1.8765804e-02
1.3765725e-02
6.2665771e-03
-3.9400825e-03
-1.3164768e-02
-1.9919628e-02
-2.3691408e-02
-2.3807246e-02
-2.3222929e-02
-2.2171457e-02
-2.1812954e-02
-2.2385419e-02
-2.1699652e-02
-2.0747538e-02
-1.9150154e-02
-1.7295872e-02
-1.5161317e-02
-1.3028384e-02
-1.2741147e-02
-1.2308977e-02
-1.1638749e-02
-9.7939567e-03
-6.1429064e-03
-3.6623400e-03
-2.0478706e-03
-2.1604225e-03
-3.6661219e-03
-4.3698874e-03
-4.2199667e-03
-3.2484316e-03
-4.7379768e-03
-8.2748713e-03
-1.0863134e-02
-1.4038240e-02
-1.7340991e-02
-2.0990933e-02
-2.4783857e-02
-2.7046004e-02
-2.7460459e-02
-2.5392928e-02
-2.4066363e-02
-2.4431924e-02
-2.4578601e-02
-2.3771253e-02
-2.1805488e-02
-2.2364108e-02
-2.4490288e-02
-2.4856683e-02
-2.3913324e-02
-2.1707611e-02
-1.9319478e-02
-1.5063878e-02
-7.0105359e-03
5.7555028e-03
2.2183204e-02
3.4386267e-02
4.0462212e-02
4.3235071e-02
4.4127750e-02
4.4782333e-02
4.2286119e-02
3.6538183e-02
2.9948005e-02
2.4378854e-02
2.1392956e-02
1.8209486e-02
1.3719693e-02
8.5286315e-03
5.3729504e-03
6.1189528e-03
6.6655871e-03
6.2780628e-03
5.4417827e-03
4.4626383e-03
5.0980918e-03
5.9940285e-03
7.1251110e-03
8.0530081e-03
9.1651310e-03
1.1677802e-02
1.3160311e-02
1.3109471e-02
1.0654922e-02
6.3193849e-03
1.7929755e-03
-4.1695383e-03
-1.0002563e-02
-1.6095470e-02
-2.3327122e-02
-2.9151877e-02
-3.2317564e-02
-3.2981802e-02
-3.4150791e-02
-3.5472332e-02
-3.4834325e-02
-3.3763609e-02
-3.1688847e-02
-2.9142981e-02
-2.6345431e-02
-2.2776168e-02
-1.8843286e-02
-1.2873460e-02
-6.5401898e-03
5.8610575e-04
9.8638255e-03
1.8447559e-02
2.5627941e-02
2.9250606e-02
2.9475693e-02
2.8232319e-02
2.6004484e-02
2.5321417e-02
2.4017632e-02
2.0852059e-02
1.8661084e-02
1.8187749e-02
1.8645268e-02
1.8168814e-02
1.8393243e-02
1.9994285e-02
2.2186987e-02
2.6392567e-02
3.0029757e-02
3.3033272e-02
3.6097331e-02
3.7709466e-02
3.9039560e-02
3.6532913e-02
2.8147313e-02
1.8060172e-02
1.1173671e-02
9.6758839e-03
1.0781881e-02
1.3220135e-02
1.4761905e-02
1.4287919e-02
1.4227268e-02
1.2134941e-02
8.1997591e-03
4.4794164e-03
7.5239845e-04
-1.7481395e-03
-4.2417980e-03
-6.5466509e-03
-8.5921826e-03
-1.0461047e-02
-1.0353046e-02
-9.3119734e-03
-7.2207054e-03
-5.1141105e-03
-3.7949120e-03
-1.5452156e-03
-1.7464966e-04
-9.1422108e-04
-3.2512277e-03
-5.0278919e-03
-4.9675411e-03
-5.1275961e-03
-4.7814846e-03
-4.5453995e-03
-4.7363564e-03
-3.7718011e-03
-3.4360670e-03
-3.9203862e-03
-5.5034599e-03
-7.1674620e-03
-7.0710165e-03
-6.5762151e-03
-5.3231267e-03
-4.4125951e-03
-4.0902116e-03
-3.9960415e-03
-5.9700817e-03
-8.4757608e-03
-1.1082393e-02
-1.2119504e-02
-9.8815628e-03
-7.5566838e-03
-5.9470600e-03
-5.9749251e-03
-6.6473368e-03
-6.0114662e-03
-4.9848388e-03
-2.2946889e-03
-3.8127582e-04
1.9186053e-04
2.2075541e-03
4.1214421e-03
5.0958253e-03
3.9978915e-03
2.0811054e-03
1.0170970e-03
-3.2766872e-04
-1.0162367e-03
-2.4465108e-03
-4.4940279e-03
-5.1089879e-03
-5.7491549e-03
-6.7456693e-03
-9.1352999e-03
-1.2451571e-02
-1.4131477e-02
-1.4056148e-02
-1.2525006e-02
-1.1324874e-02
-9.6970385e-03
-6.9920844e-03
-5.0024414e-03
-2.6183687e-03
-1.1099533e-03
-6.5694544e-04
-3.7705744e-04
-1.2953646e-03
-1.7322919e-03
-1.6207741e-03
-1.0990105e-03
-5.1852301e-04
-3.0499393e-04
1.4097725e-03
3.0419296e-03
4.3767520e-03
6.8876529e-03
1.0996209e-02
1.7129543e-02
2.2517811e-02
2.6571014e-02
2.8226189e-02
2.6615203e-02
2.4437525e-02
2.1441859e-02
1.8214298e-02
1.4647347e-02
1.0638835e-02
7.6715863e-03
4.3342700e-03
7.8608995e-04
-3.2395419e-03
-6.5889053e-03
-7.0901494e-03
-7.1904800e-03
-7.7438360e-03
-9.4986579e-03
-1.1698768e-02
-1.1371311e-02
-1.0033809e-02
-8.8972153e-03
-8.9903684e-03
-9.7959706e-03
-9.5664891e-03
-1.0040698e-02
-1.0885189e-02
-1.2929537e-02
-1.5520223e-02
-1.5190442e-02
-1.3298694e-02
-1.0702042e-02
-8.1264237e-03
-4.9248211e-03
-1.6495478e-04
3.3237120e-03
5.7391710e-03
6.9509086e-03
7.7312990e-03
1.0231298e-02
1.2712618e-02
1.5746772e-02
1.8340899e-02
1.9516289e-02
2.1765633e-02
2.4230137e-02
2.5699224e-02
2.4947037e-02
2.2737920e-02
2.0167217e-02
1.6785582e-02
1.4127047e-02
1.0489814e-02
4.9617078e-03
-1.9961012e-03
-1.0513683e-02
-1.6915280e-02
-2.0553005e-02
-2.2138393e-02
-2.2069113e-02
-2.1571033e-02
-1.9494692e-02
-1.8211910e-02
-1.7889660e-02
-1.5940108e-02
-1.2953599e-02
-9.2276077e-03
-6.7125839e-03
-4.8447793e-03
-2.3938853e-03
5.6052583e-06
3.6221855e-03
6.7980925e-03
9.6717757e-03
1.2830189e-02
1.4667379e-02
1.5936009e-02
1.5149895e-02
1.2638510e-02
8.8551074e-03
3.8806072e-03
7.4997254e-04
-1.5678407e-03
-2.7472788e-03
-3.0601439e-03
-4.4126831e-03
-4.8881416e-03
-5.9334891e-03
-7.7011518e-03
-9.0013034e-03
-1.0165969e-02
-9.8367714e-03
-1.0041379e-02
-1.0769169e-02
-9.8250138e-03
-7.6059036e-03
-4.5187804e-03
-2.2740676e-03
-3.1113549e-04
1.3693505e-03
2.2790681e-03
3.5248246e-03
2.4627978e-03
-4.6658447e-04
-3.9518167e-03
-7.7007915e-03
-1.0163438e-02
-1.3379061e-02
-1.6700716e-02
-1.9415061e-02
-2.1168758e-02
-2.0040146e-02
-1.8586469e-02
-1.7311820e-02
-1.5881536e-02
-1.4608031e-02
-1.2710268e-02
-1.1301180e-02
-9.0040301e-03
-6.0962362e-03
-4.7764039e-03
-4.9441835e-03
-7.6130350e-03
-1.1724838e-02
-1.6043105e-02
-1.8871800e-02
-1.7866824e-02
-1.4625381e-02
-9.7070453e-03
-4.1416763e-03
1.7633304e-03
8.5275142e-03
1.4143685e-02
1.7992089e-02
1.8656726e-02
1.7438694e-02
1.7305836e-02
1.7940525e-02
1.9726139e-02
2.0706228e-02
2.0301091e-02
2.0346053e-02
2.0475319e-02
2.1110508e-02
2.1166566e-02
2.1682635e-02
2.3749238e-02
2.5457759e-02
2.7484742e-02
2.7704883e-02
2.5801065e-02
2.4199637e-02
2.1321996e-02
1.6750522e-02
9.5806305e-03
1.6552655e-03
-3.9110298e-03
-8.5437706e-03
-1.2433892e-02
-1.6676543e-02
-2.0980747e-02
-2.3894180e-02
-2.5948654e-02
-2.6681126e-02
-2.8106807e-02
-2.8809408e-02
-2.6879706e-02
-2.4808718e-02
-2.2938942e-02
-2.3356813e-02
-2.5117997e-02
-2.5058974e-02
-2.3470736e-02
-2.0795171e-02
-1.9460961e-02
-1.8731675e-02
-1.6388701e-02
-1.2870169e-02
-7.4143142e-03
-4.1681509e-04
8.6592491e-03
1.7712851e-02
2.3487669e-02
2.7939881e-02
3.1025810e-02
3.3842561e-02
3.6900692e-02
3.8327899e-02
3.9730282e-02
4.0334776e-02
3.9093491e-02
3.6374992e-02
3.3591950e-02
3.3163807e-02
3.3229120e-02
3.2987507e-02
3.2122517e-02
3.1425874e-02
3.3372465e-02
3.4585573e-02
3.2788610e-02
2.7520649e-02
1.9515994e-02
1.0646531e-02
-2.3430315e-03
-1.8319767e-02
-3.2343926e-02
-4.1856515e-02
-4.6250290e-02
-4.8781134e-02
-4.9289243e-02
-4.7230207e-02
-4.4330026e-02
-4.0711149e-02
-3.7445804e-02
-3.3901428e-02
-3.1025679e-02
-3.0041023e-02
-2.9459727e-02
-2.9642731e-02
-2.9410934e-02
-2.9544019e-02
-3.0863309e-02
-3.1287989e-02
-3.1626891e-02
-3.1089766e-02
-2.9590993e-02
-2.6171661e-02
-1.8613647e-02
-8.8203991e-03
1.5672106e-03
8.3743802e-03
1.0617719e-02
1.2036998e-02
1.2447221e-02
1.2133906e-02
1.0485068e-02
8.8916601e-03
1.0863915e-02
1.3457789e-02
1.5315488e-02
1.7284648e-02
2.0383177e-02
2.4973997e-02
2.7519065e-02
2.7729889e-02
2.5452642e-02
2.3050592e-02
2.4336581e-02
2.6198965e-02
2.5585937e-02
2.1990461e-02
1.8389652e-02
1.5807513e-02
1.1321039e-02
6.0624197e-03
1.3743822e-04
-5.3560867e-03
-7.8796341e-03
-8.3379760e-03
-6.9739203e-03
-6.4001250e-03
-6.9952304e-03
-6.5545817e-03
-6.1979257e-03
-6.1059094e-03
-7.9924137e-03
-1.1298042e-02
-1.3098960e-02
-1.3851201e-02
-1.3189075e-02
-1.2444674e-02
-1.1534486e-02
-9.1572870e-03
-6.7440954e-03
-3.0040325e-03
8.0700671e-04
3.2940588e-03
6.0755422e-03
9.2054137e-03
1.2260731e-02
1.2648590e-02
1.1215568e-02
9.8837166e-03
7.7243025e-03
6.1121332e-03
4.0837621e-03
1.2861841e-03
-2.1830752e-03
-7.0377282e-03
-1.0707937e-02
-1.3779794e-02
-1.6750168e-02
-1.8824335e-02
-1.9751318e-02
-1.9279086e-02
-2.0208901e-02
-2.1337588e-02
-2.1445384e-02
-2.1558415e-02
-2.0134472e-02
-1.9084822e-02
-1.7905708e-02
-1.4476229e-02
-8.4934155e-03
1.0757813e-03
1.0614172e-02
1.7457438e-02
2.1276264e-02
2.3561193e-02
2.6014301e-02
2.6647577e-02
2.7141015e-02
2.7978017e-02
2.7486325e-02
2.6481549e-02
2.4010980e-02
2.0417618e-02
1.5777285e-02
1.0812615e-02
7.2663127e-03
3.5257383e-03
2.0514384e-04
-3.2055526e-03
-6.4077824e-03
-6.4607172e-03
-5.1646762e-03
-3.6374134e-03
-2.4712747e-03
-2.0306649e-03
-1.2393805e-03
-1.1160118e-03
-1.6697212e-03
-3.5167891e-03
-5.9022013e-03
-6.4350133e-03
-6.5287417e-03
-6.3205236e-03
-6.6690487e-03
-7.2311976e-03
-6.3647204e-03
-6.3024271e-03
-6.5836432e-03
-7.9490694e-03
-9.7365120e-03
-9.9696430e-03
-1.1265106e-02
-1.3443128e-02
-1.6924736e-02
-2.1381222e-02
-2.4347309e-02
-2.5535061e-02
-2.3679927e-02
-1.9032607e-02
-1.0060272e-02
2.5310134e-03
1.2841971e-02
2.0083886e-02
2.3613837e-02
2.4001064e-02
2.4360596e-02
2.3936029e-02
2.2748732e-02
2.1205184e-02
2.0506484e-02
2.1967647e-02
2.4197218e-02
2.7095261e-02
2.9423861e-02
3.2000943e-02
3.6947816e-02
4.2173173e-02
4.6556204e-02
4.9302329e-02
5.2003368e-02
5.4958650e-02
5.4175826e-02
4.8509015e-02
3.6333219e-02
1.8653132e-02
3.2737772e-05
-1.6478966e-02
-2.8390683e-02
-3.6773107e-02
-4.2058599e-02
-4.3960489e-02
-4.4213584e-02
-4.3895979e-02
-4.5094874e-02
-4.5639584e-02
-4.3966793e-02
-4.2900541e-02
-4.2260101e-02
-4.3118618e-02
-4.4639868e-02
-4.4586742e-02
-4.3271382e-02
-3.9481523e-02
-3.4989578e-02
-3.0820836e-02
-2.7104188e-02
-2.4226778e-02
-1.9792233e-02
-1.4674086e-02
-8.2480008e-03
1.3736900e-04
7.5524039e-03
1.3140848e-02
1.5290913e-02
1.4568994e-02
1.2851458e-02
1.0818321e-02
9.9203613e-03
8.2601766e-03
5.7761743e-03
3.9162108e-03
2.9420349e-03
3.2982169e-03
3.0674344e-03
2.8341335e-03
2.7562178e-03
2.5949459e-03
4.6335955e-03
6.7070154e-03
8.5168077e-03
1.0507311e-02
1.1321773e-02
1.2536799e-02
1.3089052e-02
1.2830699e-02
1.1455495e-02
9.7751011e-03
1.1846188e-02
1.5079154e-02
1.6136738e-02
1.4856603e-02
1.3326983e-02
1.4658665e-02
1.7231715e-02
2.0011535e-02
2.1931483e-02
2.2406084e-02
2.3381067e-02
2.3890649e-02
2.3474151e-02
2.0655136e-02
1.5778052e-02
1.2704146e-02
1.1076063e-02
1.0318989e-02
9.4326157e-03
8.5129857e-03
8.8143840e-03
6.3299471e-03
-1.9738628e-04
-8.5441316e-03
-1.6415291e-02
-2.1241056e-02
-2.4005905e-02
-2.4932520e-02
-2.4917587e-02
-2.5113340e-02
-2.4101163e-02
-2.2008736e-02
-1.9113054e-02
-1.8175330e-02
-1.9793431e-02
-2.1339694e-02
-2.3731352e-02
-2.6318900e-02
-2.8589522e-02
-2.9714761e-02
-2.8840744e-02
-2.8424938e-02
-2.7775495e-02
-2.6472357e-02
-2.4253567e-02
-2.0207642e-02
-1.5123811e-02
-7.1587676e-03
1.4836011e-03
7.7999745e-03
1.2504410e-02
1.5774505e-02
1.9548839e-02
2.2229329e-02
2.3034241e-02
2.3784446e-02
2.2926757e-02
2.0812202e-02
1.7849833e-02
1.5033076e-02
1.3344644e-02
1.2186437e-02
1.1704328e-02
9.9713025e-03
9.3173568e-03
1.1552605e-02
1.3095829e-02
1.4619862e-02
1.5777282e-02
1.6090878e-02
1.6921050e-02
1.6758954e-02
1.5477500e-02
1.2320035e-02
8.1119819e-03
4.6265014e-03
8.2359424e-04
-3.0065430e-03
-7.4566687e-03
-1.0632270e-02
-1.0288164e-02
-8.1164103e-03
-5.3703825e-03
-4.5233849e-03
-3.9003648e-03
-1.2735773e-03
1.1739061e-03
4.0258330e-03
6.9554675e-03
9.6819014e-03
1.2376172e-02
1.4429184e-02
1.7433568e-02
2.0399652e-02
2.2548622e-02
2.3096897e-02
2.1660779e-02
1.9739316e-02
1.5756678e-02
1.2292372e-02
1.0614485e-02
8.0949714e-03
5.5763324e-03
1.8288836e-03
-2.0166085e-03
-4.6043066e-03
-7.3957895e-03
-9.2491755e-03
-1.0505452e-02
-1.0988435e-02
-1.0678031e-02
-1.0215395e-02
-8.7678777e-03
-7.6386417e-03
-6.4492320e-03
-5.8653835e-03
-6.3656066e-03
-5.8062809e-03
-6.1863139e-03
-6.8046833e-03
-6.7723542e-03
-7.1085421e-03
-6.3425817e-03
-5.9240204e-03
-6.5661562e-03
-8.0086121e-03
-8.6669506e-03
-6.5208223e-03
-4.6537504e-03
-4.0503610e-03
-4.4514801e-03
-5.4172919e-03
-4.8236406e-03
-4.3074950e-03
-4.7291762e-03
-6.1048793e-03
-7.1955547e-03
-5.7770790e-03
-4.1741420e-03
-3.2189177e-03
-3.4243082e-03
-5.2566744e-03
-7.1564216e-03
-9.3432097e-03
-1.0307777e-02
-1.0774644e-02
-1.2143084e-02
-1.3274129e-02
-1.4882827e-02
-1.6738365e-02
-2.0209419e-02
-2.4500547e-02
-2.5992231e-02
-2.5464919e-02
-2.3132192e-02
-2.0685832e-02
-1.8960942e-02
-1.5610966e-02
-1.2889235e-02
-1.1227564e-02
-9.9113209e-03
-9.1158916e-03
-8.7634515e-03
-1.0657078e-02
-1.3518481e-02
-1.7484327e-02
-2.2067435e-02
-2.5282437e-02
-2.7418285e-02
-2.6548388e-02
-2.2507274e-02
-1.4513195e-02
-6.9728489e-04
1.5594561e-02
3.0399665e-02
4.1632405e-02
4.9261245e-02
5.2619701e-02
5.0716891e-02
4.6494134e-02
4.0038689e-02
3.1419061e-02
2.3770498e-02
1.7439279e-02
1.2311875e-02
7.5309947e-03
3.9932525e-03
3.2293047e-03
3.5115006e-03
4.2152068e-03
3.2090225e-03
4.0710329e-04
-1.4115204e-03
-2.3175962e-03
-2.6502942e-03
-4.3314322e-03
-5.1405039e-03
-2.6820549e-03
-2.3788926e-04
1.2014543e-03
-2.6756451e-04
-3.2861693e-03
-4.0451920e-03
-3.1516629e-03
-1.6031037e-03
-2.0087173e-03
-2.8630231e-03
-1.8283262e-03
-1.0143996e-04
3.1896896e-03
5.2540452e-03
5.1026507e-03
4.2495261e-03
2.4188810e-03
1.6238810e-03
6.3904897e-04
-8.9530392e-04
-1.0267494e-03
3.4415491e-04
3.1108274e-03
4.4755141e-03
4.4233711e-03
4.2098054e-03
3.6606787e-03
3.9369089e-03
3.5771495e-03
2.8139074e-03
2.5817645e-03
2.8010100e-03
3.7287245e-03
3.1343911e-03
2.1329164e-03
1.2659464e-03
-8.1632226e-04
-2.4797850e-03
-4.5641988e-03
-6.4465736e-03
-7.3361511e-03
-7.7033408e-03
-6.2840440e-03
-5.3027616e-03
-5.0730661e-03
-5.0875555e-03
-4.9504249e-03
-2.1616453e-03
1.0363749e-03
3.6080834e-03
6.0978942e-03
9.0305364e-03
1.3616391e-02
1.7198736e-02
1.9023091e-02
1.8827330e-02
1.7826043e-02
1.9217921e-02
2.0577912e-02
2.1343704e-02
2.2332242e-02
2.3450265e-02
2.5677134e-02
2.6990223e-02
2.8152697e-02
3.0478965e-02
3.3509075e-02
3.7077299e-02
3.8999611e-02
3.9582913e-02
3.8531577e-02
3.6294739e-02
3.4902878e-02
3.1387248e-02
2.4247817e-02
1.2722443e-02
-1.9492038e-03
-1.4181945e-02
-2.2636748e-02
-2.8224095e-02
-3.2774671e-02
-3.6220808e-02
-3.7274488e-02
-3.8135603e-02
-3.8459032e-02
-3.8309074e-02
-3.7842287e-02
-3.5859466e-02
-3.3200666e-02
-2.9101090e-02
-2.5428404e-02
-2.2975214e-02
-2.1201415e-02
-2.2478432e-02
-2.3825870e-02
-2.3718000e-02
-2.3004803e-02
-2.1323438e-02
-1.9911141e-02
-1.6790110e-02
-1.1801130e-02
-5.9362872e-03
1.4155545e-04
4.2099869e-03
6.6263789e-03
6.7336917e-03
5.7484517e-03
5.2034790e-03
3.8363308e-03
2.5562526e-03
1.6973164e-05
-4.2364503e-03
-8.3185084e-03
-1.1963137e-02
-1.4713449e-02
-1.9279198e-02
-2.5191971e-02
-2.8930772e-02
-3.1031976e-02
-3.1641906e-02
-3.1445216e-02
-2.9729434e-02
-2.5807515e-02
-2.0340136e-02
-1.1940569e-02
-2.3606572e-03
6.9755656e-03
1.5482581e-02
2.2118741e-02
2.8330322e-02
3.2119138e-02
3.2549583e-02
3.1683918e-02
3.0286513e-02
2.8984726e-02
2.6154893e-02
2.2187665e-02
1.7989690e-02
1.3148062e-02
9.5790843e-03
5.9196134e-03
1.6646114e-03
-1.8097025e-03
-4.2779120e-03
-4.7358907e-03
-5.5964590e-03
-6.6447531e-03
-6.5998752e-03
-6.3153588e-03
-5.0268342e-03
-4.4105191e-03
-3.6761967e-03
-1.4229429e-03
1.6661125e-03
6.0312480e-03
9.2554232e-03
1.0916862e-02
1.1459995e-02
1.1670466e-02
1.4471435e-02
1.7067029e-02
1.7657525e-02
1.6862354e-02
1.5139359e-02
1.4342697e-02
1.3083700e-02
1.2082147e-02
1.1993206e-02
1.2491503e-02
1.4080485e-02
1.2943202e-02
1.0009527e-02
7.8653451e-03
5.9627209e-03
5.5819907e-03
5.4199893e-03
4.3429086e-03
1.7939398e-03
-2.0405208e-03
-4.8562782e-03
-6.8361041e-03
-8.1099468e-03
-9.8186346e-03
-1.2021377e-02
-1.2538718e-02
-1.2120408e-02
-1.0583939e-02
-8.8694797e-03
-8.3884105e-03
-8.9500940e-03
-1.1196943e-02
-1.3594079e-02
-1.5953823e-02
-1.8277964e-02
-2.0494615e-02
-2.4152112e-02
-2.6797174e-02
-2.7950260e-02
-2.8190815e-02
-2.6473612e-02
-2.3520562e-02
-1.8212157e-02
-1.2311510e-02
-7.0366436e-03
-2.0044047e-03
1.0810813e-03
3.7085305e-03
4.7584572e-03
5.2024896e-03
7.8553753e-03
1.0164664e-02
1.2449758e-02
1.3734908e-02
1.3984408e-02
1.5964037e-02
1.7891732e-02
1.8457242e-02
1.7046689e-02
1.5328504e-02
1.4531074e-02
1.1737068e-02
6.5309812e-03
-3.3704976e-04
-6.1520996e-03
-9.4374491e-03
-1.2308662e-02
-1.4030940e-02
-1.4931192e-02
-1.4981757e-02
-1.3916536e-02
-1.3511168e-02
-1.2296067e-02
-1.0522079e-02
-8.3617541e-03
-5.5495560e-03
-3.8005738e-03
-1.5263431e-03
8.3922344e-05
3.6900821e-04
5.4668346e-04
-3.3055418e-04
-9.8728099e-04
-1.5600284e-03
-1.5512697e-03
-9.3416802e-04
-8.8796780e-04
1.0139019e-04
1.1937190e-03
2.6701340e-03
4.5074412e-03
4.6490451e-03
4.4025186e-03
3.7915402e-03
2.9458320e-03
2.0461247e-03
6.1086315e-04
-3.4779704e-04
-2.7158223e-03
-4.8459676e-03
-3.9722274e-03
-1.9481642e-03
-2.1789869e-05
-5.4974676e-04
-2.5687056e-03
-4.2155137e-03
-5.8025518e-03
-5.9236947e-03
-5.9691338e-03
-6.4735984e-03
-6.7907728e-03
-6.1351378e-03
-3.9282365e-03
-3.2030140e-03
-3.5078368e-03
-3.1558245e-03
-1.3415111e-03
2.3059799e-03
5.2176722e-03
8.4240234e-03
1.1578621e-02
1.3420989e-02
1.5817339e-02
1.7722587e-02
1.8644870e-02
1.8139893e-02
1.8485250e-02
2.2334017e-02
2.6170120e-02
2.9233422e-02
3.0803135e-02
3.0510510e-02
3.2108917e-02
3.5588545e-02
3.8890209e-02
3.8909450e-02
3.5681050e-02
3.2994016e-02
3.0483965e-02
2.7031382e-02
2.0721018e-02
1.0822387e-02
-2.2711924e-04
-1.0326700e-02
-1.7088183e-02
-2.2509215e-02
-2.7734190e-02
-3.0693154e-02
-3.2594332e-02
-3.3584434e-02
-3.5676728e-02
-3.8619975e-02
-3.8744846e-02
-3.6632563e-02
-3.2089635e-02
-2.6845150e-02
-2.1552081e-02
-1.5262493e-02
-9.7847350e-03
-4.5653618e-03
-1.0979247e-03
9.9272728e-04
4.1744566e-03
6.9536857e-03
8.5027488e-03
6.6998828e-03
2.4610460e-03
-7.9436346e-04
-2.9477581e-03
-3.0799830e-03
-3.0597533e-03
-3.6076813e-03
-2.8863755e-03
-2.0825686e-03
-9.1438429e-04
-1.0941016e-04
5.0629020e-04
2.1205792e-03
3.4587355e-03
5.4905266e-03
7.5714589e-03
9.3230042e-03
1.1757872e-02
1.4089640e-02
1.7005659e-02
1.8842798e-02
1.8803516e-02
1.7737347e-02
1.5548007e-02
1.3451871e-02
1.0740129e-02
7.9683230e-03
4.6770039e-03
1.0388380e-03
-3.1222634e-04
-1.7283331e-03
-3.7015606e-03
-5.0981365e-03
-6.4933175e-03
-7.5988441e-03
-1.0405253e-02
-1.4077974e-02
-1.6940884e-02
-1.9637472e-02
-2.1197281e-02
-2.3224076e-02
-2.5546426e-02
-2.6264500e-02
-2.5872108e-02
-2.5265680e-02
-2.6904331e-02
-2.8647316e-02
-2.8235160e-02
-2.6884587e-02
-2.4115295e-02
-2.0297461e-02
-1.4003895e-02
-6.7167609e-03
-1.3251777e-03
2.9034137e-03
5.8018599e-03
9.2713846e-03
1.3010641e-02
1.6403287e-02
2.0786521e-02
2.3255021e-02
2.3772191e-02
2.4036310e-02
2.5530672e-02
2.9875119e-02
3.4608650e-02
3.9646075e-02
4.4881681e-02
4.9358043e-02
5.3741573e-02
5.5652591e-02
5.3791739e-02
4.7934228e-02
3.9219012e-02
2.9463914e-02
1.7511116e-02
2.8022986e-03
-1.4173260e-02
-2.8171196e-02
-3.5020303e-02
-3.7803076e-02
-3.8798893e-02
-4.0246978e-02
-4.1517749e-02
-4.1326406e-02
-4.2824511e-02
-4.5759709e-02
-4.9448065e-02
-5.3007665e-02
-5.5344975e-02
-5.7838561e-02
-5.8812484e-02
-5.9196893e-02
-6.0249793e-02
-5.9803025e-02
-5.8260293e-02
-5.5435589e-02
-5.2092846e-02
-4.7229784e-02
-3.8185213e-02
-2.5176684e-02
-7.1765890e-03
1.1619577e-02
2.5902998e-02
3.5587278e-02
4.1227287e-02
4.5170387e-02
4.6921680e-02
4.6188981e-02
4.5535632e-02
4.5461274e-02
4.5669082e-02
4.4072338e-02
4.0725647e-02
3.7250938e-02
3.4292065e-02
3.3327553e-02
3.2199714e-02
3.0152680e-02
2.8120231e-02
2.6193213e-02
2.5782735e-02
2.3712761e-02
1.8595863e-02
1.2984840e-02
8.3383187e-03
5.0630737e-03
2.2926078e-04
-4.6906181e-03
-7.3327552e-03
-8.3736483e-03
-6.6234838e-03
-4.7313625e-03
-3.5197386e-03
-2.3060606e-03
-1.2920421e-03
1.5382130e-03
3.9122519e-03
4.9007919e-03
5.3652577e-03
5.6958854e-03
6.4403618e-03
5.3177593e-03
4.1690488e-03
3.4936030e-03
1.2589366e-03
-1.2322314e-03
-4.6311391e-03
-7.4013421e-03
-8.0472834e-03
-8.0472241e-03
-7.3012190e-03
-6.5844936e-03
-6.1830948e-03
-6.5484498e-03
-6.8194805e-03
-5.0862514e-03
-3.7235279e-03
-3.6994873e-03
-4.8734959e-03
-5.9359286e-03
-4.6479511e-03
-3.4600205e-03
-2.8133526e-03
-1.6769636e-03
4.0718258e-04
2.7839545e-03
3.0194391e-03
2.6126524e-03
1.8853859e-03
1.9195430e-03
4.1736549e-03
6.0913280e-03
8.1489942e-03
9.9294335e-03
1.1639232e-02
1.4210244e-02
1.4241929e-02
1.1562302e-02
7.4207601e-03
3.2277895e-03
1.7406345e-04
-2.5651379e-03
-3.9850563e-03
-5.6771855e-03
-7.9294666e-03
-8.3689401e-03
-7.8979926e-03
-6.3463856e-03
-4.7474082e-03
-3.2983522e-03
-1.7355349e-03
-2.0605048e-03
-2.6149693e-03
-4.1027143e-03
-5.8877881e-03
-4.9428612e-03
-2.2962541e-03
1.0352882e-03
2.5815000e-03
2.6460156e-03
1.7454917e-03
-9.6493532e-04
-2.8594825e-03
-4.1079148e-03
-4.7797214e-03
-5.5411068e-03
-7.8302231e-03
-1.0081911e-02
-1.3346859e-02
-1.6369099e-02
-1.7300661e-02
-1.7364682e-02
-1.6928569e-02
-1.8532525e-02
-2.1597745e-02
-2.3939150e-02
-2.4723677e-02
-2.2706177e-02
-2.0940530e-02
-2.0027930e-02
-1.8722781e-02
-1.7485874e-02
-1.5092219e-02
-1.2742869e-02
-1.0438655e-02
-6.7615809e-03
-1.3975774e-03
5.8092545e-03
1.1992896e-02
1.5640057e-02
1.6637667e-02
1.6329010e-02
1.7344943e-02
1.7918462e-02
1.7355308e-02
1.6289738e-02
1.5465566e-02
1.6203276e-02
1.6317151e-02
1.5523735e-02
1.4484234e-02
1.3728227e-02
1.3864993e-02
1.2521077e-02
1.0047882e-02
7.5766962e-03
6.5514007e-03
7.8203949e-03
8.3219412e-03
8.1358631e-03
7.4900879e-03
7.3167997e-03
9.3272530e-03
1.0432938e-02
9.9948380e-03
7.9023187e-03
5.3122829e-03
4.8875722e-03
5.9785839e-03
9.3077644e-03
1.2497097e-02
1.4136957e-02
1.6402688e-02
1.9463689e-02
2.3864945e-02
2.6955781e-02
2.8587722e-02
3.1828703e-02
3.6049237e-02
4.0122980e-02
4.2108241e-02
4.3654165e-02
4.6199955e-02
4.7733615e-02
4.7563688e-02
4.2127502e-02
3.2367894e-02
2.1910606e-02
1.0655592e-02
6.5004060e-04
-8.5274003e-03
-1.7652642e-02
-2.6385863e-02
-3.5256722e-02
-4.3191132e-02
-5.1816102e-02
-5.9947730e-02
-6.4391361e-02
-6.4606942e-02
-5.9987867e-02
-5.3879778e-02
-4.7436670e-02
-3.9697224e-02
-3.0415282e-02
-1.8831775e-02
-9.0531489e-03
-2.1839900e-03
3.1344827e-03
7.1328538e-03
1.2122026e-02
1.5948438e-02
1.6789230e-02
1.6054953e-02
1.4926522e-02
1.4141476e-02
1.1931988e-02
9.1121202e-03
5.1285731e-03
-8.1485951e-06
-2.5977251e-03
-4.8527350e-03
-8.5474120e-03
-1.2777269e-02
-1.5827375e-02
-1.6696409e-02
-1.7922145e-02
-1.8629252e-02
-1.8090507e-02
-1.6684188e-02
-1.4559011e-02
-1.3946609e-02
-1.2630876e-02
-9.6749824e-03
-6.7292064e-03
-3.3808678e-03
-6.0711111e-04
2.4259726e-03
4.5978103e-03
6.1394109e-03
1.0039332e-02
1.3819728e-02
1.6091567e-02
1.6856910e-02
1.7192176e-02
1.8038513e-02
1.6856254e-02
1.3901113e-02
9.1177137e-03
3.3119236e-03
-1.4733261e-03
-6.9467384e-03
-1.2124171e-02
-1.5483452e-02
-1.5820884e-02
-1.2755126e-02
-9.2396207e-03
-5.6272230e-03
-3.4597930e-03
-2.6687268e-03
-5.4578875e-04
2.5799164e-03
6.0041914e-03
7.8083955e-03
9.0816479e-03
1.0542782e-02
9.9137358e-03
8.2720292e-03
5.0967968e-03
1.4533597e-03
-1.3346891e-03
-4.9612192e-03
-7.5658883e-03
-9.4736668e-03
-1.0901963e-02
-1.0587475e-02
-9.0101479e-03
-5.5963692e-03
-3.2193383e-03
-2.6965320e-03
-2.5940760e-03
-3.1204007e-03
-3.0991074e-03
-4.9120949e-03
-8.5999513e-03
-1.1641457e-02
-1.3619947e-02
-1.2799576e-02
-1.1249651e-02
-1.0335927e-02
-9.6213554e-03
-9.3929937e-03
-8.0131702e-03
-6.7462686e-03
-5.3022515e-03
-3.8074115e-03
-3.1431630e-03
-9.8040195e-04
3.8981448e-04
3.6792859e-04
3.6549785e-04
1.1158197e-03
4.1750410e-03
6.6789437e-03
8.3307024e-03
9.4797754e-03
9.3842666e-03
9.1615630e-03
7.5478882e-03
5.6355419e-03
3.6737410e-03
1.9029643e-03
2.6481674e-03
3.7154352e-03
4.4331467e-03
4.1204743e-03
2.5351891e-03
2.4879587e-03
4.1966166e-03
6.8448133e-03
7.8930866e-03
7.1881430e-03
6.7636856e-03
6.8138778e-03
8.2199785e-03
9.1931047e-03
1.0029266e-02
1.2581097e-02
1.4868069e-02
1.5813030e-02
1.4406182e-02
1.2387787e-02
1.1200639e-02
9.7910688e-03
9.3239236e-03
8.5392312e-03
6.6129386e-03
3.9090782e-03
1.0408841e-03
5.8334480e-04
1.0227647e-03
1.1869621e-03
1.5857678e-03
2.2240725e-03
5.3470701e-03
9.1584564e-03
1.1516759e-02
1.2066810e-02
1.1108560e-02
1.2809455e-02
1.7184522e-02
2.1476300e-02
2.4424124e-02
2.6847072e-02
3.0422766e-02
3.2459536e-02
3.3290552e-02
3.3282382e-02
3.0125938e-02
2.5120701e-02
1.6862173e-02
3.8384029e-03
-1.2638149e-02
-2.7327063e-02
-3.5486535e-02
-4.0626710e-02
-4.4130315e-02
-4.5551418e-02
-4.5411916e-02
-4.3230812e-02
-4.2176671e-02
-4.3358750e-02
-4.5679157e-02
-4.8377305e-02
-5.0306563e-02
-5.2218264e-02
-5.3987564e-02
-5.6623240e-02
-5.9509369e-02
-5.9772833e-02
-5.7944164e-02
-5.3511854e-02
-4.7788260e-02
-4.2252181e-02
-3.4207463e-02
-2.3572838e-02
-9.2580497e-03
7.1428327e-03
2.1146135e-02
3.2435373e-02
4.0030450e-02
4.4871387e-02
4.6322172e-02
4.3925474e-02
4.1230840e-02
3.7960325e-02
3.3696173e-02
2.7922141e-02
2.1883766e-02
1.8039235e-02
1.4477944e-02
1.1579070e-02
9.4203270e-03
8.0710682e-03
8.2024503e-03
7.9111477e-03
7.8334596e-03
6.7002309e-03
4.3375419e-03
2.8890942e-03
1.0525490e-03
-7.9922807e-04
-2.2198496e-03
-1.9249523e-03
3.7560789e-04
2.1811090e-03
3.7707168e-03
4.0532799e-03
4.3567188e-03
6.7836416e-03
9.1111311e-03
1.1107767e-02
1.1233136e-02
9.1470672e-03
6.4973965e-03
4.0869836e-03
3.2513093e-03
1.1039252e-03
-2.6808789e-03
-6.5122601e-03
-1.0031329e-02
-1.1214704e-02
-1.2330943e-02
-1.3461516e-02
-1.2658863e-02
-1.0332561e-02
-6.0544803e-03
-1.5894671e-03
3.2623890e-03
7.9114137e-03
1.0086419e-02
1.1196769e-02
1.0395207e-02
8.7462214e-03
8.1327746e-03
8.1446776e-03
1.0185244e-02
1.2056940e-02
1.2898264e-02
1.3963557e-02
1.5259162e-02
1.8260243e-02
2.2136851e-02
2.5525572e-02
2.7805117e-02
3.1550084e-02
3.7255540e-02
3.9396543e-02
3.7469639e-02
3.1776924e-02
2.2334598e-02
1.0874929e-02
-2.3213095e-03
-1.3837731e-02
-2.2592568e-02
-2.8296725e-02
-2.8956793e-02
-2.7968319e-02
-2.7432379e-02
-2.7542511e-02
-2.7245535e-02
-2.4350672e-02
-2.1105837e-02
-1.7902577e-02
-1.5291333e-02
-1.4093519e-02
-1.2371469e-02
-1.1069840e-02
-1.1228421e-02
-1.3406348e-02
-1.5857836e-02
-1.5955328e-02
-1.4425321e-02
-1.1429450e-02
-8.5497952e-03
-5.9950034e-03
-2.0759476e-03
2.2454947e-03
5.9374983e-03
6.4671164e-03
4.3988540e-03
2.4555970e-03
7.0032380e-04
-2.6423526e-04
-2.8453586e-03
-7.0890781e-03
-1.0757377e-02
-1.4064062e-02
-1.6195034e-02
-1.8147494e-02
-1.8959368e-02
-1.7550349e-02
-1.5401822e-02
-1.2840366e-02
-1.2892714e-02
-1.5676486e-02
-1.8722900e-02
-2.1295449e-02
-2.1124701e-02
-1.9506667e-02
-1.7042553e-02
-1.2691780e-02
-7.5041822e-03
-1.5039990e-03
3.1751796e-03
6.7104450e-03
1.0430717e-02
1.3615206e-02
1.6904384e-02
1.8430024e-02
1.7438436e-02
1.4731465e-02
1.2199202e-02
1.2740359e-02
1.3664502e-02
1.3201117e-02
1.1324508e-02
8.8111487e-03
8.2243137e-03
7.4216451e-03
5.8008672e-03
4.9369727e-03
5.1856663e-03
6.4407923e-03
6.3735247e-03
5.8559630e-03
5.7705104e-03
5.1750443e-03
3.8014237e-03
1.3305797e-03
2.4202356e-04
1.8106254e-04
6.7589919e-04
2.8092770e-03
3.9272601e-03
4.8279851e-03
6.3016047e-03
8.1770085e-03
1.0843275e-02
1.1879479e-02
1.2366180e-02
1.2265247e-02
1.1204396e-02
1.1254814e-02
1.1909883e-02
1.2420848e-02
1.0910834e-02
8.1416324e-03
6.2128115e-03
4.5430266e-03
3.7776562e-03
2.0253838e-03
-2.6911749e-04
-5.4529327e-04
-1.0130939e-03
-1.4343943e-03
-1.7844479e-03
-1.7793174e-03
-3.3642960e-04
9.0884969e-04
3.5754727e-03
7.4884417e-03
1.1513919e-02
1.5665701e-02
1.8894696e-02
2.1846213e-02
2.2500611e-02
2.2357702e-02
2.3827488e-02
2.5055232e-02
2.6699075e-02
2.6734667e-02
2.4101850e-02
2.0046556e-02
1.5467625e-02
1.1521742e-02
4.3000975e-03
-5.3511731e-03
-1.3569211e-02
-2.0396140e-02
-2.3631566e-02
-2.5503221e-02
-2.7104639e-02
-2.6320687e-02
-2.4495433e-02
-2.1412119e-02
-1.9010065e-02
-1.7319877e-02
-1.4470290e-02
-1.1686550e-02
-9.4232266e-03
-9.6242944e-03
-1.0501967e-02
-9.7757623e-03
-8.9960393e-03
-7.6590176e-03
-7.3552239e-03
-6.7948408e-03
-3.5336312e-03
5.3258948e-04
5.2342840e-03
8.8106542e-03
1.0010369e-02
9.5789158e-03
8.6588264e-03
7.9662323e-03
5.7485085e-03
3.4929536e-03
1.3667625e-03
-1.0358409e-03
-1.3520194e-03
-1.5627396e-03
-2.7367362e-03
-4.4384771e-03
-5.9729755e-03
-5.9522730e-03
-6.4792261e-03
-7.5229390e-03
-8.3138211e-03
-8.2234372e-03
-7.0540464e-03
-7.4914638e-03
-8.2379240e-03
-8.7826274e-03
-8.9991797e-03
-6.8828889e-03
-4.6572746e-03
-3.4908285e-03
-4.0502230e-03
-6.1106108e-03
-7.3401193e-03
-7.8985388e-03
-8.1758002e-03
-1.0131083e-02
-1.2584098e-02
-1.2898630e-02
-1.4700561e-02
-1.8651174e-02
-2.3616061e-02
-2.8913347e-02
-3.2629496e-02
-3.5752881e-02
-3.9017518e-02
-4.3190888e-02
-4.5789406e-02
-4.4745295e-02
-4.2929343e-02
-3.9950445e-02
-3.6532945e-02
-3.2680899e-02
-2.5082600e-02
-1.1750732e-02
6.2547200e-03
2.1263668e-02
3.0287715e-02
3.5852704e-02
3.8801915e-02
4.1079708e-02
4.1433529e-02
4.0185821e-02
3.9006053e-02
3.7443098e-02
3.8475426e-02
4.0775687e-02
4.2058385e-02
4.3443767e-02
4.3628202e-02
4.2420653e-02
3.8899311e-02
3.4683173e-02
3.1446420e-02
2.7152010e-02
2.3717998e-02
2.0812492e-02
1.6944342e-02
1.2864634e-02
7.6199115e-03
3.0595916e-03
6.6384610e-04
-1.6949158e-04
-1.0421153e-03
-2.8426207e-03
-3.4610563e-03
-3.9629295e-03
-4.4216966e-03
-3.6185800e-03
-2.3625741e-03
-6.5534275e-04
3.1039420e-04
1.8092608e-03
3.6898796e-03
4.8314936e-03
7.3534195e-03
9.8698963e-03
1.2077547e-02
1.3943818e-02
1.4967031e-02
1.5625924e-02
1.3441784e-02
9.4465303e-03
4.3018346e-03
-3.6214531e-03
-1.2301981e-02
-2.0345776e-02
-2.6031317e-02
-2.9277772e-02
-3.0290982e-02
-2.7470239e-02
-2.2981459e-02
-1.7162476e-02
-1.1890222e-02
-9.0882524e-03
-6.3188590e-03
-5.2848956e-03
-6.4187763e-03
-8.5513062e-03
-1.0246029e-02
-9.5724749e-03
-9.0545187e-03
-8.9623539e-03
-8.0576595e-03
-5.8559675e-03
-1.5396703e-03
2.9479924e-03
6.9020961e-03
8.7158237e-03
7.7144487e-03
5.4893243e-03
1.2039715e-03
-3.1747391e-03
-6.9797039e-03
-9.8184509e-03
-1.0816202e-02
-1.2571740e-02
-1.4821926e-02
-1.8308934e-02
-2.2431394e-02
-2.4195884e-02
-2.4834995e-02
-2.5331262e-02
-2.7148129e-02
-2.9579497e-02
-2.9507576e-02
-2.7829160e-02
-2.5516969e-02
-2.4061928e-02
-2.2249977e-02
-1.7689802e-02
-1.2578879e-02
-6.5020691e-03
4.2711791e-04
8.8366362e-03
1.9779618e-02
2.9895444e-02
3.7910351e-02
4.1425123e-02
4.0906364e-02
3.9810384e-02
3.7663220e-02
3.4388191e-02
2.9251851e-02
2.4462158e-02
2.2070278e-02
2.0692136e-02
2.1549104e-02
2.2974442e-02
2.3874230e-02
2.5616925e-02
2.7536597e-02
2.9504908e-02
2.9462984e-02
2.7578014e-02
2.5282413e-02
2.2166025e-02
1.8913845e-02
1.2705824e-02
3.5154042e-03
-4.5857376e-03
-9.4738606e-03
-1.0583610e-02
-1.2299493e-02
-1.5472496e-02
-1.7137902e-02
-1.8010487e-02
-1.8197300e-02
-1.8450078e-02
-1.8625176e-02
-1.8412373e-02
-1.7863861e-02
-1.6487872e-02
-1.6907920e-02
-1.8754530e-02
-2.0242515e-02
-2.1024510e-02
-1.9835296e-02
-1.8002856e-02
-1.5659884e-02
-1.3529459e-02
-1.2289085e-02
-1.0185243e-02
-9.9298801e-03
-1.2080255e-02
-1.4875572e-02
-1.6705994e-02
-1.5662641e-02
-1.5152908e-02
-1.5599652e-02
-1.5081181e-02
-1.3533183e-02
-1.0535858e-02
-8.4643328e-03
-7.3328178e-03
-6.5216560e-03
-5.2264504e-03
-1.8753961e-03
-5.1429031e-04
-2.1984259e-03
-5.5352755e-03
-1.0374567e-02
-1.4520915e-02
-1.8102921e-02
-2.0705000e-02
-2.1873153e-02
-2.1891790e-02
-2.0504135e-02
-1.9217093e-02
-1.5440516e-02
-8.9242611e-03
-3.4881659e-03
4.5347704e-04
2.6681782e-03
4.8848826e-03
7.1953297e-03
9.7212431e-03
1.3694533e-02
1.6124514e-02
1.6470776e-02
1.5160379e-02
1.3372306e-02
1.2681229e-02
1.0779038e-02
7.7036149e-03
4.0468046e-03
1.0865940e-03
1.2825695e-04
-1.2880380e-03
-3.0111654e-03
-4.7390914e-03
-5.6783086e-03
-4.5143262e-03
-3.7670859e-03
-2.7453253e-03
-6.3619084e-04
2.1362813e-03
6.5616715e-03
1.1369410e-02
1.6438588e-02
1.9811015e-02
2.1346640e-02
2.3209142e-02
2.3609152e-02
2.3170009e-02
2.1557837e-02
1.9392316e-02
1.9048414e-02
1.9178305e-02
2.0070116e-02
2.1064919e-02
2.1629276e-02
2.2358352e-02
2.2600693e-02
2.2882565e-02
2.1809377e-02
2.0645952e-02
2.0694446e-02
1.8257185e-02
1.2763750e-02
5.1866394e-03
-1.6914787e-03
-5.9533048e-03
-9.4862015e-03
-1.2248051e-02
-1.5706710e-02
-1.9759553e-02
-2.2438239e-02
-2.3473452e-02
-2.2546434e-02
-2.2780270e-02
-2.4503415e-02
-2.5487556e-02
-2.5362253e-02
-2.3212243e-02
-2.1177640e-02
-2.0064571e-02
-2.0041181e-02
-2.1040615e-02
-2.0746788e-02
-2.0583753e-02
-1.9569985e-02
-1.6461913e-02
-1.1551141e-02
-2.8419775e-03
6.2344845e-03
1.3033189e-02
1.7337487e-02
1.8369157e-02
1.8955137e-02
1.9481727e-02
1.9934036e-02
2.0057510e-02
1.8066142e-02
1.4765248e-02
9.2539674e-03
3.3028279e-03
-1.0198481e-03
-4.0165166e-03
-3.4617443e-03
-1.7113063e-03
-4.6890026e-04
1.2274146e-03
3.2624365e-03
7.1577896e-03
1.0716085e-02
1.1881439e-02
1.0608161e-02
7.7169967e-03
5.6885838e-03
3.8210880e-03
2.8367157e-03
2.5890136e-03
2.3096481e-03
4.7471800e-03
8.6378757e-03
1.2403656e-02
1.4676087e-02
1.5436405e-02
1.7129899e-02
1.8572556e-02
2.0236381e-02
2.1313440e-02
2.0468815e-02
1.9376443e-02
1.6983324e-02
1.4661297e-02
1.3310215e-02
1.1515361e-02
1.0103156e-02
7.0778115e-03
2.5961448e-03
-1.6381409e-03
-5.5913550e-03
-9.5663242e-03
-1.5685047e-02
-2.1398025e-02
-2.5085885e-02
-2.7102014e-02
-2.6362290e-02
-2.5256135e-02
-2.4202235e-02
-2.2772976e-02
-1.9925300e-02
-1.5093953e-02
-1.1609617e-02
-8.6244683e-03
-5.0820106e-03
-1.2943878e-03
3.2272841e-03
6.4850518e-03
9.0159282e-03
1.0591593e-02
1.1152651e-02
1.1356506e-02
8.8733921e-03
6.0009103e-03
4.0807274e-03
1.8571635e-03
-4.9565184e-04
-4.6300462e-03
-9.6027499e-03
-1.4534442e-02
-1.7902907e-02
-1.7353297e-02
-1.5115965e-02
-1.3010280e-02
-1.3367756e-02
-1.4791516e-02
-1.3771193e-02
-1.3770279e-02
-1.6178298e-02
-1.9437447e-02
-2.1005508e-02
-1.9478022e-02
-1.8301842e-02
-1.7520005e-02
-1.6769581e-02
-1.5557077e-02
-1.2164323e-02
-8.2348524e-03
-4.5777455e-03
-2.4392083e-03
5.2705575e-04
7.7648128e-03
1.5660443e-02
2.0987797e-02
2.2333326e-02
2.1050992e-02
1.9773708e-02
1.8263643e-02
1.7189753e-02
1.4225712e-02
8.7918548e-03
4.6741795e-03
2.3812449e-03
1.5565683e-03
3.5102579e-04
-1.1703018e-03
-1.5074364e-03
-1.0413274e-03
1.3984251e-03
3.6927281e-03
5.6654670e-03
8.4988569e-03
1.0507633e-02
1.3005193e-02
1.3965476e-02
1.1921491e-02
8.5913119e-03
5.1082136e-03
3.8653581e-03
3.2694833e-03
2.2164069e-03
1.0876627e-03
3.0906716e-04
2.5380358e-03
5.0318772e-03
5.8677124e-03
6.9568330e-03
8.1547530e-03
8.9103297e-03
7.2782269e-03
4.8040671e-03
3.4822942e-03
2.1580499e-03
1.3861329e-03
-1.5193479e-04
-1.8818722e-03
-2.4706040e-03
-3.4477665e-03
-3.5561643e-03
-3.4197048e-03
-4.4487990e-03
-6.2803080e-03
-7.7296621e-03
-7.4400270e-03
-7.9590682e-03
-8.7019573e-03
-8.9737171e-03
-9.3003706e-03
-6.7764672e-03
-2.7964454e-03
1.7032105e-03
6.2299524e-03
9.6863587e-03
1.2748785e-02
1.3255980e-02
1.2761189e-02
1.2324470e-02
1.1114221e-02
1.0799728e-02
9.8851089e-03
8.8187476e-03
8.4048203e-03
8.1264010e-03
8.4780426e-03
6.7124737e-03
2.5311831e-03
-2.6125260e-03
-7.3045678e-03
-9.3405421e-03
-9.8430079e-03
-8.1961483e-03
-4.5095950e-03
-9.6992306e-04
1.8911465e-03
3.4326653e-03
5.2286151e-03
6.0845059e-03
5.1607035e-03
5.1336673e-03
4.4487960e-03
3.9058964e-03
4.8231741e-03
6.3276590e-03
9.1031020e-03
1.1844445e-02
1.4236984e-02
1.5432142e-02
1.5989549e-02
1.7988826e-02
1.9285408e-02
1.8411854e-02
1.3424118e-02
6.1841043e-03
1.4495412e-03
-2.2679300e-03
-5.7877295e-03
-9.8453194e-03
-1.3632488e-02
-1.4819487e-02
-1.5560646e-02
-1.6266116e-02
-1.7513579e-02
-1.8053773e-02
-1.5581703e-02
-1.2219690e-02
-8.0671237e-03
-5.1966875e-03
-4.2354251e-03
-2.1765836e-03
-1.5290481e-04
1.3428988e-03
5.4212727e-04
-2.2374192e-03
-3.2021135e-03
-2.9160778e-03
-2.9860750e-03
-5.8419609e-03
-9.8646134e-03
-1.1979153e-02
-1.4185286e-02
-1.5818144e-02
-1.6780409e-02
-1.7487580e-02
-1.7552746e-02
-1.8281412e-02
-1.8141018e-02
-1.8636151e-02
-2.0587341e-02
-2.1535600e-02
-2.2391043e-02
-2.4171033e-02
-2.8106512e-02
-3.2661087e-02
-3.5979046e-02
-3.7881171e-02
-3.7112221e-02
-3.5982856e-02
-3.3937985e-02
-2.8456537e-02
-2.0669981e-02
-1.1090614e-02
-5.2528174e-04
1.0830874e-02
2.0313205e-02
2.7162263e-02
3.4599833e-02
3.9852854e-02
4.1786344e-02
4.2205672e-02
4.1480189e-02
4.1061902e-02
4.0341367e-02
4.0098764e-02
4.0233541e-02
3.9559918e-02
4.0011625e-02
4.0843576e-02
4.1115162e-02
4.0160911e-02
3.8368324e-02
3.7654932e-02
3.5062596e-02
2.9827098e-02
2.2723050e-02
1.4335594e-02
7.6057606e-03
-5.6895324e-06
-8.8855267e-03
-1.5347643e-02
-1.8777115e-02
-1.9754736e-02
-1.9332246e-02
-1.7049080e-02
-1.5057714e-02
-1.4363258e-02
-1.2662840e-02
-1.1454294e-02
-1.0350602e-02
-9.3432842e-03
-9.0821107e-03
-7.9237612e-03
-6.7753822e-03
-4.1645013e-03
2.1951043e-05
2.8230177e-03
3.6325355e-03
2.1065592e-03
1.5069930e-04
-2.0256464e-03
-4.8885525e-03
-7.3392728e-03
-1.0386784e-02
-1.2091300e-02
-1.2599643e-02
-1.3359006e-02
-1.3075501e-02
-1.2994004e-02
-1.2163653e-02
-1.0605687e-02
-9.0588319e-03
-6.2971057e-03
-4.0790587e-03
-2.2415269e-03
-5.3894534e-04
1.3876925e-03
4.0406521e-03
5.1878629e-03
5.6516793e-03
5.9441902e-03
6.7274534e-03
8.7315041e-03
1.0288368e-02
1.2005707e-02
1.2777479e-02
1.1815365e-02
9.6603388e-03
6.9217530e-03
5.8164376e-03
3.8494844e-03
1.1500213e-03
-6.0615860e-04
-3.6436058e-03
-5.5578163e-03
-6.1135303e-03
-6.3723984e-03
-5.0347459e-03
-3.3613538e-03
-2.3291920e-03
-3.6196921e-03
-5.6490885e-03
-6.3710169e-03
-7.0120516e-03
-6.2674698e-03
-5.7925222e-03
-6.2398115e-03
-5.6836551e-03
-4.3698062e-03
-1.4428766e-03
1.1224998e-03
2.9814768e-03
5.2291202e-03
6.7427304e-03
8.2768053e-03
8.0060026e-03
5.5166551e-03
2.2637871e-03
-1.4754070e-03
-4.7305867e-03
-9.0334032e-03
-1.2995477e-02
-1.5123716e-02
-1.6789028e-02
-1.7223828e-02
-1.7954540e-02
-1.9411841e-02
-2.0759117e-02
-2.1696655e-02
-2.1247393e-02
-2.2432949e-02
-2.5753548e-02
-2.9498246e-02
-3.2636649e-02
-3.3089464e-02
-3.1924599e-02
-2.8206274e-02
-2.0494882e-02
-9.0391275e-03
4.5895999e-03
1.4789151e-02
2.1315571e-02
2.6379672e-02
3.0134286e-02
3.3127254e-02
3.3540081e-02
3.2421388e-02
3.0603426e-02
2.7576048e-02
2.5751222e-02
2.4400015e-02
2.2546500e-02
2.0573426e-02
1.9466609e-02
2.0198494e-02
2.0629941e-02
2.1114336e-02
2.1070647e-02
2.0144944e-02
2.0395166e-02
1.9935725e-02
1.7631008e-02
1.1800563e-02
2.5746268e-03
-6.4651695e-03
-1.3648463e-02
-1.6469166e-02
-1.7152796e-02
-1.7960297e-02
-1.6259443e-02
-1.2258452e-02
-6.7343775e-03
-1.7641255e-03
2.2926500e-03
6.2123292e-03
8.4454624e-03
9.3278482e-03
7.6250028e-03
3.9056989e-03
3.8039319e-04
-2.9422446e-03
-5.3205099e-03
-8.4471990e-03
-1.1912211e-02
-1.3152158e-02
-1.2572796e-02
-1.0391622e-02
-8.8550382e-03
-8.5080275e-03
-8.2683703e-03
-8.8371843e-03
-8.0915679e-03
-6.3600248e-03
-4.6011564e-03
-2.4853763e-03
-1.4925006e-03
-1.0997077e-03
-1.5303635e-03
-2.4394644e-03
-3.4164147e-03
-4.8040978e-03
-5.5719124e-03
-7.0907039e-03
-9.4663055e-03
-1.2494913e-02
-1.6245599e-02
-1.8697497e-02
-2.0737087e-02
-2.2580111e-02
-2.3979395e-02
-2.4604366e-02
-2.2578149e-02
-1.9123250e-02
-1.3503754e-02
-5.2791154e-03
3.3481223e-03
1.0932949e-02
1.5289141e-02
1.8400635e-02
2.1571208e-02
2.3703335e-02
2.5540153e-02
2.6155804e-02
2.6938544e-02
2.8273722e-02
2.9401401e-02
3.1088111e-02
3.2166208e-02
3.3913063e-02
3.5093460e-02
3.5403394e-02
3.7505972e-02
3.9240101e-02
3.9421972e-02
3.6302913e-02
3.0440809e-02
2.4270423e-02
1.6382884e-02
7.7059099e-03
-2.0548158e-03
-1.1874386e-02
-1.8869285e-02
-2.3564062e-02
-2.5212833e-02
-2.5565169e-02
-2.5184299e-02
-2.2149305e-02
-1.8043808e-02
-1.3860362e-02
-1.1889653e-02
-1.1293590e-02
-8.6790838e-03
-4.7927797e-03
-1.6139068e-04
3.4232747e-03
6.4995709e-03
1.0086731e-02
1.2639348e-02
1.5878547e-02
1.8768151e-02
2.0037947e-02
1.9938082e-02
1.6834805e-02
1.0405879e-02
8.1749305e-04
-8.1898129e-03
-1.5137487e-02
-2.1463952e-02
-2.5988642e-02
-3.0689942e-02
-3.4026111e-02
-3.3645012e-02
-3.2006004e-02
-2.9062111e-02
-2.5701946e-02
-2.2537793e-02
-1.9705050e-02
-1.7564901e-02
-1.5414612e-02
-1.5558457e-02
-1.7323898e-02
-1.8355640e-02
-1.7511953e-02
-1.3865639e-02
-9.9459647e-03
-6.1116905e-03
-2.1206658e-03
1.9143671e-03
6.2086755e-03
8.3520195e-03
9.3148625e-03
9.7808059e-03
9.7812967e-03
1.0968478e-02
1.1302804e-02
9.8362891e-03
6.1289030e-03
9.2001045e-04
-3.1021190e-03
-7.1453773e-03
-1.1026574e-02
-1.4877815e-02
-1.8722023e-02
-2.1334374e-02
-2.4850162e-02
-2.8443362e-02
-3.1812526e-02
-3.4084527e-02
-3.2916308e-02
-3.0331358e-02
-2.7488764e-02
-2.6064600e-02
-2.4426094e-02
-1.8391489e-02
-9.2921361e-03
5.0152860e-04
7.8938208e-03
1.2755091e-02
1.6748038e-02
1.9558207e-02
2.3309701e-02
2.6598960e-02
2.7805958e-02
2.8640087e-02
2.9270651e-02
2.9616644e-02
2.7724767e-02
2.4527244e-02
2.2152911e-02
1.9817565e-02
1.8262143e-02
1.6452821e-02
1.5490497e-02
1.7193490e-02
1.9849291e-02
2.2386469e-02
2.2084523e-02
1.8666440e-02
1.3606527e-02
7.9547037e-03
3.2133440e-03
-1.8935984e-03
-5.8362135e-03
-8.1833304e-03
-9.5050812e-03
-8.1345978e-03
-6.5186710e-03
-5.0732834e-03
-3.9558216e-03
-3.0652984e-03
-2.8708825e-04
2.2038410e-03
4.1753098e-03
6.0593375e-03
7.9933834e-03
1.1409437e-02
1.4601332e-02
1.6510172e-02
1.5973374e-02
1.3521851e-02
1.1680729e-02
9.7850860e-03
7.5296844e-03
3.0193522e-03
-3.2066609e-03
-7.2299926e-03
-9.9984652e-03
-1.2143103e-02
-1.4008975e-02
-1.4649241e-02
-1.2752300e-02
-9.9172589e-03
-5.6168594e-03
-1.8618857e-03
7.1029276e-04
4.5863282e-03
9.9083375e-03
1.6380667e-02
2.0497667e-02
2.2384292e-02
2.4421403e-02
2.5441859e-02
2.6251760e-02
2.5059171e-02
2.2213380e-02
2.0344084e-02
1.8434242e-02
1.6980039e-02
1.3424059e-02
6.9261481e-03
8.7064107e-04
-3.9809409e-03
-7.1503027e-03
-1.1165928e-02
-1.6124744e-02
-2.0211039e-02
-2.4544009e-02
-2.8030131e-02
-3.1605458e-02
-3.4514576e-02
-3.5599371e-02
-3.6627226e-02
-3.6778737e-02
-3.7664072e-02
-3.9162328e-02
-3.9140017e-02
-3.8244715e-02
-3.6306699e-02
-3.3988598e-02
-3.0291909e-02
-2.5840194e-02
-2.1932463e-02
-1.6880485e-02
-1.1619272e-02
-5.2698991e-03
1.6900215e-03
6.6771782e-03
1.0355995e-02
1.3343567e-02
1.7166092e-02
2.0537029e-02
2.1919712e-02
2.2817769e-02
2.2162111e-02
2.0753579e-02
1.9143880e-02
1.7143569e-02
1.5919140e-02
1.3837321e-02
1.0838255e-02
6.4469100e-03
1.4806864e-03
-1.3508255e-03
-2.7308251e-03
-2.3052241e-03
-1.3349971e-03
-3.6601165e-04
9.2386283e-04
5.0751865e-04
-4.9264344e-04
-2.2321686e-03
-3.2735733e-03
-1.5383994e-03
3.1662709e-04
1.6202479e-03
8.1201071e-04
-1.7912343e-03
-3.2839363e-03
-3.7063891e-03
-2.8689056e-03
-1.9201184e-03
6.4156305e-05
3.9572377e-03
7.5912953e-03
1.0323290e-02
1.0148418e-02
8.9993239e-03
9.3157390e-03
8.6329870e-03
7.2400755e-03
5.6879173e-03
5.0310190e-03
5.1626207e-03
4.6283473e-03
4.7080342e-03
4.4845231e-03
3.5528559e-03
1.6330155e-03
-1.1263344e-03
-2.5601421e-03
-4.5023526e-03
-6.9363353e-03
-7.8198815e-03
-6.6925658e-03
-3.3601222e-03
1.4505052e-04
3.3830925e-03
5.3740912e-03
5.4328317e-03
5.5029160e-03
5.5954646e-03
6.4001771e-03
7.3277358e-03
8.4756329e-03
1.0902842e-02
1.1232135e-02
8.8929668e-03
4.7949050e-03
-6.0524426e-04
-5.0383773e-03
-8.7081898e-03
-1.1663393e-02
-1.4791697e-02
-1.7347607e-02
-1.7110389e-02
-1.6740925e-02
-1.7263512e-02
-1.9287357e-02
-2.2081717e-02
-2.3321138e-02
-2.4072948e-02
-2.4299207e-02
-2.5307934e-02
-2.6555316e-02
-2.6122510e-02
-2.5060565e-02
-2.2945784e-02
-2.1468952e-02
-2.0390458e-02
-1.8268140e-02
-1.6573063e-02
-1.4196530e-02
-1.0994739e-02
-5.5454263e-03
2.9313616e-03
1.0685328e-02
1.6249584e-02
1.8640479e-02
1.9095321e-02
2.0153133e-02
2.2699405e-02
2.7409742e-02
3.0636015e-02
3.1442362e-02
3.1621599e-02
3.1363414e-02
3.1868346e-02
3.1231343e-02
2.9934939e-02
2.9164447e-02
2.8363498e-02
2.8336011e-02
2.6750055e-02
2.4389208e-02
2.2301447e-02
1.9552535e-02
1.7603411e-02
1.4359751e-02
8.4102577e-03
3.3754123e-04
-7.5771095e-03
-1.1916337e-02
-1.4508603e-02
-1.5807067e-02
-1.6538277e-02
-1.7857167e-02
-1.7114154e-02
-1.4925296e-02
-1.2513341e-02
-1.0763124e-02
-9.1228485e-03
-6.3790772e-03
-4.6483791e-03
-3.4383389e-03
-3.0417096e-03
-2.5392646e-03
6.4327815e-04
3.8984521e-03
5.8472708e-03
5.2614240e-03
2.5481091e-03
1.3255936e-03
1.9059135e-03
3.5208679e-03
3.5599611e-03
1.5242705e-03
-1.6222620e-04
-1.8802425e-03
-2.1267664e-03
-6.5136480e-04
1.3679004e-03
3.2755911e-03
4.8456328e-03
7.5285079e-03
8.1734242e-03
7.2336971e-03
7.6762805e-03
8.7627035e-03
1.1965246e-02
1.4879791e-02
1.6780872e-02
1.9773203e-02
2.1719080e-02
2.1748527e-02
2.0001651e-02
1.8915646e-02
1.7909790e-02
1.4573961e-02
1.1171591e-02
7.6774607e-03
4.8864844e-03
2.4009396e-03
-1.1604824e-03
-4.0981867e-03
-8.5951700e-03
-1.5367048e-02
-2.2458736e-02
-2.8763320e-02
-3.2422343e-02
-3.5233036e-02
-3.8154006e-02
-4.0367695e-02
-4.1623490e-02
-4.1788282e-02
-4.3232516e-02
-4.4269848e-02
-4.3687824e-02
-4.2508633e-02
-3.9335313e-02
-3.5163000e-02
-2.9694404e-02
-2.3071612e-02
-1.5907076e-02
-6.4578802e-03
3.5412974e-03
1.1699345e-02
1.6356557e-02
1.8296527e-02
2.0250842e-02
2.1413750e-02
2.1932452e-02
2.1728614e-02
2.0413569e-02
1.8656460e-02
1.4734734e-02
9.3328151e-03
4.4840648e-03
2.0722046e-03
1.0823186e-03
-2.4785814e-03
-7.7714017e-03
-1.4117297e-02
-1.9592536e-02
-2.1643266e-02
-2.2104767e-02
-2.0721163e-02
-1.7595685e-02
-1.2080590e-02
-2.8534735e-03
6.9202006e-03
1.4297445e-02
1.7564146e-02
1.8410756e-02
1.8390425e-02
1.7199648e-02
1.7077536e-02
1.6464908e-02
1.5050371e-02
1.4281618e-02
1.3542516e-02
1.4634775e-02
1.6603351e-02
1.9514172e-02
2.3841720e-02
2.7964092e-02
3.2412902e-02
3.4337597e-02
3.2598584e-02
2.9004135e-02
2.4622230e-02
2.0582557e-02
1.4369918e-02
6.0065286e-03
-3.0620853e-03
-1.2212845e-02
-1.9015898e-02
-2.4489153e-02
-2.8286019e-02
-3.0063210e-02
-3.0467216e-02
-2.8819034e-02
-2.8390016e-02
-2.9066492e-02
-2.8652633e-02
-2.7425627e-02
-2.6094498e-02
-2.5521859e-02
-2.3953311e-02
-2.2089318e-02
-2.0233274e-02
-1.7611657e-02
-1.6162645e-02
-1.4771482e-02
-1.3326098e-02
-1.1209504e-02
-7.2615037e-03
-4.1564112e-03
-2.0476163e-03
-1.0703982e-03
6.9781800e-04
5.6728583e-03
1.0879094e-02
1.4669344e-02
1.4939789e-02
1.1996719e-02
8.9310589e-03
5.9994003e-03
4.5056753e-03
3.9916421e-03
4.2617752e-03
6.0417602e-03
8.4121431e-03
1.1659187e-02
1.3991097e-02
1.5111926e-02
1.5471487e-02
1.4124532e-02
1.2722220e-02
1.0437354e-02
8.4586174e-03
9.1017167e-03
1.0816188e-02
1.2788126e-02
1.2567827e-02
1.0390174e-02
8.4957431e-03
7.0223782e-03
6.1487057e-03
3.9735475e-03
1.7304669e-03
1.1265807e-03
1.3367003e-03
2.4527292e-03
1.9546260e-03
1.1324401e-04
-2.1215173e-03
-4.0161753e-03
-2.8302216e-03
-1.3217654e-03
-1.1385340e-03
-2.1565418e-03
-3.4221924e-03
-2.2501204e-03
-8.4096550e-04
2.4165072e-04
9.1008636e-04
1.5396521e-03
5.2095886e-03
9.6315993e-03
1.2921173e-02
1.3727639e-02
1.2267895e-02
1.2105010e-02
1.1502342e-02
8.5423244e-03
2.6286227e-03
-4.4486505e-03
-9.5575485e-03
-1.3887198e-02
-1.7652896e-02
-2.1962923e-02
-2.6004460e-02
-2.6693280e-02
-2.5085032e-02
-2.1891234e-02
-1.9626301e-02
-1.8735210e-02
-1.6770964e-02
-1.5139430e-02
-1.3815581e-02
-1.3329418e-02
-1.2529277e-02
-8.6760829e-03
-1.5067541e-03
9.4591280e-03
1.9165804e-02
2.5171229e-02
3.0022476e-02
3.3889673e-02
3.7700915e-02
3.9969924e-02
4.1640576e-02
4.4503047e-02
4.6666451e-02
4.8430984e-02
4.8486062e-02
4.6550494e-02
4.4110608e-02
4.1907472e-02
4.0705026e-02
3.7946000e-02
3.4887979e-02
3.3979732e-02
3.4777740e-02
3.7462932e-02
3.8172838e-02
3.5149497e-02
2.7670332e-02
1.3509996e-02
-3.2524392e-03
-1.7744316e-02
-2.7557403e-02
-3.3698010e-02
-3.8144812e-02
-4.0638926e-02
-4.3025574e-02
-4.4440671e-02
-4.5134105e-02
-4.7169745e-02
-4.8889499e-02
-5.0710744e-02
-5.0837323e-02
-4.8583871e-02
-4.6811262e-02
-4.5318317e-02
-4.5060051e-02
-4.6039348e-02
-4.7991275e-02
-5.0112143e-02
-5.0076266e-02
-4.8627903e-02
-4.4407592e-02
-3.6908601e-02
-2.6003901e-02
-1.1729978e-02
-9.6727717e-05
6.9471279e-03
1.0865748e-02
1.3712133e-02
1.7640925e-02
1.9855750e-02
1.9798297e-02
1.8669041e-02
1.8628390e-02
2.0890222e-02
2.3347467e-02
2.6862773e-02
3.0660338e-02
3.4589626e-02
3.9319265e-02
4.2524482e-02
4.4644740e-02
4.4964730e-02
4.3041921e-02
3.9726989e-02
3.5062334e-02
2.9835230e-02
2.1416686e-02
9.9783622e-03
-2.1202996e-03
-1.4181251e-02
-2.3756502e-02
-3.1538475e-02
-3.6954812e-02
-3.8893025e-02
-3.9425014e-02
-3.8970033e-02
-3.9103819e-02
-3.9001814e-02
-3.7810953e-02
-3.6889074e-02
-3.4792127e-02
-3.2493589e-02
-2.9801692e-02
-2.6353020e-02
-2.3347651e-02
-1.9453889e-02
-1.7152323e-02
-1.6457938e-02
-1.4977219e-02
-1.2923436e-02
-8.8406303e-03
-3.1484216e-03
4.5467444e-03
1.3386336e-02
2.0496057e-02
2.5202652e-02
2.6207474e-02
2.4739321e-02
2.1779482e-02
1.8957779e-02
1.8369159e-02
1.7522611e-02
1.6964546e-02
1.6273943e-02
1.4533928e-02
1.4655392e-02
1.6279885e-02
1.8075455e-02
1.8475850e-02
1.8686319e-02
2.1570596e-02
2.4626939e-02
2.6291367e-02
2.6833728e-02
2.7068668e-02
2.7262200e-02
2.4121475e-02
1.6569988e-02
5.0848055e-03
-6.6774960e-03
-1.4086879e-02
-1.8174060e-02
-1.9646513e-02
-2.0148223e-02
-2.0927520e-02
-2.2286738e-02
-2.5613677e-02
-2.9143785e-02
-3.3550502e-02
-3.8453790e-02
-4.1382840e-02
-4.3481018e-02
-4.4941316e-02
-4.6491166e-02
-4.7267459e-02
-4.5905679e-02
-4.3843037e-02
-4.0681157e-02
-3.8146738e-02
-3.5511818e-02
-2.8406109e-02
-1.6399848e-02
7.6541581e-05
1.6870366e-02
3.0301170e-02
4.0962639e-02
4.9611483e-02
5.7531626e-02
6.2814492e-02
6.5566891e-02
6.7269637e-02
6.7295330e-02
6.6301591e-02
6.2389566e-02
5.6927750e-02
5.2373440e-02
4.7884282e-02
4.4517165e-02
4.0696379e-02
3.5957559e-02
3.2143776e-02
2.9872544e-02
2.9300340e-02
2.7466344e-02
2.3586125e-02
1.7248065e-02
6.7727167e-03
-6.5968712e-03
-2.0929872e-02
-3.1350718e-02
-3.6693737e-02
-3.9058424e-02
-3.7891240e-02
-3.5711057e-02
-3.2972736e-02
-2.8675729e-02
-2.4038738e-02
-2.0162712e-02
-1.7420245e-02
-1.3324515e-02
-8.9831588e-03
-5.5838976e-03
-1.1211057e-03
2.1467160e-03
3.7048147e-03
3.9533453e-03
3.0869732e-03
2.3195684e-03
-2.7172164e-04
-3.6487149e-03
-7.1032577e-03
-1.0041674e-02
-1.0153155e-02
-9.6898565e-03
-9.7900064e-03
-1.1263803e-02
-1.4127384e-02
-1.5770413e-02
-1.5776658e-02
-1.4163918e-02
-1.2509173e-02
-1.0958119e-02
-8.5487766e-03
-6.5619560e-03
-5.2300284e-03
-5.9431849e-03
-7.2489642e-03
-6.7880116e-03
-5.8596622e-03
-4.0351403e-03
-2.3515565e-03
-5.2338770e-04
2.9573290e-03
6.2423861e-03
8.8153989e-03
9.5345984e-03
9.4206546e-03
9.6037951e-03
8.6090722e-03
7.1640958e-03
3.4559048e-03
-1.4207197e-03
-4.6341659e-03
-7.1433917e-03
-8.8035902e-03
-1.1737651e-02
-1.5685643e-02
-1.8390124e-02
-2.0178518e-02
-2.0822376e-02
-2.2202645e-02
-2.3670371e-02
-2.4140532e-02
-2.4545973e-02
-2.3707700e-02
-2.3330385e-02
-2.3867185e-02
-2.3706591e-02
-2.2012925e-02
-1.8722894e-02
-1.5835229e-02
-1.1187392e-02
-2.9277858e-03
7.0559211e-03
1.6510340e-02
2.2822828e-02
2.6850697e-02
2.8546818e-02
2.8329863e-02
2.7734557e-02
2.4289065e-02
1.9579862e-02
1.5421332e-02
1.2971099e-02
1.3950582e-02
1.4269360e-02
1.3489750e-02
1.2775212e-02
1.2126902e-02
1.2479297e-02
1.2034362e-02
1.1015962e-02
9.1134036e-03
6.7466603e-03
5.5856138e-03
4.0230765e-03
2.0746098e-03
-1.3644160e-04
-9.8539228e-04
1.1164672e-03
3.7046339e-03
6.9275109e-03
9.1296300e-03
9.4271169e-03
1.0199450e-02
1.0397119e-02
1.0326344e-02
9.2541018e-03
8.0538610e-03
9.1790618e-03
1.0897535e-02
1.2427049e-02
1.1364406e-02
9.0432207e-03
9.5697662e-03
1.1902416e-02
1.5270742e-02
1.6651731e-02
1.5850588e-02
1.5543182e-02
1.4262223e-02
1.0622009e-02
2.3354430e-03
-7.8767531e-03
-1.5249414e-02
-2.0492206e-02
-2.3610026e-02
-2.6496078e-02
-3.0154402e-02
-3.2584937e-02
-3.2244976e-02
-2.8976761e-02
-2.7168759e-02
-2.7055681e-02
-2.6480913e-02
-2.5744222e-02
-2.2670779e-02
-1.9081339e-02
-1.7405680e-02
-1.6678130e-02
-1.6410627e-02
-1.5960988e-02
-1.6793127e-02
-1.7134008e-02
-1.4610267e-02
-1.0668919e-02
-5.2581707e-03
5.6772836e-04
6.5494590e-03
1.1474929e-02
1.4356609e-02
1.7025933e-02
1.7576436e-02
1.6508802e-02
1.5945717e-02
1.6579466e-02
1.9643070e-02
2.2234810e-02
2.3528733e-02
2.4702469e-02
2.5908508e-02
2.7951349e-02
2.9189205e-02
2.9897231e-02
2.9910295e-02
2.8916622e-02
2.9009239e-02
2.8975693e-02
2.8071961e-02
2.4326166e-02
1.7395919e-02
1.0367038e-02
2.2313514e-03
-6.0138534e-03
-1.3330140e-02
-1.9039861e-02
-2.1709517e-02
-2.3332046e-02
-2.4122599e-02
-2.4615308e-02
-2.3999271e-02
-2.1195386e-02
-1.9347075e-02
-1.9088179e-02
-2.0233532e-02
-2.1120750e-02
-2.0391181e-02
-2.0355240e-02
-2.0919964e-02
-2.3013900e-02
-2.5149504e-02
-2.4698991e-02
-2.4247417e-02
-2.4280289e-02
-2.4401645e-02
-2.2574505e-02
-1.6465081e-02
-7.6943522e-03
2.5252367e-03
1.1088536e-02
1.6548506e-02
2.0008976e-02
2.2132292e-02
2.4592916e-02
2.4585946e-02
2.1773017e-02
1.8243023e-02
1.3836458e-02
1.0650139e-02
7.1926320e-03
3.6205180e-03
2.1197003e-03
1.5294332e-03
1.5543427e-03
2.0850638e-05
-2.1508313e-03
-2.7835167e-03
-3.9671349e-03
-6.1283210e-03
-9.0328227e-03
-1.0762211e-02
-1.0773947e-02
-1.0049392e-02
-7.5921808e-03
-5.6507967e-03
-4.3954272e-03
-2.2729277e-03
9.8374046e-04
5.6496645e-03
8.8145333e-03
1.1208987e-02
1.4169283e-02
1.6477650e-02
1.9067444e-02
2.1514197e-02
2.4123680e-02
2.6240689e-02
2.7325547e-02
2.9102036e-02
2.9806846e-02
2.8613391e-02
2.6575618e-02
2.4935715e-02
2.4262327e-02
2.1148343e-02
1.5230742e-02
7.7211735e-03
-9.8067264e-04
-8.6857267e-03
-1.4466546e-02
-1.7157225e-02
-1.8420722e-02
-1.8532552e-02
-1.6319275e-02
-1.4997440e-02
-1.4390602e-02
-1.3285561e-02
-1.0416995e-02
-5.4754039e-03
-1.9953872e-03
6.6380298e-04
2.0458312e-03
1.6008448e-03
1.9998960e-03
2.1773719e-03
1.5850634e-03
-1.1177287e-03
-4.8487322e-03
-6.7232124e-03
-8.8394972e-03
-1.0404146e-02
-1.1140932e-02
-1.1260030e-02
-9.5281977e-03
-7.7710588e-03
-5.7299957e-03
-4.4881550e-03
-4.4358574e-03
-3.5471356e-03
-1.8044059e-03
1.8620420e-03
5.2639132e-03
7.6538806e-03
1.1342348e-02
1.5106425e-02
1.8056532e-02
1.8520276e-02
1.7202607e-02
1.5134709e-02
1.0715388e-02
6.2024815e-03
2.4634478e-03
6.8224165e-05
-6.8885269e-04
-4.2305404e-04
2.3929100e-03
4.1069919e-03
3.0028689e-03
8.2548357e-04
-1.7657410e-03
-2.2221222e-03
-2.6203409e-03
-4.9519942e-03
-8.0516826e-03
-1.0120414e-02
-8.6691240e-03
-6.3814400e-03
-5.0224663e-03
-3.7244978e-03
-2.1123247e-03
6.6746090e-04
2.2879738e-03
2.5026163e-03
2.7749779e-03
3.0363708e-03
3.6913002e-03
2.9719195e-03
1.5292493e-03
7.3051211e-04
6.0081829e-04
1.8422547e-03
1.5846529e-03
-2.1298445e-04
-2.3283620e-03
-5.0377417e-03
-6.4034274e-03
-6.6149711e-03
-5.8038791e-03
-5.2991609e-03
-5.3625775e-03
-3.8814733e-03
-2.8388273e-03
-2.1609438e-03
-2.0751576e-03
-2.9359044e-03
-2.7529604e-03
-3.2432229e-03
-4.1105273e-03
-5.1427270e-03
-6.2880000e-03
-6.4589853e-03
-7.1358656e-03
-7.0461059e-03
-6.7095823e-03
-6.1347803e-03
-2.7693356e-03
1.4114659e-03
5.6232068e-03
9.1137573e-03
1.1441497e-02
1.3209935e-02
1.2795904e-02
1.1287282e-02
8.2249330e-03
4.0483961e-03
1.4801570e-03
-2.4169003e-04
-1.1592182e-03
-2.3130707e-03
-2.5696881e-03
-9.8800009e-04
-8.4398057e-04
-1.2373325e-03
-2.2703740e-03
-4.5512478e-03
-6.4816143e-03
-7.9513230e-03
-8.8408416e-03
-1.1526829e-02
-1.5255363e-02
-1.7814893e-02
-1.9916830e-02
-2.0007851e-02
-1.9288988e-02
-1.8386757e-02
-1.6355492e-02
-1.4486028e-02
-1.1743341e-02
-9.0817628e-03
-6.6852370e-03
-3.4306155e-03
2.8496790e-05
4.8563492e-03
8.6711682e-03
1.0757978e-02
1.2930373e-02
1.4161234e-02
1.3651490e-02
9.3043817e-03
3.9567787e-03
1.5941887e-03
8.9433726e-04
3.6288420e-04
-1.5512573e-03
-3.2677764e-03
-3.6137411e-03
-3.1266942e-03
-1.8446473e-03
-2.3353355e-03
-2.9039219e-03
-1.8893286e-03
-1.1188171e-03
-1.0692521e-04
-3.4468927e-04
-8.8932297e-04
5.6160324e-04
2.9723591e-03
6.3572849e-03
9.6086241e-03
1.2362362e-02
1.4280380e-02
1.6179415e-02
1.9842042e-02
2.2775709e-02
2.5587369e-02
2.8778840e-02
3.1189832e-02
3.2878058e-02
3.1244008e-02
2.6664395e-02
2.0082131e-02
1.2517545e-02
5.5675826e-03
-2.1172546e-03
-8.7772891e-03
-1.4365800e-02
-1.9193883e-02
-2.1513128e-02
-2.3995188e-02
-2.7215345e-02
-3.0743059e-02
-3.3495943e-02
-3.4169412e-02
-3.4414540e-02
-3.2796789e-02
-3.1062225e-02
-3.0905632e-02
-2.9726940e-02
-2.9426848e-02
-3.0548731e-02
-3.1579444e-02
-3.0923631e-02
-2.7475504e-02
-2.2653541e-02
-1.6391376e-02
-1.0576403e-02
-5.4431698e-03
1.3330773e-03
8.6871015e-03
1.5595391e-02
1.9249147e-02
1.9422436e-02
1.8991949e-02
1.7101287e-02
1.4195956e-02
1.0794412e-02
8.6508067e-03
9.4396634e-03
1.0610369e-02
1.1734562e-02
1.1557937e-02
1.0578869e-02
1.0487617e-02
1.0058523e-02
1.0457247e-02
1.0127969e-02
8.7500565e-03
7.7564592e-03
6.0776771e-03
5.4677167e-03
5.8465475e-03
7.3671576e-03
9.3694179e-03
9.1018100e-03
8.5848379e-03
8.3568611e-03
8.3090840e-03
8.9538475e-03
9.6390690e-03
1.1531343e-02
1.2981337e-02
1.3772297e-02
1.4736508e-02
1.4783912e-02
1.5684099e-02
1.6131926e-02
1.5675170e-02
1.5885989e-02
1.5839572e-02
1.5873458e-02
1.4510902e-02
1.1744759e-02
9.1645090e-03
7.9400585e-03
9.1355731e-03
9.1613088e-03
6.7648137e-03
2.2689631e-03
-4.2447492e-03
-9.1628976e-03
-1.2498573e-02
-1.4945846e-02
-1.6416735e-02
-1.6773271e-02
-1.4763730e-02
-1.3169273e-02
-1.2274346e-02
-1.1089308e-02
-1.0002943e-02
-7.2806453e-03
-4.1227180e-03
-1.1946678e-03
2.4465566e-03
7.1136608e-03
1.1749324e-02
1.2646968e-02
9.9358726e-03
5.4912701e-03
1.1667537e-03
-9.1148771e-04
-2.6925551e-03
-4.7074465e-03
-6.9182583e-03
-9.4737564e-03
-1.0908737e-02
-1.2434030e-02
-1.4489074e-02
-1.7639198e-02
-2.1432075e-02
-2.3584558e-02
-2.4981380e-02
-2.5560560e-02
-2.6049335e-02
-2.6236424e-02
-2.5475399e-02
-2.6281181e-02
-2.6940298e-02
-2.7124150e-02
-2.7171988e-02
-2.5697468e-02
-2.3904811e-02
-2.0859515e-02
-1.8547584e-02
-1.7799155e-02
-1.5150720e-02
-1.0575063e-02
-3.6644063e-03
4.3428779e-03
1.2563986e-02
2.1028429e-02
2.6743579e-02
2.9746659e-02
2.9691398e-02
2.6735992e-02
2.3286469e-02
1.9356074e-02
1.5237431e-02
1.0546326e-02
7.2455834e-03
6.8208052e-03
6.4805600e-03
5.6053853e-03
3.4319115e-03
2.0633902e-03
3.6466458e-03
5.8720387e-03
7.8897989e-03
8.5228800e-03
8.5627255e-03
8.4383436e-03
7.3896197e-03
5.7540801e-03
9.0362100e-04
-5.0227981e-03
-8.0210969e-03
-8.4815336e-03
-6.6582274e-03
-6.0087175e-03
-6.1708590e-03
-3.8923145e-03
-7.0792604e-04
2.2517477e-03
3.0099922e-03
2.8630457e-03
3.0543486e-03
2.4958174e-03
3.3806689e-03
4.9312836e-03
6.2849678e-03
6.6857902e-03
5.5306252e-03
4.9113420e-03
3.6603432e-03
2.2118122e-03
1.3032357e-03
-3.5935323e-04
-1.2677837e-03
-9.5092547e-04
5.3891291e-04
1.7625435e-03
2.1624916e-03
3.1210338e-03
2.5573894e-03
9.4502715e-04
-9.1019537e-04
-3.4230464e-03
-4.9428941e-03
-5.6565160e-03
-4.4432728e-03
-2.4846346e-03
-1.4283041e-03
5.0782375e-04
1.5138325e-03
1.2617804e-03
3.5167776e-04
-1.8839430e-04
2.0363652e-03
4.9644375e-03
7.7947150e-03
9.5684719e-03
9.6320526e-03
9.8326980e-03
8.1791496e-03
4.5977296e-03
4.2487569e-04
-2.8126609e-03
-3.0928172e-03
-2.5321671e-03
-1.0397982e-03
4.6625611e-04
7.6831366e-04
7.7268921e-04
-1.2818789e-03
-3.0055796e-03
-3.2578735e-03
-3.4530900e-03
-2.8548730e-03
-2.0255099e-03
4.3175603e-04
4.0167986e-03
7.7461608e-03
1.1923856e-02
1.3478527e-02
1.2052436e-02
9.0712377e-03
7.5617907e-03
9.5746252e-03
1.1300660e-02
1.1734894e-02
1.0910737e-02
9.4853970e-03
8.9519544e-03
7.0336087e-03
4.3321600e-03
1.0425555e-03
-3.1101469e-03
-6.3555140e-03
-8.5313083e-03
-8.4212194e-03
-7.6933539e-03
-7.1085764e-03
-6.1825412e-03
-7.0381289e-03
-7.9892179e-03
-7.9843987e-03
-5.4537975e-03
-6.0338376e-06
4.4372580e-03
7.2236796e-03
7.2343691e-03
5.5732738e-03
4.9779760e-03
5.0945794e-03
5.6492886e-03
4.1364685e-03
1.4841651e-03
2.6820946e-04
2.1673627e-04
1.9758409e-03
3.1733385e-03
3.7332573e-03
5.1369936e-03
6.3503924e-03
7.4364790e-03
5.3218224e-03
1.5139976e-03
9.8952727e-05
-9.9943800e-04
-2.2375942e-03
-4.2508334e-03
-6.8175848e-03
-8.5488785e-03
-1.0186690e-02
-1.1486363e-02
-1.4084419e-02
-1.7628115e-02
-2.0009284e-02
-2.0341001e-02
-1.7660702e-02
-1.4794428e-02
-1.2907182e-02
-1.1566932e-02
-1.0259791e-02
-7.1935296e-03
-4.6898638e-03
-4.0523170e-03
-4.7962341e-03
-4.6710671e-03
-7.8006678e-04
3.6393023e-03
8.1970384e-03
1.3552622e-02
1.7177612e-02
1.9527328e-02
2.0031578e-02
1.9368329e-02
1.8041073e-02
1.6118433e-02
1.4779185e-02
1.1360261e-02
6.4939476e-03
2.1257590e-03
-9.9158381e-04
-2.0002784e-03
-4.0399641e-03
-7.3181019e-03
-1.0813841e-02
-1.4115200e-02
-1.5486636e-02
-1.6557024e-02
-1.7535243e-02
-1.8538812e-02
-1.9672686e-02
-1.9297984e-02
-1.8692675e-02
-1.7550889e-02
-1.5758031e-02
-1.3387768e-02
-9.6238988e-03
-7.4001627e-03
-6.4979030e-03
-5.1637183e-03
-3.6861474e-03
-1.9213394e-03
-7.1599989e-04
1.0707515e-03
3.0103479e-03
4.5456426e-03
7.1980954e-03
1.0068039e-02
1.4211034e-02
1.8374195e-02
2.0416006e-02
2.1647560e-02
2.1452936e-02
2.0503199e-02
1.8591934e-02
1.5520273e-02
1.1884489e-02
7.0701890e-03
3.6476054e-03
8.7590971e-04
-2.1449195e-03
-3.1585477e-03
-2.7991455e-03
-4.5345342e-04
2.0484702e-03
3.1754008e-03
4.6649434e-03
5.8703889e-03
6.8801011e-03
5.9860044e-03
3.4977176e-03
1.8720041e-03
3.3854426e-04
-7.3541204e-04
-3.5517370e-03
-7.7058223e-03
-9.2775827e-03
-9.4529015e-03
-8.9392119e-03
-8.6313095e-03
-7.9165119e-03
-4.1468833e-03
1.7840261e-03
8.5289504e-03
1.4049954e-02
1.8561933e-02
2.2265928e-02
2.4283176e-02
2.6852225e-02
2.8627708e-02
2.8864303e-02
2.8195742e-02
2.5369967e-02
2.0741918e-02
1.2840214e-02
2.3841395e-03
-7.5573247e-03
-1.5201019e-02
-1.9921659e-02
-2.3829466e-02
-2.6429065e-02
-2.7914309e-02
-2.9356733e-02
-2.8706419e-02
-2.7860104e-02
-2.7671648e-02
-2.6743696e-02
-2.4966078e-02
-2.2060562e-02
-2.0320114e-02
-1.9310626e-02
-1.8108325e-02
-1.6925461e-02
-1.4703257e-02
-1.3915947e-02
-1.4724229e-02
-1.6019898e-02
-1.6393107e-02
-1.2233620e-02
-5.6564981e-03
1.2762086e-03
7.4908153e-03
1.1666332e-02
1.5270514e-02
1.6613078e-02
1.6149053e-02
1.5221227e-02
1.3946811e-02
1.3473186e-02
1.1747984e-02
9.1275597e-03
6.2468002e-03
3.7929156e-03
3.0929997e-03
1.7184269e-03
6.6585060e-04
3.5549924e-06
-1.2535154e-03
-5.8636052e-04
8.5032532e-04
1.8252812e-03
2.4277761e-03
3.3403450e-03
5.1606395e-03
6.2041473e-03
7.9166912e-03
9.5029324e-03
9.9538148e-03
1.2502533e-02
1.6122328e-02
1.9315467e-02
2.1737165e-02
2.4052721e-02
2.7515009e-02
3.0665780e-02
3.2766903e-02
3.2049645e-02
2.9094693e-02
2.6544689e-02
2.4025335e-02
2.2282961e-02
2.0349163e-02
1.8612113e-02
1.9246232e-02
1.9830040e-02
1.9808360e-02
1.8243292e-02
1.5155392e-02
1.2420153e-02
7.1563503e-03
-1.8301922e-03
-1.3806677e-02
-2.4416233e-02
-3.0036491e-02
-3.3696293e-02
-3.5190964e-02
-3.5159477e-02
-3.4461438e-02
-3.2256136e-02
-3.1057404e-02
-2.9755691e-02
-2.7567853e-02
-2.4484935e-02
-1.9814289e-02
-1.5049866e-02
-8.9728312e-03
-3.0123698e-03
1.1230269e-03
4.3279378e-03
6.1507250e-03
7.5652824e-03
7.4741659e-03
5.6009311e-03
3.3569716e-03
4.8570619e-04
-2.3776343e-03
-6.2054615e-03
-9.7417382e-03
-1.1273534e-02
-1.1492719e-02
-9.8913157e-03
-8.9093605e-03
-8.1361191e-03
-5.2738456e-03
-1.6657022e-03
2.0357192e-03
2.7736214e-03
6.0941544e-04
-1.3164713e-03
-2.6497821e-03
-3.0067879e-03
-4.6261505e-03
-6.7486072e-03
-7.2899302e-03
-7.0421492e-03
-5.8496836e-03
-6.4996275e-03
-8.3339362e-03
-8.5809761e-03
-7.0187906e-03
-2.8370332e-03
9.7527869e-05
1.3172695e-04
-8.1813780e-04
-1.8694288e-03
-1.0474814e-03
-3.5458900e-04
-1.1025580e-03
-3.0050895e-03
-6.0212726e-03
-7.6545070e-03
-9.2223642e-03
-1.1552947e-02
-1.3378278e-02
-1.4571434e-02
-1.4814605e-02
-1.6319767e-02
-1.8182704e-02
-1.7812913e-02
-1.4991348e-02
-1.0739029e-02
-7.6235956e-03
-4.4495933e-03
-1.7078459e-03
3.8039719e-04
4.2029926e-03
6.3307274e-03
6.2914360e-03
5.9005373e-03
5.5923770e-03
6.8783835e-03
8.3068085e-03
9.7396828e-03
1.0700336e-02
1.1717328e-02
1.4976149e-02
1.7059501e-02
1.5981417e-02
1.1822366e-02
5.9571425e-03
1.5335826e-03
-2.3368713e-03
-5.7916470e-03
-8.8707242e-03
-1.1310910e-02
-1.1943387e-02
-1.2295515e-02
-1.1376560e-02
-9.6479840e-03
-8.1833180e-03
-5.1999261e-03
-1.6359996e-03
1.8311404e-03
3.7129708e-03
3.9420813e-03
4.5622029e-03
4.6397306e-03
4.2678578e-03
3.1313042e-03
2.5144887e-03
4.1837877e-03
6.6153321e-03
9.8740552e-03
1.2232595e-02
1.3595767e-02
1.5411978e-02
1.5730613e-02
1.5256756e-02
1.3585856e-02
1.0429499e-02
7.1963979e-03
4.2441791e-03
3.3730532e-03
2.2193141e-03
5.7882463e-05
-7.8425959e-04
-1.2741149e-03
-6.6158823e-04
9.0245978e-05
9.6409791e-04
2.5030474e-03
2.6218684e-03
2.1854225e-03
1.6278953e-04
-2.5592479e-03
-3.6118654e-03
-3.8746444e-03
-3.2578558e-03
-3.1581977e-03
-2.4143880e-03
-7.5079820e-05
2.6158993e-03
7.2008453e-03
1.2014413e-02
1.6483184e-02
2.0098805e-02
2.1242332e-02
2.2463018e-02
2.2711820e-02
2.1749299e-02
2.0084610e-02
1.6271291e-02
1.2712016e-02
9.8596841e-03
7.8035248e-03
6.6211014e-03
5.8961319e-03
6.1670971e-03
4.6288317e-03
2.1516943e-03
4.7345793e-04
3.2108390e-05
2.2527900e-03
4.1090219e-03
5.5289295e-03
6.8306751e-03
7.6448377e-03
9.7090632e-03
1.0764421e-02
1.0900619e-02
1.0503177e-02
9.4488361e-03
1.0071703e-02
1.1012661e-02
1.1226617e-02
9.1454632e-03
5.4322536e-03
4.2406078e-03
3.8400164e-03
3.0281837e-03
1.6315036e-03
-3.8197056e-04
-1.5308707e-03
-3.5811447e-03
-6.5866175e-03
-1.0417469e-02
-1.4369007e-02
-1.6432048e-02
-1.8246148e-02
-1.9306169e-02
-1.8942771e-02
-1.7681168e-02
-1.4789730e-02
-1.2059434e-02
-1.0599473e-02
-1.1024543e-02
-1.2008183e-02
-1.1536779e-02
-1.1728274e-02
-1.2597764e-02
-1.3431488e-02
-1.2699672e-02
-9.8449046e-03
-8.5788335e-03
-8.1915317e-03
-7.6584947e-03
-6.3978223e-03
-2.7530106e-03
9.6769853e-04
4.0485354e-03
6.6110335e-03
9.3209926e-03
1.2493255e-02
1.4270001e-02
1.4743475e-02
1.1778917e-02
6.5573784e-03
3.6657434e-03
2.4385327e-03
1.4985582e-03
-1.3031373e-03
-5.7810638e-03
-1.0180171e-02
-1.4420036e-02
-1.6129677e-02
-1.6262132e-02
-1.5625187e-02
-1.3116403e-02
-9.7323584e-03
-5.0922526e-03
-1.0172347e-03
1.9516055e-03
4.1191603e-03
4.7309994e-03
6.5965053e-03
8.4401095e-03
9.4002508e-03
1.1425507e-02
1.4193956e-02
1.7823327e-02
1.9231843e-02
1.8614032e-02
1.9008257e-02
2.0160280e-02
2.3029512e-02
2.5444880e-02
2.6004390e-02
2.5807875e-02
2.4203813e-02
2.1415595e-02
1.4321119e-02
3.3751957e-03
-7.4165409e-03
-1.7949868e-02
-2.6956505e-02
-3.4481839e-02
-4.0442738e-02
-4.4562023e-02
-4.7059459e-02
-4.7088921e-02
-4.7026366e-02
-4.7169793e-02
-4.6540112e-02
-4.4787626e-02
-4.1372053e-02
-3.9807788e-02
-3.9929585e-02
-3.9013795e-02
-3.6745590e-02
-3.3991610e-02
-3.3777333e-02
-3.4569793e-02
-3.3690121e-02
-3.1089289e-02
-2.5958569e-02
-1.8512651e-02
-9.3876179e-03
-1.8739929e-03
3.1470654e-03
7.5888884e-03
1.0439988e-02
1.4142533e-02
1.9362091e-02
2.4062828e-02
2.8630810e-02
3.1824187e-02
3.3852959e-02
3.4175865e-02
3.3388267e-02
3.4322337e-02
3.4791082e-02
3.3532764e-02
3.0859951e-02
2.7830414e-02
2.5744165e-02
2.2786142e-02
1.9019081e-02
1.4543085e-02
1.0915464e-02
9.5067925e-03
7.1914980e-03
4.2461453e-03
9.1039037e-04
-2.4659308e-03
-3.9750286e-03
-5.2933887e-03
-6.4916066e-03
-8.6722887e-03
-1.1707707e-02
-1.2950166e-02
-1.3633279e-02
-1.3197853e-02
-1.2203366e-02
-1.1110624e-02
-8.1794457e-03
-5.2346945e-03
-2.5867579e-03
-4.3608159e-04
2.2185287e-03
6.2423070e-03
9.1772119e-03
1.1717630e-02
1.3363478e-02
1.4137365e-02
1.4603163e-02
1.3753859e-02
1.2999187e-02
1.0502581e-02
7.3517562e-03
6.2231137e-03
5.0276089e-03
3.6858565e-03
8.7809510e-04
-2.7716551e-03
-4.4606700e-03
-4.5829951e-03
-3.7612650e-03
-3.8769899e-03
-3.8324573e-03
-2.7882064e-03
-2.0460683e-03
3.5275194e-04
2.5604642e-03
3.8675081e-03
6.1478656e-03
8.1720492e-03
9.3122213e-03
8.4107504e-03
6.5334831e-03
4.7281826e-03
2.9965735e-03
2.8048167e-03
2.4078704e-03
2.3049667e-03
4.4875123e-03
7.9644821e-03
1.2283413e-02
1.4775914e-02
1.3933469e-02
1.0795905e-02
7.2145729e-03
5.0690856e-03
1.5706514e-03
-2.7036144e-03
-5.2700512e-03
-6.1552004e-03
-4.8648265e-03
-4.3114910e-03
-4.9767116e-03
-5.5322050e-03
-5.5827418e-03
-4.0607250e-03
-3.7104352e-03
-5.3750977e-03
-7.7411517e-03
-9.0997915e-03
-7.7775732e-03
-6.5649115e-03
-6.5974983e-03
-8.4428021e-03
-1.1346632e-02
-1.1546121e-02
-9.1042020e-03
-5.0261181e-03
-5.3137435e-04
4.7214190e-03
1.1467556e-02
1.6154408e-02
1.8216985e-02
1.8825098e-02
1.9849792e-02
2.2847614e-02
2.5019334e-02
2.5986426e-02
2.5529182e-02
2.3732987e-02
2.2066464e-02
1.9532681e-02
1.6461595e-02
1.1533445e-02
3.3020430e-03
-6.3288218e-03
-1.5394667e-02
-2.2199500e-02
-2.8355707e-02
-3.3491870e-02
-3.5999827e-02
-3.7632114e-02
-3.7510343e-02
-3.7184816e-02
-3.8072727e-02
-3.8617043e-02
-3.9603136e-02
-4.0787519e-02
-4.2761453e-02
-4.3684717e-02
-4.1859425e-02
-3.9981033e-02
-3.6771262e-02
-3.3485962e-02
-3.1174908e-02
-2.7145270e-02
-2.2578657e-02
-1.7611170e-02
-1.1701838e-02
-3.0544676e-03
7.9787163e-03
1.7576462e-02
2.5778521e-02
3.0817488e-02
3.2628513e-02
3.3153591e-02
3.1530746e-02
2.9581944e-02
2.7080769e-02
2.3929795e-02
2.1261448e-02
1.8098071e-02
1.5162584e-02
1.1402255e-02
7.7503725e-03
6.0351078e-03
4.7681459e-03
4.0159643e-03
2.4911382e-03
7.5971872e-04
-9.4468435e-04
-3.7860545e-03
-5.2834895e-03
-6.4464537e-03
-7.2978681e-03
-6.7357151e-03
-5.5615420e-03
-2.7303120e-03
1.3437643e-04
3.6698061e-03
8.9256674e-03
1.3002668e-02
1.5639209e-02
1.7074861e-02
1.8252975e-02
1.9655066e-02
2.1711779e-02
2.5655119e-02
2.8026800e-02
2.8413175e-02
2.7622367e-02
2.5101243e-02
2.2848759e-02
1.9201827e-02
1.4304237e-02
9.6991960e-03
6.0560426e-03
4.6670511e-03
2.6178491e-03
-1.1879734e-03
-5.6507543e-03
-9.9053492e-03
-1.3590322e-02
-1.9050124e-02
-2.4957741e-02
-2.9173673e-02
-3.0678398e-02
-2.8666164e-02
-2.6376045e-02
-2.4839458e-02
-2.3990753e-02
-2.3005490e-02
-2.0033024e-02
-1.7458349e-02
-1.5326154e-02
-1.2706714e-02
-9.6319462e-03
-5.9453851e-03
-3.7589724e-03
-2.9687622e-03
-4.6221127e-03
-7.3761092e-03
-7.0985383e-03
-5.2119544e-03
-1.2435616e-03
4.0581722e-03
8.1265066e-03
1.1796735e-02
1.4295396e-02
1.5286014e-02
1.3693864e-02
1.1013050e-02
1.0172417e-02
9.7336994e-03
9.9666204e-03
9.8487164e-03
8.6601863e-03
7.3454215e-03
6.0453327e-03
5.9104382e-03
4.0442355e-03
2.0723972e-04
-2.1929526e-03
-2.1954915e-03
7.6884839e-04
2.9505358e-03
3.1123151e-03
3.9017363e-03
5.6933439e-03
9.6160004e-03
1.3205299e-02
1.5653725e-02
1.9000145e-02
2.2078822e-02
2.5236281e-02
2.7359735e-02
2.7448425e-02
2.5595009e-02
2.1287184e-02
1.7322349e-02
1.3631265e-02
9.4435947e-03
6.5241070e-03
5.1549307e-03
5.7638574e-03
6.5107366e-03
6.2578834e-03
5.6809478e-03
5.6185468e-03
6.8215408e-03
6.2573639e-03
3.8613335e-03
8.7344634e-04
-3.5517006e-03
-8.9623955e-03
-1.6146957e-02
-2.2274573e-02
-2.5036460e-02
-2.4831443e-02
-2.1336761e-02
-1.7882757e-02
-1.5806927e-02
-1.5614661e-02
-1.7231365e-02
-1.7578424e-02
-1.6831397e-02
-1.5199607e-02
-1.4480897e-02
-1.6257626e-02
-1.8057867e-02
-2.0430395e-02
-2.2774752e-02
-2.4530410e-02
-2.5735662e-02
-2.4898038e-02
-2.4125928e-02
-2.2884500e-02
-2.0821759e-02
-1.7846434e-02
-1.1566758e-02
-5.3545913e-03
-1.3096290e-03
1.2921718e-03
3.0986578e-03
5.3929349e-03
6.5585552e-03
6.9946434e-03
6.3504606e-03
4.6170051e-03
4.7744153e-03
5.2273142e-03
5.4660826e-03
4.8541115e-03
2.4548880e-03
8.7336632e-04
-3.5352633e-04
-6.9704111e-04
8.6440976e-05
2.1646257e-03
6.8256217e-03
1.1136425e-02
1.4354257e-02
1.5996135e-02
1.6550315e-02
1.8066243e-02
1.8752350e-02
1.8911386e-02
1.8008180e-02
1.5982157e-02
1.4482035e-02
1.2577497e-02
1.1665150e-02
1.0503021e-02
7.6859497e-03
4.3686283e-03
9.1995216e-04
-7.3843309e-04
-2.7579332e-03
-5.2968835e-03
-5.7887641e-03
-4.8103303e-03
-1.3255313e-03
1.9518731e-03
3.4606412e-03
4.6118344e-03
3.9201928e-03
2.2522118e-03
-6.0224772e-04
-2.6882092e-03
-2.2149333e-03
-1.4652802e-03
1.4712039e-05
2.8490288e-05
-1.9900364e-03
-2.6972659e-03
-7.0150205e-04
3.4420416e-03
5.8571623e-03
6.2209285e-03
6.3715133e-03
6.5570221e-03
8.3865781e-03
9.0129367e-03
7.0011228e-03
4.9837052e-03
3.6999322e-03
3.1606026e-03
9.3312010e-04
-3.1492328e-03
-7.4091508e-03
-9.8479571e-03
-8.8222751e-03
-8.5285617e-03
-9.5616260e-03
-9.9477597e-03
-9.7567246e-03
-8.2271509e-03
-7.6580317e-03
-7.4227448e-03
-6.2106403e-03
-4.6315499e-03
-2.3099758e-03
-1.3690403e-03
-1.2425493e-03
-6.6072952e-04
1.5533547e-03
7.2619224e-03
1.2991927e-02
1.7154061e-02
1.9818584e-02
2.1289478e-02
2.4067403e-02
2.6090103e-02
2.6699983e-02
2.6146701e-02
2.3824506e-02
2.1508291e-02
1.8894326e-02
1.6007369e-02
1.1029141e-02
3.3867041e-03
-3.5657216e-03
-9.6114825e-03
-1.3855974e-02
-1.6349732e-02
-1.7385841e-02
-1.5501401e-02
-1.2906930e-02
-1.0827132e-02
-1.0713964e-02
-1.2259425e-02
-1.3049175e-02
-1.5107629e-02
-1.7350007e-02
-1.8913697e-02
-2.0206202e-02
-2.0610984e-02
-2.2197014e-02
-2.3719449e-02
-2.5348057e-02
-2.7205102e-02
-2.6203797e-02
-2.2325116e-02
-1.5052783e-02
-5.2825293e-03
4.7360849e-03
1.3212797e-02
1.8411723e-02
2.2259844e-02
2.4795225e-02
2.6942747e-02
3.1011699e-02
3.4796177e-02
3.7509419e-02
3.7519296e-02
3.4721571e-02
3.1720932e-02
2.8692079e-02
2.7171452e-02
2.6618792e-02
2.6569644e-02
2.7399376e-02
2.7592513e-02
2.8232939e-02
2.7972989e-02
2.6421014e-02
2.4752950e-02
2.1088596e-02
1.5615905e-02
5.7098334e-03
-7.9755266e-03
-2.0092105e-02
-2.9885524e-02
-3.7262982e-02
-4.3643995e-02
-4.8196361e-02
-5.0639123e-02
-5.2794733e-02
-5.2352917e-02
-5.0393856e-02
-4.7727264e-02
-4.3802267e-02
-4.0059097e-02
-3.5948753e-02
-3.3984841e-02
-3.5082791e-02
-3.7375790e-02
-3.9813721e-02
-4.0781014e-02
-4.2945237e-02
-4.6711514e-02
-4.9370306e-02
-4.8802771e-02
-4.2035747e-02
-2.9666545e-02
-1.3787448e-02
1.1138613e-03
1.2662240e-02
2.2575290e-02
2.8913641e-02
3.2041127e-02
3.2258193e-02
2.9759854e-02
2.8141359e-02
2.6433560e-02
2.3666764e-02
2.0466231e-02
1.8430345e-02
1.8901510e-02
1.8976003e-02
1.8748830e-02
1.7841870e-02
1.6314943e-02
1.6426283e-02
1.5297847e-02
1.3832644e-02
1.3814409e-02
1.4739166e-02
1.8071844e-02
2.1289666e-02
2.2414767e-02
2.0907624e-02
1.7932638e-02
1.5886416e-02
1.3416197e-02
1.0737177e-02
7.2325379e-03
3.0904601e-03
1.8043663e-04
-3.0831951e-03
-5.2118234e-03
-6.2791800e-03
-7.1602437e-03
-6.3027599e-03
-4.9660944e-03
-2.6965033e-03
-1.0362968e-03
-1.4638341e-04
2.5176290e-03
4.2848327e-03
4.2531542e-03
2.6046465e-03
2.8659449e-04
-2.6300277e-04
8.6589506e-04
2.8496881e-03
3.0531281e-03
2.8508598e-03
4.3966008e-03
6.2790328e-03
9.7918128e-03
1.2731328e-02
1.3813745e-02
1.5169755e-02
1.6216144e-02
1.7317125e-02
1.6672434e-02
1.4584284e-02
1.2690745e-02
1.0029598e-02
8.4949980e-03
6.8907169e-03
4.8733285e-03
3.6328006e-03
2.4255520e-03
2.9511401e-03
2.4450896e-03
-6.1125191e-04
-4.1062603e-03
-8.8515799e-03
-1.3726427e-02
-1.8076106e-02
-2.1511220e-02
-2.3733794e-02
-2.5194030e-02
-2.4880327e-02
-2.3973019e-02
-2.1942447e-02
-1.8286793e-02
-1.4362637e-02
-9.8468129e-03
-6.0658559e-03
-2.0092538e-03
1.9297901e-03
4.1757099e-03
6.7438339e-03
8.2362938e-03
8.7944595e-03
8.9363677e-03
8.7513273e-03
9.9400069e-03
9.5707871e-03
7.4087436e-03
4.3834102e-03
6.1717364e-04
-1.5213245e-03
-3.7089866e-03
-5.6496989e-03
-6.2499597e-03
-5.7704533e-03
-2.8396776e-03
-2.7443592e-04
8.3097255e-04
8.7600836e-04
-1.2793669e-03
-4.1741846e-03
-7.1643815e-03
-8.9565570e-03
-9.5395064e-03
-9.8598491e-03
-9.0916875e-03
-8.1780849e-03
-6.8632383e-03
-5.6725120e-03
-3.8112456e-03
2.6066359e-04
4.4248214e-03
8.5989252e-03
1.2044327e-02
1.4798376e-02
1.6710590e-02
1.4649465e-02
1.1439163e-02
9.2746540e-03
7.6358993e-03
7.1497990e-03
5.4646138e-03
2.7759973e-03
-7.2271574e-04
-4.1366637e-03
-4.3937153e-03
-2.9860277e-03
-1.0534325e-03
6.4476175e-04
3.1208213e-03
7.1857397e-03
8.8653603e-03
8.0298177e-03
5.6325109e-03
2.6225656e-03
4.2970187e-04
-1.9876391e-03
-4.3335048e-03
-7.8163048e-03
-1.0140235e-02
-8.3424045e-03
-5.3993023e-03
-2.2144547e-03
-6.0940024e-05
1.4428518e-03
3.9613115e-03
5.9639932e-03
6.9569248e-03
4.9662385e-03
2.0156289e-03
1.4259874e-03
1.8863575e-03
2.7548980e-03
7.7910232e-04
-2.9070917e-03
-4.3154895e-03
-4.0215787e-03
-2.1824573e-03
-1.4118522e-03
-1.8113624e-03
-1.7439565e-03
-2.1481579e-03
-1.7514068e-03
-2.1366231e-03
-4.2716218e-03
-6.5921992e-03
-9.3348471e-03
-1.2290104e-02
-1.6666607e-02
-2.1213099e-02
-2.3914543e-02
-2.4006313e-02
-2.0872017e-02
-1.8896738e-02
-1.8642522e-02
-1.8982856e-02
-2.0157380e-02
-1.9721926e-02
-1.9819632e-02
-2.1066978e-02
-2.2112862e-02
-2.3355368e-02
-2.3949567e-02
-2.5733614e-02
-2.7983552e-02
-2.9194987e-02
-2.9910159e-02
-2.7590125e-02
-2.1724856e-02
-1.1907161e-02
-2.1284347e-04
8.8379897e-03
1.4834360e-02
1.7047352e-02
1.7905430e-02
1.9780062e-02
2.2709521e-02
2.6830918e-02
2.9193201e-02
3.0086977e-02
3.0447247e-02
3.1245305e-02
3.3707641e-02
3.5404433e-02
3.6855630e-02
3.7879428e-02
3.8502648e-02
3.9726334e-02
3.9646122e-02
3.9969727e-02
3.9991409e-02
3.8355054e-02
3.6774055e-02
3.3558530e-02
2.7380214e-02
1.7686944e-02
8.1391455e-03
2.2875376e-03
-2.6443336e-03
-7.0458115e-03
-1.1245724e-02
-1.5010951e-02
-1.7392063e-02
-1.9566417e-02
-1.9776804e-02
-1.8902802e-02
-1.7758102e-02
-1.5373803e-02
-1.4159190e-02
-1.5314970e-02
-1.9387261e-02
-2.2764122e-02
-2.1891919e-02
-1.8815748e-02
-1.4590887e-02
-1.1346260e-02
-8.7977432e-03
-5.7337579e-03
-3.9107357e-03
-1.8260317e-03
2.0662185e-04
1.8884518e-03
4.2922394e-03
5.8737345e-03
7.3120142e-03
7.9258487e-03
7.8673404e-03
7.7109505e-03
6.6590718e-03
7.1489932e-03
6.9557491e-03
5.4284559e-03
5.5135690e-03
5.8014252e-03
6.3080169e-03
6.5840937e-03
6.5972665e-03
6.5851876e-03
5.8658149e-03
5.9123010e-03
5.4676032e-03
5.1272894e-03
5.7528533e-03
5.1654105e-03
4.4080827e-03
2.7273583e-03
5.9584442e-04
-7.0241327e-05
1.1229145e-04
1.1749081e-03
2.3586648e-04
-2.5813116e-03
-4.7742110e-03
-5.9984848e-03
-5.4215614e-03
-5.1397887e-03
-5.5528741e-03
-5.6945447e-03
-5.0660476e-03
-3.0665580e-03
-2.5844740e-03
-3.3749234e-03
-5.0131898e-03
-7.7086372e-03
-9.2303063e-03
-1.1674457e-02
-1.4739655e-02
-1.6801774e-02
-1.7174809e-02
-1.4260149e-02
-1.1730227e-02
-1.1299529e-02
-1.2437914e-02
-1.4714079e-02
-1.5834487e-02
-1.6998753e-02
-1.8172085e-02
-1.8825176e-02
-1.8562355e-02
-1.5419573e-02
-1.1929991e-02
-9.7227217e-03
-8.7304539e-03
-7.9055839e-03
-6.5242725e-03
-7.1860466e-03
-8.9051478e-03
-1.1240516e-02
-1.4355933e-02
-1.5812716e-02
-1.5812113e-02
-1.5158624e-02
-1.5720076e-02
-1.5389732e-02
-9.9603584e-03
-3.1341682e-03
2.4246886e-03
6.7878514e-03
1.0530162e-02
1.4777065e-02
1.7976725e-02
1.9878278e-02
1.9296328e-02
1.8136865e-02
1.9017016e-02
1.9292463e-02
2.0122183e-02
2.1539035e-02
2.2617845e-02
2.4243632e-02
2.5608238e-02
2.7636102e-02
2.8571962e-02
2.8033527e-02
2.7471081e-02
2.5790763e-02
2.4660136e-02
2.2706631e-02
1.8749285e-02
1.3801028e-02
7.2597485e-03
9.7109350e-04
-5.8650030e-03
-1.2045345e-02
-1.5495013e-02
-1.8594921e-02
-2.1732989e-02
-2.6696774e-02
-3.2976153e-02
-3.9174370e-02
-4.6224922e-02
-5.2037073e-02
-5.7128334e-02
-6.1508875e-02
-6.5742331e-02
-7.0892912e-02
-7.3563789e-02
-7.4721599e-02
-7.4709910e-02
-7.2473116e-02
-6.9208130e-02
-6.4196831e-02
-5.8546790e-02
-5.0293884e-02
-3.6508457e-02
