-3.0988292e-01
-5.5705686e-01
-7.9374598e-01
-1.0083094e+00
-1.1905153e+00
-1.3323339e+00
-1.4284656e+00
-1.4765837e+00
-1.4772987e+00
-1.4338811e+00
-1.3517953e+00
-1.2381099e+00
-1.1008509e+00
-9.4836192e-01
-7.8872518e-01
-6.2928313e-01
-4.7628479e-01
-3.3466535e-01
-2.0795391e-01
-9.8293178e-02
-6.5486181e-03
6.7519162e-02
1.2504429e-01
1.6783119e-01
1.9813580e-01
2.1846850e-01
2.3142848e-01
2.3957260e-01
2.4531547e-01
2.5085472e-01
2.5811458e-01
2.6870141e-01
2.8386440e-01
3.0445521e-01
3.3088297e-01
3.6306508e-01
4.0037979e-01
4.4163025e-01
4.8503265e-01
5.2824185e-01
5.6842651e-01
6.0240088e-01
6.2681213e-01
6.3837324e-01
6.3412446e-01
6.1170147e-01
5.6958565e-01
5.0730904e-01
4.2558720e-01
3.2635906e-01
2.1272334e-01
8.8774240e-02
-4.0649847e-02
-1.7028208e-01
-2.9477888e-01
-4.0907544e-01
-5.0871210e-01
-5.9010295e-01
-6.5072631e-01
-6.8922650e-01
-7.0542475e-01
-7.0024429e-01
-6.7556172e-01
-6.3400369e-01
-5.7871211e-01
-5.1310165e-01
-4.4063004e-01
-3.6459669e-01
-2.8798098e-01
-2.1332669e-01
-1.4267360e-01
-7.7532341e-02
-1.8895688e-02
3.2721077e-02
7.7217544e-02
1.1483017e-01
1.4604604e-01
1.7151474e-01
1.9196365e-01
2.0812100e-01
2.2065212e-01
2.3011420e-01
2.3693248e-01
2.4139608e-01
2.4366818e-01
2.4380482e-01
2.4177899e-01
2.3750945e-01
2.3089427e-01
2.2184736e-01
2.1033528e-01
1.9641062e-01
1.8023911e-01
1.6211652e-01
1.4247185e-01
1.2185348e-01
1.0089790e-01
8.0283665e-02
6.0674451e-02
4.2655142e-02
2.6665232e-02
1.2936337e-02
1.4434172e-03
-8.1201232e-03
-1.6336211e-02
-2.4022404e-02
-3.2160863e-02
-4.1801373e-02
-5.3946369e-02
-6.9428554e-02
-8.8793658e-02
-1.1220133e-01
-1.3935583e-01
-1.6947592e-01
-2.0130992e-01
-2.3319740e-01
-2.6317287e-01
-2.8910184e-01
-3.0883606e-01
-3.2037494e-01
-3.2202079e-01
-3.1251671e-01
-2.9115640e-01
-2.5785676e-01
-2.1318701e-01
-1.5835221e-01
-9.5133276e-02
-2.5789205e-02
4.7069049e-02
1.2062135e-01
1.9198552e-01
2.5835851e-01
3.1714452e-01
3.6606543e-01
4.0325113e-01
4.2730895e-01
4.3737246e-01
4.3313035e-01
4.1483523e-01
3.8329077e-01
3.3981477e-01
2.8617765e-01
2.2451855e-01
1.5724345e-01
8.6911490e-02
1.6116551e-02
-5.2627871e-02
-1.1699216e-01
-1.7491640e-01
-2.2467572e-01
-2.6492574e-01
-2.9472996e-01
-3.1357187e-01
-3.2135457e-01
-3.1839016e-01
-3.0538041e-01
-2.8338715e-01
-2.5378993e-01
-2.1822889e-01
-1.7853419e-01
-1.3664554e-01
-9.4525580e-02
-5.4070051e-02
-1.7017259e-02
1.5138396e-02
4.1222602e-02
6.0440923e-02
7.2417988e-02
7.7213554e-02
7.5313617e-02
6.7595627e-02
5.5269133e-02
3.9796523e-02
2.2800827e-02
5.9676962e-03
-9.0525980e-03
-2.0738118e-02
-2.7778377e-02
-2.9143520e-02
-2.4137474e-02
-1.2435062e-02
5.8961800e-03
3.0389722e-02
6.0190520e-02
9.4083250e-02
1.3053807e-01
1.6777292e-01
2.0383152e-01
2.3667570e-01
2.6428902e-01
2.8478597e-01
2.9652023e-01
2.9818633e-01
2.8891047e-01
2.6832640e-01
2.3663056e-01
1.9460924e-01
1.4363039e-01
8.5594118e-02
2.2838981e-02
-4.1995332e-02
-1.0614136e-01
-1.6689665e-01
-2.2181271e-01
-2.6885664e-01
-3.0652841e-01
-3.3392480e-01
-3.5074810e-01
-3.5726269e-01
-3.5420829e-01
-3.4268318e-01
-3.2401359e-01
-2.9962488e-01
-2.7092693e-01
-2.3922333e-01
-2.0565079e-01
-1.7115176e-01
-1.3647799e-01
-1.0221666e-01
-6.8827743e-02
-3.6681232e-02
-6.0856201e-03
2.2697404e-02
4.9454560e-02
7.4037900e-02
9.6391399e-02
1.1657644e-01
1.3478306e-01
1.5131635e-01
1.6655414e-01
1.8088064e-01
1.9460709e-01
2.0789407e-01
2.2069025e-01
2.3269857e-01
2.4337630e-01
2.5196984e-01
2.5758142e-01
2.5926131e-01
2.5611559e-01
2.4741751e-01
2.3270855e-01
2.1187718e-01
1.8520590e-01
1.5338132e-01
1.1746540e-01
7.8828542e-02
3.9049126e-02
-2.1250517e-04
-3.7354515e-02
-7.0976012e-02
-1.0000803e-01
-1.2381831e-01
-1.4227450e-01
-1.5575264e-01
-1.6508439e-01
-1.7144596e-01
-1.7620134e-01
-1.8071914e-01
-1.8618530e-01
-1.9343396e-01
-2.0281731e-01
-2.1413024e-01
-2.2659878e-01
-2.3893322e-01
-2.4944115e-01
-2.5619042e-01
-2.5720806e-01
-2.5069585e-01
-2.3524013e-01
-2.0999366e-01
-1.7481022e-01
-1.3031828e-01
-7.7925166e-02
-1.9749858e-02
4.1511113e-02
1.0277378e-01
1.6079782e-01
2.1244024e-01
2.5491022e-01
2.8600054e-01
3.0427094e-01
3.0916297e-01
3.0103497e-01
2.8111484e-01
2.5137666e-01
2.1435334e-01
1.7290315e-01
1.2995413e-01
8.8254461e-02
5.0155572e-02
1.7448564e-02
-8.7342481e-03
-2.7948590e-02
-4.0400010e-02
-4.6845230e-02
-4.8445584e-02
-4.6589631e-02
-4.2704490e-02
-3.8076083e-02
-3.3698251e-02
-3.0169719e-02
-2.7654243e-02
-2.5911283e-02
-2.4392659e-02
-2.2388724e-02
-1.9199457e-02
-1.4303026e-02
-7.4957240e-03
1.0186462e-03
1.0604640e-02
2.0241094e-02
2.8631014e-02
3.4360313e-02
3.6084608e-02
3.2720414e-02
2.3615946e-02
8.6776991e-03
-1.1566647e-02
-3.5980449e-02
-6.2906675e-02
-9.0324044e-02
-1.1605333e-01
-1.3798926e-01
-1.5432875e-01
-1.6376575e-01
-1.6562862e-01
-1.5994594e-01
-1.4743636e-01
-1.2942522e-01
-1.0769582e-01
-8.4289112e-02
-6.1272671e-02
-4.0505376e-02
-2.3425672e-02
-1.0888851e-02
-3.0730914e-03
5.3358071e-04
1.0631112e-03
1.2319011e-04
-4.0149352e-04
1.4229917e-03
7.3491027e-03
1.8737291e-02
3.6385180e-02
6.0412530e-02
9.0213718e-02
1.2448324e-01
1.6131199e-01
1.9834445e-01
2.3298009e-01
2.6259816e-01
2.8478237e-01
2.9752297e-01
2.9937770e-01
2.8957866e-01
2.6807948e-01
2.3554227e-01
1.9326900e-01
1.4308579e-01
8.7193436e-02
2.7999839e-02
-3.2048777e-02
-9.0622151e-02
-1.4563206e-01
-1.9531994e-01
-2.3830122e-01
-2.7356796e-01
-3.0045802e-01
-3.1860244e-01
-3.2786439e-01
-3.2828134e-01
-3.2002082e-01
-3.0335704e-01
-2.7867265e-01
-2.4648405e-01
-2.0748279e-01
-1.6258156e-01
-1.1295149e-01
-6.0038954e-02
-5.5531709e-03
4.8580240e-02
1.0029954e-01
1.4751591e-01
1.8824135e-01
2.2072252e-01
2.4356598e-01
2.5584082e-01
2.5714703e-01
2.4764187e-01
2.2802249e-01
1.9946921e-01
1.6355821e-01
1.2215434e-01
7.7295042e-02
3.1075916e-02
-1.4452887e-02
-5.7373149e-02
-9.5965100e-02
-1.2875430e-01
-1.5454100e-01
-1.7241517e-01
-1.8176134e-01
-1.8225848e-01
-1.7388020e-01
-1.5689786e-01
-1.3188590e-01
-9.9725312e-02
-6.1600660e-02
-1.8986295e-02
2.6382221e-02
7.2555186e-02
1.1743670e-01
1.5887272e-01
1.9475478e-01
2.2313255e-01
2.4232802e-01
2.5104382e-01
2.4845791e-01
2.3429537e-01
2.0886924e-01
1.7308469e-01
1.2840485e-01
7.6779344e-02
2.0539563e-02
-3.7732027e-02
-9.5347387e-02
-1.4966054e-01
-1.9820580e-01
-2.3881853e-01
-2.6973313e-01
-2.8965566e-01
-2.9780956e-01
-2.9395523e-01
-2.7838601e-01
-2.5190447e-01
-2.1578226e-01
-1.7170478e-01
-1.2170054e-01
-6.8054564e-02
-1.3205884e-02
4.0369717e-02
9.0288399e-02
1.3439217e-01
1.7087821e-01
1.9841123e-01
2.1620616e-01
2.2407020e-01
2.2239602e-01
2.1210210e-01
1.9452231e-01
1.7125542e-01
1.4399368e-01
1.1435451e-01
8.3738582e-02
5.3232998e-02
2.3571492e-02
-4.8448390e-03
-3.1872235e-02
-5.7510005e-02
-8.1769518e-02
-1.0455021e-01
-1.2554291e-01
-1.4417489e-01
-1.5960497e-01
-1.7077095e-01
-1.7648461e-01
-1.7556248e-01
-1.6697463e-01
-1.4999219e-01
-1.2431721e-01
-9.0182399e-02
-4.8412608e-02
-4.4211703e-04
5.1715532e-02
1.0554572e-01
1.5815673e-01
2.0644434e-01
2.4728888e-01
2.7777238e-01
2.9539992e-01
2.9830687e-01
2.8543402e-01
2.5665496e-01
2.1284268e-01
1.5586536e-01
8.8505189e-02
1.4301127e-02
-6.2675114e-02
-1.3809298e-01
-2.0766509e-01
-2.6745222e-01
-3.1414423e-01
-3.4529030e-01
-3.5945611e-01
-3.5629413e-01
-3.3652374e-01
-3.0182785e-01
-2.5468123e-01
-1.9813105e-01
-1.3555294e-01
-7.0405953e-02
-6.0066901e-03
5.4661673e-02
1.0909559e-01
1.5536717e-01
1.9216840e-01
2.1880605e-01
2.3515337e-01
2.4156899e-01
2.3879514e-01
2.2784723e-01
2.0990553e-01
1.8621800e-01
1.5802266e-01
1.2649529e-01
9.2725612e-02
5.7719855e-02
2.2424020e-02
-1.2241492e-02
-4.5347104e-02
-7.5930673e-02
-1.0299484e-01
-1.2553000e-01
-1.4256255e-01
-1.5322293e-01
-1.5682516e-01
-1.5294668e-01
-1.4149697e-01
-1.2276386e-01
-9.7429944e-02
-6.6556278e-02
-3.1535567e-02
5.9801476e-03
4.4170931e-02
8.1152427e-02
1.1508328e-01
1.4426814e-01
1.6724876e-01
1.8287778e-01
1.9037141e-01
1.8933823e-01
1.7978307e-01
1.6208765e-01
1.3697307e-01
1.0545116e-01
6.8771186e-02
2.8366818e-02
-1.4193957e-02
-5.7254697e-02
-9.9112695e-02
-1.3806046e-01
-1.7243199e-01
-2.0066003e-01
-2.2134787e-01
-2.3335435e-01
-2.3588547e-01
-2.2858279e-01
-2.1159596e-01
-1.8562578e-01
-1.5192552e-01
-1.1225397e-01
-6.8781872e-02
-2.3960510e-02
1.9634775e-02
5.9473454e-02
9.3238701e-02
1.1898425e-01
1.3526747e-01
1.4124869e-01
1.3675011e-01
1.2227144e-01
9.8961641e-02
6.8548713e-02
3.3232074e-02
-4.4546842e-03
-4.1800894e-02
-7.6085844e-02
-1.0474652e-01
-1.2553693e-01
-1.3666922e-01
-1.3692745e-01
-1.2574705e-01
-1.0325618e-01
-7.0277484e-02
-2.8289514e-02
2.0651639e-02
7.4027579e-02
1.2900294e-01
1.8259152e-01
2.3183307e-01
2.7397068e-01
3.0661784e-01
3.2790349e-01
3.3658334e-01
3.3210857e-01
3.1464634e-01
2.8504975e-01
2.4477777e-01
1.9576992e-01
1.4028622e-01
8.0729723e-02
1.9472451e-02
-4.1294578e-02
-9.9671941e-02
-1.5411466e-01
-2.0344601e-01
-2.4682729e-01
-2.8369444e-01
-3.1367656e-01
-3.3651244e-01
-3.5197964e-01
-3.5984744e-01
-3.5986210e-01
-3.5176822e-01
-3.3536390e-01
-3.1058007e-01
-2.7757027e-01
-2.3679550e-01
-1.8909081e-01
-1.3570160e-01
-7.8280304e-02
-1.8837441e-02
4.0352465e-02
9.6882953e-02
1.4837323e-01
1.9263655e-01
2.2784368e-01
2.5266506e-01
2.6637614e-01
2.6891255e-01
2.6086830e-01
2.4343690e-01
2.1830285e-01
1.8749554e-01
1.5322062e-01
1.1768496e-01
8.2931689e-02
5.0700514e-02
2.2325604e-02
-1.3200756e-03
-1.9829679e-02
-3.3217932e-02
-4.1835300e-02
-4.6255670e-02
-4.7156018e-02
-4.5205957e-02
-4.0981297e-02
-3.4910906e-02
-2.7261692e-02
-1.8162034e-02
-7.6583944e-03
4.2065200e-03
1.7310104e-02
3.1376776e-02
4.5927791e-02
6.0261418e-02
7.3466843e-02
8.4471347e-02
9.2116337e-02
9.5254399e-02
9.2858001e-02
8.4130752e-02
6.8612630e-02
4.6269943e-02
1.7559511e-02
-1.6543697e-02
-5.4564038e-02
-9.4591719e-02
-1.3439602e-01
-1.7157619e-01
-2.0373529e-01
-2.2865974e-01
-2.4448791e-01
-2.4985475e-01
-2.4400316e-01
-2.2685515e-01
-1.9903717e-01
-1.6185554e-01
-1.1722208e-01
-6.7534728e-02
-1.5522275e-02
3.5935200e-02
8.3996801e-02
1.2604755e-01
1.5986676e-01
1.8376557e-01
1.9668540e-01
1.9825357e-01
1.8879567e-01
1.6930530e-01
1.4137335e-01
1.0708128e-01
6.8865796e-02
2.9364069e-02
-8.7510956e-03
-4.2936810e-02
-7.0936643e-02
-9.0918201e-02
-1.0158315e-01
-1.0224395e-01
-9.2864551e-02
-7.4064018e-02
-4.7082641e-02
-1.3710927e-02
2.3815959e-02
6.2952981e-02
1.0100169e-01
1.3527958e-01
1.6329241e-01
1.8289842e-01
1.9245291e-01
1.9092292e-01
1.7796440e-01
1.5395612e-01
1.1998638e-01
7.7790011e-02
2.9637619e-02
-2.1815493e-02
-7.3707732e-02
-1.2316177e-01
-1.6747213e-01
-2.0427579e-01
-2.3169237e-01
-2.4842281e-01
-2.5379987e-01
-2.4779080e-01
-2.3095830e-01
-2.0438866e-01
-1.6959580e-01
-1.2840946e-01
-8.2855763e-02
-3.5038651e-02
1.2970209e-02
5.9227183e-02
1.0199346e-01
1.3978860e-01
1.7141772e-01
1.9597259e-01
2.1281205e-01
2.2153048e-01
2.2192417e-01
2.1396394e-01
1.9778068e-01
1.7366834e-01
1.4210539e-01
1.0379097e-01
5.9687263e-02
1.1057723e-02
-4.0509288e-02
-9.3100234e-02
-1.4450802e-01
-1.9230288e-01
-2.3394590e-01
-2.6694158e-01
-2.8901771e-01
-2.9831547e-01
-2.9357026e-01
-2.7426265e-01
-2.4071955e-01
-1.9414880e-01
-1.3659838e-01
-7.0842245e-02
-2.0484812e-04
7.1657822e-02
1.4100060e-01
2.0423491e-01
2.5815826e-01
3.0014938e-01
3.2831510e-01
3.4158048e-01
3.3971956e-01
3.2332818e-01
2.9374414e-01
2.5292435e-01
2.0329186e-01
1.4756765e-01
8.8599821e-02
2.9200445e-02
-2.8002319e-02
-8.0689858e-02
-1.2694953e-01
-1.6533623e-01
-1.9489628e-01
-2.1515470e-01
-2.2607088e-01
-2.2797180e-01
-2.2147514e-01
-2.0741551e-01
-1.8678408e-01
-1.6068539e-01
-1.3030928e-01
-9.6912903e-02
-6.1807358e-02
-2.6344514e-02
8.1004533e-03
4.0155407e-02
6.8490208e-02
9.1869980e-02
1.0922163e-01
1.1970967e-01
1.2281426e-01
1.1840074e-01
1.0676812e-01
8.8664950e-02
6.5265925e-02
3.8108771e-02
8.9962107e-03
-2.0129266e-02
-4.7328097e-02
-7.0811867e-02
-8.9083072e-02
-1.0105233e-01
-1.0612132e-01
-1.0422329e-01
-9.5816796e-02
-8.1831730e-02
-6.3571446e-02
-4.2580483e-02
-2.0492450e-02
1.1244315e-03
2.0906397e-02
3.7802064e-02
5.1137553e-02
6.0633537e-02
6.6376781e-02
6.8755700e-02
6.8372979e-02
6.5947735e-02
6.2217326e-02
5.7847424e-02
5.3358932e-02
4.9079904e-02
4.5128281e-02
4.1427342e-02
3.7751489e-02
3.3796082e-02
2.9261002e-02
2.3933937e-02
1.7757938e-02
1.0870129e-02
3.6046633e-03
-3.5393699e-03
-9.9581272e-03
-1.5020590e-02
-1.8151331e-02
-1.8906442e-02
-1.7032833e-02
-1.2505381e-02
-5.5411707e-03
3.4069719e-03
1.3675280e-02
2.4431081e-02
3.4731056e-02
4.3592447e-02
5.0070807e-02
5.3335893e-02
5.2737473e-02
4.7854478e-02
3.8523669e-02
2.4847197e-02
7.1818089e-03
-1.3885083e-02
-3.7566656e-02
-6.2911050e-02
-8.8837503e-02
-1.1417498e-01
-1.3770457e-01
-1.5820661e-01
-1.7451328e-01
-1.8556652e-01
-1.9047862e-01
-1.8859051e-01
-1.7952117e-01
-1.6320362e-01
-1.3990558e-01
-1.1023465e-01
-7.5127854e-02
-3.5824192e-02
6.1807920e-03
4.9198367e-02
9.1426211e-02
1.3104171e-01
1.6630511e-01
1.9566629e-01
2.1786581e-01
2.3201993e-01
2.3768053e-01
2.3486380e-01
2.2404395e-01
2.0610999e-01
1.8228681e-01
1.5402693e-01
1.2288429e-01
9.0384929e-02
5.7908212e-02
2.6590876e-02
-2.7363908e-03
-2.9572687e-02
-5.3728833e-02
-7.5271919e-02
-9.4442404e-02
-1.1155592e-01
-1.2690179e-01
-1.4065008e-01
-1.5277902e-01
-1.6303398e-01
-1.7092487e-01
-1.7576351e-01
-1.7673658e-01
-1.7300637e-01
-1.6382815e-01
-1.4867111e-01
-1.2732703e-01
-9.9992172e-02
-6.7310715e-02
-3.0373793e-02
9.3274407e-03
4.9992678e-02
8.9640772e-02
1.2626339e-01
1.5798689e-01
1.8322362e-01
2.0079564e-01
2.1001856e-01
2.1073808e-01
2.0331692e-01
1.8857502e-01
1.6769147e-01
1.4208097e-01
1.1326015e-01
8.2718065e-02
5.1803381e-02
2.1637868e-02
-6.9371425e-03
-3.3379023e-02
-5.7429112e-02
-7.9070047e-02
-9.8461003e-02
-1.1585732e-01
-1.3152329e-01
-1.4564984e-01
-1.5829011e-01
-1.6932278e-01
-1.7844763e-01
-1.8521144e-01
-1.8905820e-01
-1.8939450e-01
-1.8565943e-01
-1.7738799e-01
-1.6426024e-01
-1.4613309e-01
-1.2305688e-01
-9.5281203e-02
-6.3253262e-02
-2.7609877e-02
1.0837487e-02
5.1124726e-02
9.2163152e-02
1.3277245e-01
1.7171783e-01
2.0775083e-01
2.3965227e-01
2.6627589e-01
2.8659133e-01
2.9972536e-01
3.0499981e-01
3.0196395e-01
2.9041929e-01
2.7043591e-01
2.4236020e-01
2.0681356e-01
1.6468099e-01
1.1708781e-01
6.5363652e-02
1.0993959e-02
-4.4439142e-02
-9.9322230e-02
-1.5207553e-01
-2.0120956e-01
-2.4536697e-01
-2.8334621e-01
-3.1410893e-01
-3.3677705e-01
-3.5062817e-01
-3.5509839e-01
-3.4979939e-01
-3.3455298e-01
-3.0944064e-01
-2.7486043e-01
-2.3157892e-01
-1.8076475e-01
-1.2399185e-01
-6.3204492e-02
-6.4124495e-04
6.1279216e-02
1.2010128e-01
1.7348992e-01
2.1938549e-01
2.5614000e-01
2.8262212e-01
2.9828173e-01
3.0316736e-01
2.9789368e-01
2.8356139e-01
2.6163781e-01
2.3381141e-01
2.0183598e-01
1.6738088e-01
1.3190360e-01
9.6559828e-02
6.2161648e-02
2.9187470e-02
-2.1613333e-03
-3.1868436e-02
-5.9990057e-02
-8.6538609e-02
-1.1138015e-01
-1.3416290e-01
-1.5429053e-01
-1.7094723e-01
-1.8317295e-01
-1.8997930e-01
-1.9049049e-01
-1.8408890e-01
-1.7054299e-01
-1.5009619e-01
-1.2350136e-01
-9.1993965e-02
-5.7206931e-02
-2.1038114e-02
1.4512349e-02
4.7514243e-02
7.6267717e-02
9.9433413e-02
1.1611914e-01
1.2591666e-01
1.2888827e-01
1.2550815e-01
1.1656845e-01
1.0306370e-01
8.6069524e-02
6.6629993e-02
4.5665908e-02
2.3913284e-02
1.8988969e-03
-2.0043832e-02
-4.1720832e-02
-6.2994183e-02
-8.3684064e-02
-1.0347256e-01
-1.2182569e-01
-1.3794827e-01
-1.5078410e-01
-1.5906967e-01
-1.6144249e-01
-1.5659548e-01
-1.4345960e-01
-1.2139006e-01
-9.0329609e-02
-5.0922893e-02
-4.5606822e-03
4.6659243e-02
1.0005548e-01
1.5255863e-01
2.0095715e-01
2.4216637e-01
2.7349210e-01
2.9286114e-01
2.9899399e-01
2.9150166e-01
2.7089833e-01
2.3853178e-01
1.9644201e-01
1.4716456e-01
9.3499403e-02
3.8270344e-02
-1.5899058e-02
-6.6769009e-02
-1.1260897e-01
-1.5225593e-01
-1.8510439e-01
-2.1103482e-01
-2.3029443e-01
-2.4335061e-01
-2.5074061e-01
-2.5294043e-01
-2.5027047e-01
-2.4284886e-01
-2.3059654e-01
-2.1329093e-01
-1.9065779e-01
-1.6248498e-01
-1.2873938e-01
-8.9669964e-02
-4.5883997e-02
1.6132172e-03
5.1421317e-02
1.0179288e-01
1.5072293e-01
1.9607046e-01
2.3569897e-01
2.6762139e-01
2.9013557e-01
3.0193815e-01
3.0220766e-01
2.9065246e-01
2.6752353e-01
2.3359559e-01
1.9012111e-01
1.3876294e-01
8.1512377e-02
2.0599929e-02
-4.1594895e-02
-1.0263112e-01
-1.6009029e-01
-2.1165784e-01
-2.5520370e-01
-2.8886400e-01
-3.1112475e-01
-3.2090538e-01
-3.1763552e-01
-3.0131466e-01
-2.7254387e-01
-2.3252159e-01
-1.8299943e-01
-1.2619801e-01
-6.4686974e-02
-1.2377826e-03
6.1338258e-02
1.2035234e-01
1.7338725e-01
2.1842195e-01
2.5392278e-01
2.7889496e-01
2.9289076e-01
2.9597600e-01
2.8866281e-01
2.7182191e-01
2.4658916e-01
2.1427893e-01
1.7631240e-01
1.3416399e-01
8.9325415e-02
4.3283140e-02
-2.4965820e-03
-4.6581660e-02
-8.7592800e-02
-1.2423078e-01
-1.5531485e-01
-1.7983300e-01
-1.9700197e-01
-2.0633058e-01
-2.0767580e-01
-2.0128092e-01
-1.8778643e-01
-1.6820840e-01
-1.4388195e-01
-1.1637147e-01
-8.7353727e-02
-5.8486300e-02
-3.1277653e-02
-6.9755215e-03
1.3513217e-02
2.9662612e-02
4.1324023e-02
4.8681042e-02
5.2171628e-02
5.2391141e-02
4.9991601e-02
4.5590837e-02
3.9702444e-02
3.2695267e-02
2.4788640e-02
1.6084904e-02
6.6333721e-03
-3.4872053e-03
-1.4084525e-02
-2.4783515e-02
-3.4986029e-02
-4.3869924e-02
-5.0433179e-02
-5.3581756e-02
-5.2251949e-02
-4.5551397e-02
-3.2899675e-02
-1.4149085e-02
1.0332106e-02
3.9628473e-02
7.2306846e-02
1.0650633e-01
1.4007982e-01
1.7077106e-01
1.9640841e-01
2.1509534e-01
2.2537753e-01
2.2636684e-01
2.1780578e-01
2.0006399e-01
1.7406882e-01
1.4118219e-01
1.0304317e-01
6.1399137e-02
1.7948516e-02
-2.5785497e-02
-6.8536856e-02
-1.0932888e-01
-1.4745896e-01
-1.8244347e-01
-2.1393382e-01
-2.4161769e-01
-2.6512227e-01
-2.8393816e-01
-2.9738082e-01
-3.0460055e-01
-3.0464408e-01
-2.9656163e-01
-2.7954541e-01
-2.5307959e-01
-2.1707887e-01
-1.7199392e-01
-1.1886713e-01
-5.9328784e-02
4.4686062e-03
6.9972364e-02
1.3439604e-01
1.9491176e-01
2.4884677e-01
2.9386286e-01
3.2810096e-01
3.5027932e-01
3.5973943e-01
3.5644002e-01
3.4090528e-01
3.1413884e-01
2.7751741e-01
2.3267830e-01
1.8141292e-01
1.2557606e-01
6.7017538e-02
7.5385517e-03
-5.1129729e-02
-1.0733246e-01
-1.5949140e-01
-2.0610807e-01
-2.4577672e-01
-2.7721118e-01
-2.9928606e-01
-3.1108881e-01
-3.1197586e-01
-3.0162499e-01
-2.8007790e-01
-2.4776952e-01
-2.0554334e-01
-1.5465169e-01
-9.6739330e-02
-3.3807142e-02
3.1846479e-02
9.7707485e-02
1.6114957e-01
2.1955370e-01
2.7043443e-01
3.1156179e-01
3.4106815e-01
3.5753324e-01
3.6004392e-01
3.4822798e-01
3.2226288e-01
2.8286186e-01
2.3124292e-01
1.6908722e-01
9.8492642e-02
2.1924239e-02
-5.7841401e-02
-1.3778337e-01
-2.1472119e-01
-2.8542185e-01
-3.4673151e-01
-3.9573009e-01
-4.2990118e-01
-4.4730342e-01
-4.4672513e-01
-4.2780354e-01
-3.9109248e-01
-3.3806781e-01
-2.7106615e-01
-1.9315989e-01
-1.0797899e-01
-1.9495807e-02
6.8208387e-02
1.5117718e-01
2.2579688e-01
2.8898403e-01
3.3833037e-01
3.7219696e-01
3.8975530e-01
3.9097863e-01
3.7659024e-01
3.4797666e-01
3.0707407e-01
2.5623739e-01
1.9810192e-01
1.3544652e-01
7.1065871e-02
7.6570309e-03
-5.2275286e-02
-1.0649235e-01
-1.5307500e-01
-1.9046209e-01
-2.1748017e-01
-2.3336861e-01
-2.3780063e-01
-2.3089781e-01
-2.1323474e-01
-1.8582984e-01
-1.5011799e-01
-1.0790046e-01
-6.1270501e-02
-1.2516959e-02
3.5987509e-02
8.1905623e-02
1.2305413e-01
1.5751406e-01
1.8372472e-01
2.0055424e-01
2.0734242e-01
2.0391454e-01
1.9056737e-01
1.6803021e-01
1.3740481e-01
1.0009040e-01
5.7700948e-02
1.1982236e-02
-3.5265892e-02
-8.2258753e-02
-1.2728596e-01
-1.6875928e-01
-2.0524883e-01
-2.3550868e-01
-2.5849561e-01
-2.7338582e-01
-2.7959305e-01
-2.7678941e-01
-2.6492677e-01
-2.4425485e-01
-2.1533147e-01
-1.7902013e-01
-1.3647151e-01
-8.9087128e-02
-3.8465932e-02
1.3663311e-02
6.5519785e-02
1.1535303e-01
1.6152258e-01
2.0256612e-01
2.3724893e-01
2.6459146e-01
2.8387708e-01
2.9464567e-01
2.9667995e-01
2.8999134e-01
2.7481069e-01
2.5158730e-01
2.2099613e-01
1.8394942e-01
1.4160588e-01
9.5370489e-02
4.6878978e-02
-2.0379750e-03
-4.9414125e-02
-9.3231674e-02
-1.3152700e-01
-1.6251126e-01
-1.8469614e-01
-1.9701324e-01
-1.9891458e-01
-1.9044171e-01
-1.7225297e-01
-1.4560278e-01
-1.1227293e-01
-7.4461080e-02
-3.4636282e-02
4.6262509e-03
4.0816106e-02
7.1649210e-02
9.5206817e-02
1.1004311e-01
1.1525677e-01
1.1052471e-01
9.6098030e-02
7.2762958e-02
4.1772990e-02
4.7615052e-03
-3.6355464e-02
-7.9478543e-02
-1.2242148e-01
-1.6300147e-01
-1.9912073e-01
-2.2883762e-01
-2.5042863e-01
-2.6244462e-01
-2.6376550e-01
-2.5365494e-01
-2.3181415e-01
-1.9843081e-01
-1.5421772e-01
-1.0043374e-01
-3.8879117e-02
2.8141361e-02
9.7891255e-02
1.6731179e-01
2.3316457e-01
2.9220176e-01
3.4135403e-01
3.7792278e-01
3.9976047e-01
4.0542271e-01
3.9427918e-01
3.6657429e-01
3.2343236e-01
2.6680584e-01
1.9936916e-01
1.2436600e-01
4.5422237e-02
-3.3661007e-02
-1.0911979e-01
-1.7743134e-01
-2.3549670e-01
-2.8079160e-01
-3.1147973e-01
-3.2648744e-01
-3.2554085e-01
-3.0916610e-01
-2.7865196e-01
-2.3597443e-01
-1.8368551e-01
-1.2477051e-01
-6.2479808e-02
-1.4281042e-04
5.9025731e-02
1.1211336e-01
1.5667602e-01
1.9086858e-01
2.1352974e-01
2.2421559e-01
2.2317964e-01
2.1130089e-01
1.8996712e-01
1.6092592e-01
1.2612040e-01
8.7526935e-02
4.7011558e-02
6.2188009e-03
-3.3496695e-02
-7.1091487e-02
-1.0581056e-01
-1.3712987e-01
-1.6467700e-01
-1.8814392e-01
-2.0720611e-01
-2.2146219e-01
-2.3040650e-01
-2.3344199e-01
-2.2993331e-01
-2.1929318e-01
-2.0108937e-01
-1.7515784e-01
-1.4170601e-01
-1.0139160e-01
-5.5363992e-02
-5.2597757e-03
4.6851732e-02
9.8572218e-02
1.4732256e-01
1.9052544e-01
2.2580629e-01
2.5119089e-01
2.6527573e-01
2.6735049e-01
2.5745901e-01
2.3639439e-01
2.0563109e-01
1.6720320e-01
1.2354351e-01
7.7300654e-02
3.1152497e-02
-1.2368688e-02
-5.1027389e-02
-8.3004183e-02
-1.0697854e-01
-1.2217357e-01
-1.2836372e-01
-1.2584808e-01
-1.1539290e-01
-9.8148556e-02
-7.5548663e-02
-4.9201090e-02
-2.0781232e-02
8.0640977e-03
3.5796201e-02
6.1044042e-02
8.2643152e-02
9.9656372e-02
1.1138126e-01
1.1734896e-01
1.1731760e-01
1.1126130e-01
9.9355697e-02
8.1961779e-02
5.9610648e-02
3.2990916e-02
2.9387583e-03
-2.9570560e-02
-6.3430702e-02
-9.7412525e-02
-1.3017452e-01
-1.6027988e-01
-1.8622649e-01
-2.0649578e-01
-2.1962388e-01
-2.2429581e-01
-2.1945888e-01
-2.0444711e-01
-1.7910170e-01
-1.4386920e-01
-9.9859119e-02
-4.8848638e-02
6.7711002e-03
6.4106473e-02
1.1992591e-01
1.7086848e-01
2.1368219e-01
2.4547250e-01
2.6393809e-01
2.6757075e-01
2.5579793e-01
2.2905063e-01
1.8874601e-01
1.3718395e-01
7.7367973e-02
1.2770610e-02
-5.2931367e-02
-1.1612461e-01
-1.7350353e-01
-2.2226800e-01
-2.6025801e-01
-2.8601912e-01
-2.9880362e-01
-2.9852016e-01
-2.8564796e-01
-2.6113167e-01
-2.2627132e-01
-1.8261974e-01
-1.3189566e-01
-7.5916058e-02
-1.6546679e-02
4.4332749e-02
1.0485258e-01
1.6317156e-01
2.1749583e-01
2.6610598e-01
3.0739751e-01
3.3993574e-01
3.6252137e-01
3.7425950e-01
3.7462389e-01
3.6350841e-01
3.4125949e-01
3.0868488e-01
2.6703665e-01
2.1796793e-01
1.6346362e-01
1.0574565e-01
4.7154652e-02
-9.9871649e-03
-6.3522528e-02
-1.1160167e-01
-1.5280600e-01
-1.8623847e-01
-2.1156889e-01
-2.2902689e-01
-2.3934151e-01
-2.4363293e-01
-2.4326760e-01
-2.3969265e-01
-2.3426766e-01
-2.2811340e-01
-2.2199639e-01
-2.1626429e-01
-2.1084038e-01
-2.0527599e-01
-1.9885129e-01
-1.9070841e-01
-1.7999867e-01
-1.6602508e-01
-1.4836304e-01
-1.2694399e-01
-1.0209065e-01
-7.4498260e-02
-4.5162891e-02
-1.5265097e-02
1.3976318e-02
4.1459497e-02
6.6339878e-02
8.8133908e-02
1.0677084e-01
1.2258566e-01
1.3625423e-01
1.4867883e-01
1.6083864e-01
1.7362452e-01
1.8768038e-01
2.0327218e-01
2.2020208e-01
2.3777927e-01
2.5485215e-01
2.6989905e-01
2.8116677e-01
2.8683995e-01
2.8522185e-01
2.7490747e-01
2.5493281e-01
2.2488765e-01
1.8498324e-01
1.3607086e-01
7.9612662e-02
1.7610846e-02
-4.7496511e-02
-1.1296482e-01
-1.7589025e-01
-2.3336770e-01
-2.8265215e-01
-3.2131607e-01
-3.4739641e-01
-3.5952401e-01
-3.5702718e-01
-3.3999992e-01
-3.0932637e-01
-2.6665619e-01
-2.1432945e-01
-1.5525341e-01
-9.2737284e-02
-3.0294959e-02
2.8570943e-02
8.0587991e-02
1.2292047e-01
1.5334964e-01
1.7041550e-01
1.7350909e-01
1.6290732e-01
1.3974732e-01
1.0594374e-01
6.4056952e-02
1.7122565e-02
-3.1545730e-02
-7.8566391e-02
-1.2069794e-01
-1.5502970e-01
-1.7914389e-01
-1.9124205e-01
-1.9023201e-01
-1.7577380e-01
-1.4828451e-01
-1.0890534e-01
-5.9436180e-02
-2.2430538e-03
5.9857909e-02
1.2373830e-01
1.8611460e-01
2.4371931e-01
2.9347763e-01
3.3267886e-01
3.5913073e-01
3.7128397e-01
3.6831516e-01
3.5015932e-01
3.1749083e-01
2.7165850e-01
2.1458537e-01
1.4864466e-01
7.6523264e-02
1.0835379e-03
-7.4765815e-02
-1.4818183e-01
-2.1647884e-01
-2.7720067e-01
-3.2817774e-01
-3.6757404e-01
-3.9392974e-01
-4.0620419e-01
-4.0382211e-01
-3.8672126e-01
-3.5539520e-01
-3.1092123e-01
-2.5496361e-01
-1.8974400e-01
-1.1797403e-01
-4.2748139e-02
3.2601476e-02
1.0468026e-01
1.7022413e-01
2.2629334e-01
2.7045082e-01
3.0091043e-01
3.1664320e-01
3.1743315e-01
3.0387812e-01
2.7733715e-01
2.3982987e-01
1.9389668e-01
1.4242949e-01
8.8484303e-02
3.5088437e-02
-1.4943649e-02
-5.9172679e-02
-9.5663744e-02
-1.2307394e-01
-1.4069348e-01
-1.4843963e-01
-1.4680760e-01
-1.3678703e-01
-1.1975525e-01
-9.7358507e-02
-7.1390507e-02
-4.3675813e-02
-1.5963475e-02
1.0165312e-02
3.3373071e-02
5.2623178e-02
6.7214974e-02
7.6792639e-02
8.1324626e-02
8.1054235e-02
7.6427336e-02
6.8007955e-02
5.6394888e-02
4.2152099e-02
2.5763124e-02
7.6155990e-03
-1.1983201e-02
-3.2764565e-02
-5.4439619e-02
-7.6635477e-02
-9.8838213e-02
-1.2035361e-01
-1.4029503e-01
-1.5760525e-01
-1.7111459e-01
-1.7963125e-01
-1.8205384e-01
-1.7749197e-01
-1.6537911e-01
-1.4556289e-01
-1.1836012e-01
-8.4567988e-02
-4.5428672e-02
-2.5501451e-03
4.2208225e-02
8.6872488e-02
1.2949742e-01
1.6829981e-01
2.0176770e-01
2.2873659e-01
2.4842933e-01
2.6046107e-01
2.6481302e-01
2.6178035e-01
2.5190091e-01
2.3587397e-01
2.1447962e-01
1.8850969e-01
1.5871804e-01
1.2579512e-01
9.0367265e-02
5.3017337e-02
1.4319134e-02
-2.5124114e-02
-6.4645593e-02
-1.0348991e-01
-1.4079896e-01
-1.7561016e-01
-2.0686978e-01
-2.3346469e-01
-2.5427371e-01
-2.6823646e-01
-2.7443450e-01
-2.7217725e-01
-2.6108315e-01
-2.4114438e-01
-2.1276463e-01
-1.7676391e-01
-1.3435069e-01
-8.7066922e-02
-3.6713566e-02
1.4736457e-02
6.5231893e-02
1.1273769e-01
1.5532565e-01
1.9125861e-01
2.1906780e-01
2.3762252e-01
2.4618824e-01
2.4446590e-01
2.3260577e-01
2.1119246e-01
1.8120297e-01
1.4394257e-01
1.0096572e-01
5.3990211e-02
4.8137816e-03
-4.4759215e-02
-9.2976299e-02
-1.3817980e-01
-1.7883615e-01
-2.1355508e-01
-2.4110413e-01
-2.6042548e-01
-2.7066249e-01
-2.7120027e-01
-2.6171867e-01
-2.4224975e-01
-2.1322835e-01
-1.7552317e-01
-1.3043680e-01
-7.9665757e-02
-2.5216823e-02
3.0715614e-02
8.5898167e-02
1.3821487e-01
1.8581271e-01
2.2722008e-01
2.6142534e-01
2.8790661e-01
3.0660941e-01
3.1787633e-01
3.2233920e-01
3.2078837e-01
3.1403515e-01
3.0278347e-01
2.8752654e-01
2.6848275e-01
2.4558128e-01
2.1850118e-01
1.8676035e-01
1.4984400e-01
1.0735698e-01
5.9179693e-02
5.6046749e-03
-5.2568926e-02
-1.1400023e-01
-1.7683962e-01
-2.3882845e-01
-2.9745485e-01
-3.5014814e-01
-3.9448967e-01
-4.2841530e-01
-4.5038583e-01
-4.5950637e-01
-4.5558241e-01
-4.3910808e-01
-4.1118990e-01
-3.7341697e-01
-3.2769602e-01
-2.7607370e-01
-2.2056856e-01
-1.6303110e-01
-1.0504485e-01
-4.7875704e-02
7.5285355e-03
6.0492633e-02
1.1053277e-01
1.5725587e-01
2.0025845e-01
2.3904454e-01
2.7297967e-01
3.0129339e-01
3.2313454e-01
3.3767260e-01
3.4422701e-01
3.4240019e-01
3.3218987e-01
3.1406126e-01
2.8896644e-01
2.5830541e-01
2.2383100e-01
1.8750733e-01
1.5133706e-01
1.1717542e-01
8.6549990e-02
6.0505194e-02
3.9490483e-02
2.3309935e-02
1.1145942e-02
1.6607210e-03
-6.8319186e-03
-1.6142899e-02
-2.7959420e-02
-4.3604784e-02
-6.3840843e-02
-8.8741904e-02
-1.1765688e-01
-1.4926107e-01
-1.8168511e-01
-2.1270046e-01
-2.3993819e-01
-2.6111853e-01
-2.7426992e-01
-2.7791813e-01
-2.7122922e-01
-2.5409403e-01
-2.2714662e-01
-1.9171512e-01
-1.4971003e-01
-1.0346257e-01
-5.5531328e-02
-8.4973589e-03
3.5232713e-02
7.3599043e-02
1.0502245e-01
1.2848975e-01
1.4358557e-01
1.5047207e-01
1.4982342e-01
1.4272543e-01
1.3055240e-01
1.1483361e-01
9.7121717e-02
7.8872927e-02
6.1345469e-02
4.5520077e-02
3.2046163e-02
2.1219012e-02
1.2993492e-02
7.0360549e-03
2.8101719e-03
-3.1582676e-04
-2.9528480e-03
-5.5821319e-03
-8.4679750e-03
-1.1605498e-02
-1.4713640e-02
-1.7277312e-02
-1.8634566e-02
-1.8097361e-02
-1.5089339e-02
-9.2806859e-03
-6.9830192e-04
1.0209377e-02
2.2567935e-02
3.5138563e-02
4.6440949e-02
5.4923638e-02
5.9160747e-02
5.8048720e-02
5.0974698e-02
3.7930961e-02
1.9558145e-02
-2.8884980e-03
-2.7644500e-02
-5.2600319e-02
-7.5506486e-02
-9.4198265e-02
-1.0681555e-01
-1.1199381e-01
-1.0900571e-01
-9.7839479e-02
-7.9206683e-02
-5.4478153e-02
-2.5553137e-02
5.3264962e-03
3.5797802e-02
6.3608849e-02
8.6833628e-02
1.0404428e-01
1.1442118e-01
1.1779024e-01
1.1458697e-01
1.0575716e-01
9.2611546e-02
7.6655123e-02
5.9411029e-02
4.2257162e-02
2.6291612e-02
1.2240426e-02
4.1608848e-04
-9.2719191e-03
-1.7259725e-02
-2.4234384e-02
-3.1013783e-02
-3.8414537e-02
-4.7122396e-02
-5.7579373e-02
-6.9899749e-02
-8.3823642e-02
-9.8713224e-02
-1.1359353e-01
-1.2723623e-01
-1.3827999e-01
-1.4537518e-01
-1.4733630e-01
-1.4328306e-01
-1.3275231e-01
-1.1576594e-01
-9.2845303e-02
-6.4970227e-02
-3.3488961e-02
7.2595974e-06
3.3826997e-02
6.6320347e-02
9.6003725e-02
1.2165551e-01
1.4237459e-01
1.5759906e-01
1.6708866e-01
1.7088062e-01
1.6923125e-01
1.6255510e-01
1.5137087e-01
1.3625997e-01
1.1784109e-01
9.6760157e-02
7.3691897e-02
4.9346594e-02
2.4475872e-02
-1.2750615e-04
-2.3639166e-02
-4.5224008e-02
-6.4069343e-02
-7.9429330e-02
-9.0677297e-02
-9.7360159e-02
-9.9247858e-02
-9.6370638e-02
-8.9037732e-02
-7.7832727e-02
-6.3583933e-02
-4.7311638e-02
-3.0156773e-02
-1.3296436e-02
2.1478744e-03
1.5202065e-02
2.5121766e-02
3.1454540e-02
3.4073184e-02
3.3175384e-02
2.9249224e-02
2.3007810e-02
1.5300063e-02
7.0090498e-03
-1.0476448e-03
-8.2014366e-03
-1.3990435e-02
-1.8187847e-02
-2.0802414e-02
-2.2054197e-02
-2.2329472e-02
-2.2119488e-02
-2.1949334e-02
-2.2304166e-02
-2.3559986e-02
-2.5926177e-02
-2.9407430e-02
-3.3792124e-02
-3.8670921e-02
-4.3483884e-02
-4.7588954e-02
-5.0341297e-02
-5.1172010e-02
-4.9655217e-02
-4.5554608e-02
-3.8844061e-02
-2.9701860e-02
-1.8482478e-02
-5.6722277e-03
8.1645256e-03
2.2442282e-02
3.6607956e-02
5.0184585e-02
6.2800099e-02
7.4198972e-02
8.4237436e-02
9.2864301e-02
1.0008949e-01
1.0594315e-01
1.1043097e-01
1.1349430e-01
1.1498500e-01
1.1466178e-01
1.1220993e-01
1.0728121e-01
9.9547839e-02
8.8762112e-02
7.4811313e-02
5.7757809e-02
3.7856920e-02
1.5550230e-02
-8.5633137e-03
-3.3773375e-02
-5.9314532e-02
-8.4424425e-02
-1.0839360e-01
-1.3059750e-01
-1.5050552e-01
-1.6766881e-01
-1.8169511e-01
-1.9222134e-01
-1.9889420e-01
-2.0136521e-01
-1.9930354e-01
-1.9242529e-01
-1.8053416e-01
-1.6356436e-01
-1.4161681e-01
-1.1498214e-01
-8.4148751e-02
-4.9796931e-02
-1.2781397e-02
2.5895446e-02
6.5117218e-02
1.0369258e-01
1.4039917e-01
1.7403333e-01
2.0346565e-01
2.2769944e-01
2.4592592e-01
2.5756974e-01
2.6231970e-01
2.6014154e-01
2.5127060e-01
2.3618377e-01
2.1555409e-01
1.9019531e-01
1.6100603e-01
1.2892112e-01
9.4874256e-02
5.9771345e-02
2.4473179e-02
-1.0214921e-02
-4.3550231e-02
-7.4861895e-02
-1.0356756e-01
-1.2919940e-01
-1.5143685e-01
-1.7013968e-01
-1.8537278e-01
-1.9741362e-01
-2.0673395e-01
-2.1395068e-01
-2.1974560e-01
-2.2476039e-01
-2.2947832e-01
-2.3410777e-01
-2.3848396e-01
-2.4200617e-01
-2.4362610e-01
-2.4189850e-01
-2.3509674e-01
-2.2138558e-01
-1.9903524e-01
-1.6665472e-01
-1.2341864e-01
-6.9260240e-02
-5.0038092e-03
6.7584552e-02
1.4583949e-01
2.2633203e-01
3.0508755e-01
3.7786658e-01
4.4048290e-01
4.8912851e-01
5.2067461e-01
5.3292016e-01
5.2476600e-01
4.9629936e-01
4.4878110e-01
3.8453644e-01
3.0676137e-01
2.1926785e-01
1.2619814e-01
3.1738812e-02
-6.0139797e-02
-1.4589986e-01
-2.2259551e-01
-2.8796925e-01
-3.4048518e-01
-3.7930522e-01
-4.0421960e-01
-4.1554623e-01
-4.1401468e-01
-4.0064994e-01
-3.7666942e-01
-3.4340279e-01
-3.0223926e-01
-2.5460158e-01
-2.0194142e-01
-1.4574823e-01
-8.7561666e-02
-2.8977272e-02
2.8364076e-02
8.2807563e-02
1.3273534e-01
1.7663021e-01
2.1314332e-01
2.4115803e-01
2.5984392e-01
2.6869650e-01
2.6755958e-01
2.5663000e-01
2.3644777e-01
2.0787568e-01
1.7207185e-01
1.3045594e-01
8.4668215e-02
3.6519865e-02
-1.2066584e-02
-5.9127532e-02
-1.0273911e-01
-1.4110609e-01
-1.7265327e-01
-1.9611065e-01
-2.1058350e-01
-2.1559994e-01
-2.1113193e-01
-1.9758793e-01
-1.7577857e-01
-1.4685935e-01
-1.1225696e-01
-7.3586346e-02
-3.2563742e-02
9.0804823e-03
4.9685254e-02
8.7732508e-02
1.2190415e-01
1.5111708e-01
1.7453511e-01
1.9156065e-01
2.0181140e-01
2.0508830e-01
2.0134167e-01
1.9064311e-01
1.7316984e-01
1.4920700e-01
1.1916995e-01
8.3645511e-02
4.3446616e-02
-3.3053843e-04
-4.6263171e-02
-9.2591042e-02
-1.3725348e-01
-1.7798105e-01
-2.1243750e-01
-2.3839727e-01
-2.5393736e-01
-2.5761964e-01
-2.4864081e-01
-2.2693263e-01
-1.9320183e-01
-1.4890723e-01
-9.6177830e-02
-3.7679297e-02
2.3560205e-02
8.4350389e-02
1.4154722e-01
1.9224989e-01
2.3397009e-01
2.6476318e-01
2.8331702e-01
2.8899761e-01
2.8185303e-01
2.6257881e-01
2.3244994e-01
1.9322585e-01
1.4703531e-01
9.6247275e-02
4.3334549e-02
-9.2617132e-03
-5.9258248e-02
-1.0463917e-01
-1.4374340e-01
-1.7532651e-01
-1.9859451e-01
-2.1320915e-01
-2.1926696e-01
-2.1725679e-01
-2.0800072e-01
-1.9258239e-01
-1.7226605e-01
-1.4841070e-01
-1.2238576e-01
-9.5494680e-02
-6.8911887e-02
-4.3636527e-02
-2.0465474e-02
1.2620482e-05
1.7402408e-02
3.1470151e-02
4.2103819e-02
4.9276388e-02
5.3023420e-02
5.3442304e-02
5.0714687e-02
4.5146536e-02
3.7213468e-02
2.7594910e-02
1.7181934e-02
7.0498714e-03
-1.6049411e-03
-7.5580510e-03
-9.6689976e-03
-7.0001036e-03
1.0717075e-03
1.4763631e-02
3.3827304e-02
5.7526948e-02
8.4656482e-02
1.1359394e-01
1.4239103e-01
1.6889532e-01
1.9090067e-01
2.0631698e-01
2.1334665e-01
2.1065124e-01
1.9749072e-01
1.7381841e-01
1.4031777e-01
9.8374187e-02
4.9983355e-02
-2.3928701e-03
-5.6005850e-02
-1.0801554e-01
-1.5568404e-01
-1.9655267e-01
-2.2859197e-01
-2.5031796e-01
-2.6087104e-01
-2.6005611e-01
-2.4834192e-01
-2.2681873e-01
-1.9711517e-01
-1.6127965e-01
-1.2163535e-01
-8.0619146e-02
-4.0614815e-02
-3.7907272e-03
2.8047048e-02
5.3574860e-02
7.2034382e-02
8.3270295e-02
8.7718013e-02
8.6340293e-02
8.0515936e-02
7.1889061e-02
6.2193004e-02
5.3067259e-02
4.5887632e-02
4.1628459e-02
4.0771696e-02
4.3271950e-02
4.8579689e-02
5.5717976e-02
6.3402503e-02
7.0191402e-02
7.4650257e-02
7.5517702e-02
7.1856573e-02
6.3175083e-02
4.9503562e-02
3.1416443e-02
9.9956830e-03
-1.3261266e-02
-3.6579675e-02
-5.8077481e-02
-7.5948773e-02
-8.8641292e-02
-9.5009578e-02
-9.4428200e-02
-8.6853368e-02
-7.2826103e-02
-5.3416477e-02
-3.0115899e-02
-4.6912768e-03
2.0980985e-02
4.5082593e-02
6.6005411e-02
8.2472920e-02
9.3619130e-02
9.9018276e-02
9.8665963e-02
9.2920043e-02
8.2414941e-02
6.7965039e-02
5.0471499e-02
3.0843687e-02
9.9420225e-03
-1.1455766e-02
-3.2667330e-02
-5.3101811e-02
-7.2243724e-02
-8.9628302e-02
-1.0481278e-01
-1.1735028e-01
-1.2677450e-01
-1.3260264e-01
-1.3436063e-01
-1.3163008e-01
-1.2411201e-01
-1.1169847e-01
-9.4539017e-02
-7.3086944e-02
-4.8111810e-02
-2.0671465e-02
7.9540636e-03
3.6356698e-02
6.3108474e-02
8.6869623e-02
1.0648460e-01
1.2105724e-01
1.3000008e-01
1.3305655e-01
1.3029804e-01
1.2209839e-01
1.0908912e-01
9.2099449e-02
7.2088489e-02
5.0079950e-02
2.7108846e-02
4.1846325e-03
-1.7731317e-02
-3.7739954e-02
-5.5016704e-02
-6.8825812e-02
-7.8539318e-02
-8.3661484e-02
-8.3857153e-02
-7.8979816e-02
-6.9093985e-02
-5.4487996e-02
-3.5676027e-02
-1.3389241e-02
1.1445090e-02
3.7738360e-02
6.4289519e-02
8.9844806e-02
1.1316246e-01
1.3307608e-01
1.4855136e-01
1.5873241e-01
1.6297507e-01
1.6086681e-01
1.5223448e-01
1.3714251e-01
1.1588419e-01
8.8967884e-02
5.7099348e-02
2.1161369e-02
-1.7808314e-02
-5.8640497e-02
-1.0006072e-01
-1.4072040e-01
-1.7923445e-01
-2.1422509e-01
-2.4437035e-01
-2.6845552e-01
-2.8542609e-01
-2.9444025e-01
-2.9491768e-01
-2.8658049e-01
-2.6948306e-01
-2.4402856e-01
-2.1097067e-01
-1.7139799e-01
-1.2669795e-01
-7.8498421e-02
-2.8587352e-02
2.1186581e-02
6.9026634e-02
1.1330470e-01
1.5266845e-01
1.8612353e-01
2.1307821e-01
2.3334517e-01
2.4710178e-01
2.5481654e-01
2.5715205e-01
2.5485782e-01
2.4866685e-01
2.3920974e-01
2.2695697e-01
2.1219570e-01
1.9504260e-01
1.7548986e-01
1.5347712e-01
1.2897753e-01
1.0208336e-01
7.3077088e-02
4.2477044e-02
1.1050960e-02
-2.0206300e-02
-5.0132195e-02
-7.7490778e-02
-1.0109336e-01
-1.1993039e-01
-1.3329482e-01
-1.4087737e-01
-1.4281780e-01
-1.3970340e-01
-1.3251405e-01
-1.2252197e-01
-1.1116158e-01
-9.9888177e-02
-9.0042918e-02
-8.2738172e-02
-7.8772964e-02
-7.8583793e-02
-8.2230646e-02
-8.9412766e-02
-9.9505724e-02
-1.1161159e-01
-1.2461660e-01
-1.3725354e-01
-1.4816834e-01
-1.5599115e-01
-1.5941254e-01
-1.5726526e-01
-1.4860971e-01
-1.3281727e-01
-1.0964172e-01
-7.9267487e-02
-4.2326299e-02
1.2018981e-04
4.6629264e-02
9.5451900e-02
1.4462693e-01
1.9208768e-01
2.3577368e-01
2.7374029e-01
3.0426086e-01
3.2591701e-01
3.3767249e-01
3.3892495e-01
3.2953071e-01
3.0980028e-01
2.8046608e-01
2.4262584e-01
1.9766739e-01
1.4718203e-01
9.2875171e-02
3.6483774e-02
-2.0292468e-02
-7.5842060e-02
-1.2867394e-01
-1.7743200e-01
-2.2089455e-01
-2.5796482e-01
-2.8766153e-01
-3.0911993e-01
-3.2160993e-01
-3.2457214e-01
-3.1766776e-01
-3.0083446e-01
-2.7433937e-01
-2.3881895e-01
-1.9529710e-01
-1.4517590e-01
-9.0197872e-02
-3.2382813e-02
2.6055150e-02
8.2803777e-02
1.3555552e-01
1.8211036e-01
2.2047346e-01
2.4894561e-01
2.6620673e-01
2.7139316e-01
2.6416628e-01
2.4476645e-01
2.1404366e-01
1.7345748e-01
1.2504115e-01
7.1326585e-02
1.5229221e-02
-4.0105857e-02
-9.1490100e-02
-1.3589802e-01
-1.7067810e-01
-1.9375071e-01
-2.0377565e-01
-2.0027233e-01
-1.8367748e-01
-1.5533000e-01
-1.1738069e-01
-7.2632974e-02
-2.4328371e-02
2.4104919e-02
6.9318097e-02
1.0829871e-01
1.3859522e-01
1.5848957e-01
1.6710405e-01
1.6443463e-01
1.5130895e-01
1.2927322e-01
1.0042027e-01
6.7178435e-02
3.2085135e-02
-2.4310610e-03
-3.4239523e-02
-6.1652212e-02
-8.3513604e-02
-9.9231740e-02
-1.0875289e-01
-1.1248803e-01
-1.1120302e-01
-1.0588622e-01
-9.7608599e-02
-8.7391650e-02
-7.6097967e-02
-6.4356439e-02
-5.2528684e-02
-4.0717352e-02
-2.8811726e-02
-1.6562233e-02
-3.6725259e-03
1.0104247e-02
2.4878710e-02
4.0559901e-02
5.6819656e-02
7.3091341e-02
8.8603525e-02
1.0244426e-01
1.1364634e-01
1.2127988e-01
1.2453876e-01
1.2281039e-01
1.1572464e-01
1.0318206e-01
8.5364547e-02
6.2731819e-02
3.6007277e-02
6.1555041e-03
-2.5647792e-02
-5.8054235e-02
-8.9590732e-02
-1.1871743e-01
-1.4389569e-01
-1.6366553e-01
-1.7673068e-01
-1.8204675e-01
-1.7890573e-01
-1.6700831e-01
-1.4651593e-01
-1.1807602e-01
-8.2816240e-02
-4.2305490e-02
1.5189743e-03
4.6456512e-02
9.0174311e-02
1.3035463e-01
1.6484487e-01
1.9179660e-01
2.0978079e-01
2.1786909e-01
2.1567513e-01
2.0335468e-01
1.8156871e-01
1.5141635e-01
1.1434656e-01
7.2058496e-02
2.6400811e-02
-2.0720077e-02
-6.7415627e-02
-1.1187270e-01
-1.5239593e-01
-1.8744032e-01
-2.1563862e-01
-2.3582724e-01
-2.4707405e-01
-2.4871172e-01
-2.4037726e-01
-2.2205453e-01
-1.9411238e-01
-1.5733016e-01
-1.1290388e-01
-6.2428143e-02
-7.8506890e-03
4.8601237e-02
1.0451962e-01
1.5743286e-01
2.0493241e-01
2.4479956e-01
2.7512386e-01
2.9440524e-01
3.0163299e-01
2.9633678e-01
2.7860881e-01
2.4909901e-01
2.0898694e-01
1.5993271e-01
1.0400879e-01
4.3614156e-02
-1.8626981e-02
-7.9979331e-02
-1.3771969e-01
-1.8926362e-01
-2.3228801e-01
-2.6484191e-01
-2.8544023e-01
-2.9313815e-01
-2.8758501e-01
-2.6905534e-01
-2.3845229e-01
-1.9727908e-01
-1.4757558e-01
-9.1821057e-02
-3.2806276e-02
2.6519122e-02
8.3214904e-02
1.3452124e-01
1.7801729e-01
2.1175323e-01
2.3434566e-01
2.4503048e-01
2.4367126e-01
2.3072505e-01
2.0717171e-01
1.7441761e-01
1.3418616e-01
8.8406681e-02
3.9110332e-02
-1.1660172e-02
-6.1922405e-02
-1.0980515e-01
-1.5357981e-01
-1.9167772e-01
-2.2270148e-01
-2.4543832e-01
-2.5888214e-01
-2.6226864e-01
-2.5512434e-01
-2.3732502e-01
-2.0915358e-01
-1.7134339e-01
-1.2509495e-01
-7.2058389e-02
-1.4280999e-02
4.5877211e-02
1.0585435e-01
1.6301733e-01
2.1480352e-01
2.5886231e-01
2.9318435e-01
3.1620793e-01
3.2689501e-01
3.2477288e-01
3.0994063e-01
2.8304319e-01
2.4521882e-01
1.9802789e-01
1.4337132e-01
8.3405995e-02
2.0463363e-02
-4.3025118e-02
-1.0459536e-01
-1.6181499e-01
-2.1235094e-01
-2.5404570e-01
-2.8500424e-01
-3.0369038e-01
-3.0902825e-01
-3.0050137e-01
-2.7823844e-01
-2.4307152e-01
-1.9655199e-01
-1.4091292e-01
-7.8972755e-02
-1.3984086e-02
5.0560818e-02
1.1114913e-01
1.6446966e-01
2.0761771e-01
2.3826709e-01
2.5479955e-01
2.5638741e-01
2.4302810e-01
2.1553183e-01
1.7546564e-01
1.2505917e-01
6.7079040e-02
4.6786303e-03
-5.8770517e-02
-1.1985911e-01
-1.7532416e-01
-2.2222649e-01
-2.5811071e-01
-2.8113741e-01
-2.9017856e-01
-2.8486882e-01
-2.6560887e-01
-2.3352054e-01
-1.9035794e-01
-1.3838135e-01
-8.0204167e-02
-1.8625614e-02
4.3536217e-02
1.0359810e-01
1.5914294e-01
2.0812315e-01
2.4893307e-01
2.8044812e-01
3.0202997e-01
3.1349934e-01
3.1508211e-01
3.0733632e-01
2.9106813e-01
2.6724368e-01
2.3690399e-01
2.0109106e-01
1.6079410e-01
1.1692218e-01
7.0305580e-02
2.1723067e-02
-2.8050902e-02
-7.8187211e-02
-1.2774192e-01
-1.7560784e-01
-2.2049164e-01
-2.6092709e-01
-2.9532864e-01
-3.2208198e-01
-3.3966298e-01
-3.4677232e-01
-3.4247074e-01
-3.2629760e-01
-2.9835602e-01
-2.5935259e-01
-2.1058617e-01
-1.5388805e-01
-9.1521217e-02
-2.6050814e-02
3.9799661e-02
1.0329275e-01
1.6181156e-01
2.1297864e-01
2.5475693e-01
2.8553128e-01
3.0416898e-01
3.1005889e-01
3.0313082e-01
2.8385814e-01
2.5324556e-01
2.1280035e-01
1.6448344e-01
1.1063684e-01
5.3885995e-02
-2.9819749e-03
-5.7160572e-02
-1.0597963e-01
-1.4706267e-01
-1.7847151e-01
-1.9882524e-01
-2.0738458e-01
-2.0409666e-01
-1.8959689e-01
-1.6516594e-01
-1.3264195e-01
-9.4292238e-02
-5.2652631e-02
-1.0345964e-02
3.0106470e-02
6.6464753e-02
9.6924585e-02
1.2023004e-01
1.3573276e-01
1.4339099e-01
1.4370823e-01
1.3761787e-01
1.2632860e-01
1.1115193e-01
9.3337386e-02
7.3938225e-02
5.3724208e-02
3.3149695e-02
1.2377529e-02
-8.6478449e-03
-3.0090995e-02
-5.2097836e-02
-7.4669889e-02
-9.7559914e-02
-1.2020527e-01
-1.4171063e-01
-1.6088550e-01
-1.7633415e-01
-1.8658807e-01
-1.9026410e-01
-1.8622859e-01
-1.7374659e-01
-1.5259770e-01
-1.2314435e-01
-8.6344101e-02
-4.3704512e-02
2.8140186e-03
5.0936277e-02
9.8236345e-02
1.4231132e-01
1.8094824e-01
2.1226912e-01
2.3484233e-01
2.4775262e-01
2.5062717e-01
2.4361892e-01
2.2735182e-01
2.0283690e-01
1.7137103e-01
1.3443198e-01
9.3580672e-02
5.0377841e-02
6.3188890e-03
-3.7212273e-02
-7.8970889e-02
-1.1786252e-01
-1.5294098e-01
-1.8339724e-01
-2.0854311e-01
-2.2779296e-01
-2.4064656e-01
-2.4667726e-01
-2.4553087e-01
-2.3693976e-01
-2.2075416e-01
-1.9698864e-01
-1.6587817e-01
-1.2793530e-01
-8.3997725e-02
-3.5254746e-02
1.6757273e-02
7.0194601e-02
1.2297871e-01
1.7289530e-01
2.1771279e-01
2.5531331e-01
2.8382768e-01
3.0176219e-01
3.0810430e-01
3.0239538e-01
2.8476351e-01
2.5591364e-01
2.1707767e-01
1.6993145e-01
1.1648990e-01
5.8992648e-02
-2.1011917e-04
-5.8766398e-02
-1.1442394e-01
-1.6512316e-01
-2.0907801e-01
-2.4484015e-01
-2.7134285e-01
-2.8792324e-01
-2.9432302e-01
-2.9066875e-01
-2.7743458e-01
-2.5539322e-01
-2.2556193e-01
-1.8914889e-01
-1.4750147e-01
-1.0205538e-01
-5.4285006e-02
-5.6564153e-03
4.2414333e-02
8.8596264e-02
1.3167116e-01
1.7055277e-01
2.0429656e-01
2.3210025e-01
2.5329828e-01
2.6735455e-01
2.7385785e-01
2.7252280e-01
2.6319796e-01
2.4588228e-01
2.2074985e-01
1.8818118e-01
1.4879624e-01
1.0348342e-01
5.3418918e-02
7.1549658e-05
-5.4811544e-02
-1.0924296e-01
-1.6106016e-01
-2.0801843e-01
-2.4790872e-01
-2.7869425e-01
-2.9865627e-01
-3.0653618e-01
-3.0165871e-01
-2.8402024e-01
-2.5432951e-01
-2.1399369e-01
-1.6504847e-01
-1.1003608e-01
-5.1839418e-02
6.5141580e-03
6.2061520e-02
1.1210406e-01
1.5437981e-01
1.8719214e-01
2.0948590e-01
2.2086815e-01
2.2157518e-01
2.1239295e-01
1.9454205e-01
1.6954196e-01
1.3907019e-01
1.0483070e-01
6.8443913e-02
3.1366995e-02
-5.1511366e-03
-4.0080143e-02
-7.2587466e-02
-1.0199315e-01
-1.2771008e-01
-1.4918247e-01
-1.6583710e-01
-1.7706070e-01
-1.8221121e-01
-1.8066311e-01
-1.7187990e-01
-1.5550212e-01
-1.3143759e-01
-9.9939696e-02
-6.1660919e-02
-1.7672503e-02
3.0554102e-02
8.1203530e-02
1.3220707e-01
1.8136127e-01
2.2646470e-01
2.6545870e-01
2.9655623e-01
3.1834503e-01
3.2985639e-01
3.3059662e-01
3.2054209e-01
3.0010229e-01
2.7005786e-01
2.3148366e-01
1.8566708e-01
1.3403062e-01
7.8064514e-02
1.9273476e-02
-4.0860660e-02
-1.0090064e-01
-1.5946346e-01
-2.1522407e-01
-2.6691970e-01
-3.1335914e-01
-3.5343839e-01
-3.8616129e-01
-4.1066283e-01
-4.2623325e-01
-4.3234074e-01
-4.2865103e-01
-4.1504248e-01
-3.9161686e-01
-3.5870654e-01
-3.1687872e-01
-2.6693748e-01
-2.0992509e-01
-1.4712491e-01
-8.0066188e-02
-1.0526989e-02
5.9473836e-02
1.2770725e-01
1.9179790e-01
2.4932767e-01
2.9797827e-01
3.3570346e-01
3.6091129e-01
3.7263034e-01
3.7063358e-01
3.5550130e-01
3.2861480e-01
2.9208252e-01
2.4860620e-01
2.0129825e-01
1.5346412e-01
1.0836617e-01
6.8986949e-02
3.7809640e-02
1.6631689e-02
6.4261973e-03
7.2643760e-03
1.8309453e-02
3.7885988e-02
6.3619894e-02
9.2636654e-02
1.2180006e-01
1.4797016e-01
1.6825609e-01
1.8023794e-01
1.8213562e-01
1.7291120e-01
1.5230227e-01
1.2079196e-01
7.9525917e-02
3.0188937e-02
-2.5143612e-02
-8.4163247e-02
-1.4448003e-01
-2.0375763e-01
-2.5982525e-01
-3.1076313e-01
-3.5496006e-01
-3.9114356e-01
-4.1838571e-01
-4.3608928e-01
-4.4395994e-01
-4.4196978e-01
-4.3031740e-01
-4.0938940e-01
-3.7972743e-01
-3.4200401e-01
-2.9700761e-01
-2.4563673e-01
-1.8890178e-01
-1.2793292e-01
-6.3989938e-02
1.5323861e-03
6.7110477e-02
1.3111611e-01
1.9186177e-01
2.4766669e-01
2.9693885e-01
3.3826418e-01
3.7049156e-01
3.9280253e-01
4.0475733e-01
4.0631371e-01
3.9781948e-01
3.7998226e-01
3.5382098e-01
3.2060413e-01
2.8177956e-01
2.3890082e-01
1.9355429e-01
1.4729130e-01
1.0156955e-01
5.7707578e-02
1.6853925e-02
-2.0031402e-02
-5.2188381e-02
-7.9066175e-02
-1.0033153e-01
-1.1587430e-01
-1.2580688e-01
-1.3045533e-01
-1.3034218e-01
-1.2616218e-01
-1.1875223e-01
-1.0905628e-01
-9.8085346e-02
-8.6872262e-02
-7.6420222e-02
-6.7644842e-02
-6.1311401e-02
-5.7971966e-02
-5.7909220e-02
-6.1094520e-02
-6.7167190e-02
-7.5441006e-02
-8.4941881e-02
-9.4477286e-02
-1.0273327e-01
-1.0839067e-01
-1.1024977e-01
-1.0735210e-01
-9.9088296e-02
-8.5280492e-02
-6.6229167e-02
-4.2717222e-02
-1.5969484e-02
1.2429114e-02
4.0649541e-02
6.6758994e-02
8.8873486e-02
1.0530950e-01
1.1472195e-01
1.1621796e-01
1.0943860e-01
9.4603222e-02
7.2511505e-02
4.4500288e-02
1.2354965e-02
-2.1819591e-02
-5.5758555e-02
-8.7213070e-02
-1.1412566e-01
-1.3478617e-01
-1.4794919e-01
-1.5289749e-01
-1.4944493e-01
-1.3788376e-01
-1.1889129e-01
-9.3416595e-02
-6.2567682e-02
-2.7516648e-02
1.0565893e-02
5.0542915e-02
9.1312967e-02
1.3179070e-01
1.7087640e-01
2.0742445e-01
2.4022013e-01
2.6797438e-01
2.8934525e-01
3.0299091e-01
3.0765299e-01
3.0226359e-01
2.8606468e-01
2.5872588e-01
2.2044415e-01
1.7200913e-01
1.1482026e-01
5.0848608e-02
-1.7455116e-02
-8.7297279e-02
-1.5570814e-01
-2.1972161e-01
-2.7655008e-01
-3.2373840e-01
-3.5928556e-01
-3.8172904e-01
-3.9019328e-01
-3.8440661e-01
-3.6469141e-01
-3.3193112e-01
-2.8751740e-01
-2.3328127e-01
-1.7141156e-01
-1.0436311e-01
-3.4755930e-02
3.4732172e-02
1.0147500e-01
1.6300357e-01
2.1710248e-01
2.6189329e-01
2.9590128e-01
3.1810174e-01
3.2794264e-01
3.2534374e-01
3.1067525e-01
2.8472071e-01
2.4862830e-01
2.0385363e-01
1.5209718e-01
9.5240594e-02
3.5285850e-02
-2.5700061e-02
-8.5635139e-02
-1.4246892e-01
-1.9422763e-01
-2.3905990e-01
-2.7528575e-01
-3.0145213e-01
-3.1639677e-01
-3.1931791e-01
-3.0984385e-01
-2.8809338e-01
-2.5471833e-01
-2.1091995e-01
-1.5843198e-01
-9.9465317e-02
-3.6612946e-02
2.7281097e-02
8.9280702e-02
1.4653340e-01
1.9644920e-01
2.3686635e-01
2.6618747e-01
2.8347190e-01
2.8847654e-01
2.8164437e-01
2.6404543e-01
2.3727810e-01
2.0333999e-01
1.6447820e-01
1.2303015e-01
8.1266526e-02
4.1247989e-02
4.7061457e-03
-2.7042258e-02
-5.3141333e-02
-7.3199565e-02
-8.7253484e-02
-9.5699107e-02
-9.9201865e-02
-9.8596759e-02
-9.4790606e-02
-8.8677734e-02
-8.1078325e-02
-7.2703912e-02
-6.4148267e-02
-5.5896414e-02
-4.8342410e-02
-4.1807950e-02
-3.6556836e-02
-3.2802788e-02
-3.0709727e-02
-3.0385231e-02
-3.1869347e-02
-3.5121381e-02
-4.0006671e-02
-4.6284673e-02
-5.3600127e-02
-6.1479835e-02
-6.9337595e-02
-7.6488734e-02
-8.2174775e-02
-8.5598697e-02
-8.5971321e-02
-8.2568122e-02
-7.4793113e-02
-6.2243823e-02
-4.4770099e-02
-2.2519534e-02
4.0370375e-03
3.4105218e-02
6.6594526e-02
1.0017230e-01
1.3333877e-01
1.6451564e-01
1.9213980e-01
2.1475437e-01
2.3108977e-01
2.4012831e-01
2.4114830e-01
2.3374676e-01
2.1784388e-01
1.9367469e-01
1.6177350e-01
1.2295472e-01
7.8291523e-02
2.9091838e-02
-2.3130894e-02
-7.6695930e-02
-1.2980568e-01
-1.8060862e-01
-2.2727062e-01
-2.6804834e-01
-3.0135893e-01
-3.2584267e-01
-3.4041704e-01
-3.4432132e-01
-3.3715031e-01
-3.1887676e-01
-2.8986277e-01
-2.5086006e-01
-2.0299711e-01
-1.4774971e-01
-8.6891815e-02
-2.2427420e-02
4.3492419e-02
1.0866083e-01
1.7090820e-01
2.2819097e-01
2.7867082e-01
3.2077911e-01
3.5326401e-01
3.7521950e-01
3.8609760e-01
3.8570535e-01
3.7418833e-01
3.5200439e-01
3.1989245e-01
2.7884109e-01
2.3005889e-01
1.7494537e-01
1.1506134e-01
5.2098414e-02
-1.2151998e-02
-7.5831775e-02
-1.3705480e-01
-1.9395448e-01
-2.4474074e-01
-2.8776368e-01
-3.2158040e-01
-3.4502128e-01
-3.5725191e-01
-3.5782579e-01
-3.4672168e-01
-3.2436095e-01
-2.9160360e-01
-2.4972415e-01
-2.0036993e-01
-1.4550354e-01
-8.7330545e-02
-2.8213004e-02
2.9430600e-02
8.3238176e-02
1.3102708e-01
1.7092099e-01
2.0146859e-01
2.2173821e-01
2.3137325e-01
2.3059914e-01
2.2018034e-01
2.0133293e-01
1.7560359e-01
1.4472969e-01
1.1049836e-01
7.4621449e-02
3.8639050e-02
3.8570786e-03
-2.8680889e-02
-5.8190345e-02
-8.4116189e-02
-1.0608483e-01
-1.2384891e-01
-1.3723516e-01
-1.4610306e-01
-1.5031822e-01
-1.4974309e-01
-1.4424671e-01
-1.3373360e-01
-1.1818742e-01
-9.7720904e-02
-7.2621175e-02
-4.3381133e-02
-1.0710720e-02
2.4474419e-02
6.1086038e-02
9.7913545e-02
1.3368317e-01
1.6711632e-01
1.9697960e-01
2.2212437e-01
2.4151762e-01
2.5426785e-01
2.5964898e-01
2.5712485e-01
2.4637740e-01
2.2734076e-01
2.0024000e-01
1.6562880e-01
1.2441734e-01
7.7881452e-02
2.7645316e-02
-2.4368790e-02
-7.6028463e-02
-1.2511678e-01
-1.6948770e-01
-2.0723526e-01
-2.3685506e-01
-2.5737649e-01
-2.6844738e-01
-2.7035811e-01
-2.6399936e-01
-2.5075625e-01
-2.3235095e-01
-2.1065257e-01
-1.8747724e-01
-1.6440156e-01
-1.4261048e-01
-1.2279669e-01
-1.0512288e-01
-8.9251015e-02
-7.4434810e-02
-5.9663820e-02
-4.3842157e-02
-2.5980177e-02
-5.3747978e-03
1.8246388e-02
4.4638566e-02
7.3024266e-02
1.0215188e-01
1.3041989e-01
1.5604926e-01
1.7727984e-01
1.9256465e-01
2.0073767e-01
2.0113675e-01
1.9367085e-01
1.7882874e-01
1.5763250e-01
1.3154378e-01
1.0233392e-01
7.1932201e-02
4.2268791e-02
1.5129078e-02
-7.9667040e-03
-2.5848867e-02
-3.7743556e-02
-4.3277681e-02
-4.2448749e-02
-3.5570213e-02
-2.3205879e-02
-6.1062131e-03
1.4844050e-02
3.8661866e-02
6.4284070e-02
9.0569527e-02
1.1628990e-01
1.4011666e-01
1.6061465e-01
1.7625347e-01
1.8544708e-01
1.8662819e-01
1.7835808e-01
1.5946493e-01
1.2919635e-01
8.7366433e-02
3.4476788e-02
-2.8206317e-02
-9.8632269e-02
-1.7401241e-01
-2.5093542e-01
-3.2554826e-01
-3.9379168e-01
-4.5167356e-01
-4.9555862e-01
-5.2245103e-01
-5.3024423e-01
-5.1791190e-01
-4.8561578e-01
-4.3471265e-01
-3.6765395e-01
-2.8778614e-01
-1.9907296e-01
-1.0577006e-01
-1.2087062e-02
7.8128144e-02
1.6165049e-01
2.3605896e-01
2.9982168e-01
3.5228020e-01
3.9353971e-01
4.2428326e-01
4.4553840e-01
4.5843073e-01
4.6396033e-01
4.6283098e-01
4.5535278e-01
4.4142754e-01
4.2061572e-01
3.9227377e-01
3.5574159e-01
3.1055240e-01
2.5663344e-01
1.9446684e-01
1.2518494e-01
5.0582933e-02
-2.6956206e-02
-1.0461506e-01
-1.7935105e-01
-2.4813219e-01
-3.0816990e-01
-3.5712498e-01
-3.9326870e-01
-4.1558667e-01
-4.2381783e-01
-4.1842765e-01
-4.0052219e-01
-3.7171689e-01
-3.3397805e-01
-2.8945587e-01
-2.4032711e-01
-1.8866356e-01
-1.3633875e-01
-8.4978510e-02
-3.5952874e-02
9.6007755e-03
5.0736943e-02
8.6658295e-02
1.1668223e-01
1.4022833e-01
1.5683267e-01
1.6618765e-01
1.6819915e-01
1.6304757e-01
1.5123943e-01
1.3363802e-01
1.1146457e-01
8.6263656e-02
5.9830289e-02
3.4101839e-02
1.1023244e-02
-7.6020236e-03
-2.0261835e-02
-2.5872949e-02
-2.3892589e-02
-1.4389850e-02
1.9356589e-03
2.3795066e-02
4.9410569e-02
7.6666046e-02
1.0329277e-01
1.2707031e-01
1.4601963e-01
1.5856572e-01
1.6365116e-01
1.6079060e-01
1.5006571e-01
1.3206835e-01
1.0780466e-01
7.8575300e-02
4.5847681e-02
1.1134514e-02
-2.4110091e-02
-5.8570545e-02
-9.1122726e-02
-1.2085902e-01
-1.4708628e-01
-1.6930083e-01
-1.8714886e-01
-2.0038288e-01
-2.0882430e-01
-2.1233833e-01
-2.1082432e-01
-2.0422219e-01
-1.9253379e-01
-1.7585533e-01
-1.5441432e-01
-1.2860288e-01
-9.9000520e-02
-6.6381971e-02
-3.1707242e-02
3.9085102e-03
3.9246258e-02
7.3052907e-02
1.0412198e-01
1.3137421e-01
1.5392735e-01
1.7114744e-01
1.8267713e-01
1.8843913e-01
1.8861552e-01
1.8360658e-01
1.7397588e-01
1.6038906e-01
1.4355273e-01
1.2415888e-01
1.0283975e-01
8.0138113e-02
5.6497029e-02
3.2270442e-02
7.7524162e-03
-1.6780411e-02
-4.1020992e-02
-6.4587519e-02
-8.6991376e-02
-1.0762495e-01
-1.2577385e-01
-1.4065352e-01
-1.5146561e-01
-1.5746673e-01
-1.5804123e-01
-1.5276962e-01
-1.4148486e-01
-1.2431047e-01
-1.0167759e-01
-7.4320673e-02
-4.3253493e-02
-9.7268883e-03
2.4830046e-02
5.8882047e-02
9.0867616e-02
1.1928024e-01
1.4274516e-01
1.6008754e-01
1.7038909e-01
1.7303147e-01
1.6772536e-01
1.5452609e-01
1.3383831e-01
1.0641222e-01
7.3332278e-02
3.5995484e-02
-3.9255197e-03
-4.4539264e-02
-8.3814630e-02
-1.1968198e-01
-1.5015283e-01
-1.7345104e-01
-1.8814509e-01
-1.9326842e-01
-1.8841476e-01
-1.7379733e-01
-1.5026353e-01
-1.1926062e-01
-8.2751151e-02
-4.3081892e-02
-2.8147641e-03
3.5466126e-02
6.9353700e-02
9.6803854e-02
1.1628931e-01
1.2690565e-01
1.2841939e-01
1.2125545e-01
1.0642920e-01
8.5434218e-02
6.0100364e-02
3.2437874e-02
4.4825908e-03
-2.1843923e-02
-4.4848877e-02
-6.3151431e-02
-7.5733187e-02
-8.1957474e-02
-8.1560572e-02
-7.4620183e-02
-6.1509514e-02
-4.2847458e-02
-1.9454144e-02
7.6832898e-03
3.7435158e-02
6.8548692e-02
9.9669740e-02
1.2937451e-01
1.5621718e-01
1.7879451e-01
1.9582235e-01
2.0621398e-01
2.0914869e-01
2.0412078e-01
1.9096292e-01
1.6984217e-01
1.4123194e-01
1.0586806e-01
6.4699174e-02
1.8840705e-02
-3.0462391e-02
-8.1863294e-02
-1.3393324e-01
-1.8517635e-01
-2.3404251e-01
-2.7894224e-01
-3.1826841e-01
-3.5042920e-01
-3.7389541e-01
-3.8726268e-01
-3.8932667e-01
-3.7916781e-01
-3.5623990e-01
-3.2045548e-01
-2.7225826e-01
-2.1267224e-01
-1.4331666e-01
-6.6378163e-02
1.5464804e-02
9.9164090e-02
1.8146124e-01
2.5906808e-01
3.2884967e-01
3.8799310e-01
4.3415142e-01
4.6555532e-01
4.8108790e-01
4.8031881e-01
4.6349699e-01
4.3150521e-01
3.8578335e-01
3.2822999e-01
2.6109234e-01
1.8685404e-01
1.0812931e-01
2.7569577e-02
-5.2214160e-02
-1.2871391e-01
-1.9957516e-01
-2.6263969e-01
-3.1598576e-01
-3.5797035e-01
-3.8727742e-01
-4.0297226e-01
-4.0455729e-01
-3.9202032e-01
-3.6586601e-01
-3.2712388e-01
-2.7732971e-01
-2.1847936e-01
-1.5295576e-01
-8.3432020e-02
-1.2756371e-02
5.6173902e-02
1.2054258e-01
1.7774330e-01
2.2550183e-01
2.6198581e-01
2.8589482e-01
2.9652450e-01
2.9380058e-01
2.7828082e-01
2.5112426e-01
2.1402879e-01
1.6914007e-01
1.1893800e-01
6.6108352e-02
1.3407122e-02
-3.6476584e-02
-8.1054577e-02
-1.1816543e-01
-1.4608614e-01
-1.6362376e-01
-1.7018216e-01
-1.6579978e-01
-1.5115329e-01
-1.2752257e-01
-9.6715436e-02
-6.0955594e-02
-2.2742074e-02
1.5310297e-02
5.0639313e-02
8.0901368e-02
1.0412143e-01
1.1881312e-01
1.2405835e-01
1.1954207e-01
1.0554327e-01
8.2887424e-02
5.2867615e-02
1.7143601e-02
-2.2370491e-02
-6.3619371e-02
-1.0451251e-01
-1.4301786e-01
-1.7724092e-01
-2.0548814e-01
-2.2631498e-01
-2.3856091e-01
-2.4137582e-01
-2.3424233e-01
-2.1699685e-01
-1.8984917e-01
-1.5339826e-01
-1.0864041e-01
-5.6964866e-02
-1.3095647e-04
5.9779648e-02
1.2043931e-01
1.7937911e-01
2.3411673e-01
2.8229852e-01
3.2184280e-01
3.5106824e-01
3.6878994e-01
3.7436986e-01
3.6771698e-01
3.4924285e-01
3.1978555e-01
2.8051818e-01
2.3285654e-01
1.7837776e-01
1.1875765e-01
5.5730003e-02
-8.9344398e-03
-7.3435858e-02
-1.3594967e-01
-1.9463707e-01
-2.4766993e-01
-2.9327558e-01
-3.2980351e-01
-3.5581173e-01
-3.7016579e-01
-3.7213898e-01
-3.6149985e-01
-3.3857376e-01
-3.0426805e-01
-2.6005423e-01
-2.0790489e-01
-1.5018829e-01
-8.9529185e-02
-2.8648479e-02
2.9803280e-02
8.3403957e-02
1.3009586e-01
1.6828827e-01
1.9691836e-01
2.1546723e-01
2.2393391e-01
2.2277535e-01
2.1282379e-01
1.9519450e-01
1.7119558e-01
1.4224939e-01
1.0983014e-01
7.5418181e-02
4.0466869e-02
6.3770674e-03
-2.5526019e-02
-5.4017279e-02
-7.7999756e-02
-9.6537154e-02
-1.0888959e-01
-1.1454930e-01
-1.1327208e-01
-1.0510063e-01
-9.0377252e-02
-6.9744084e-02
-4.4129328e-02
-1.4718903e-02
1.7086070e-02
4.9724416e-02
8.1540595e-02
1.1085828e-01
1.3605844e-01
1.5565796e-01
1.6838476e-01
1.7324596e-01
1.6958591e-01
1.5713166e-01
1.3602269e-01
1.0682172e-01
7.0503402e-02
2.8420303e-02
-1.7751794e-02
-6.6084344e-02
-1.1447683e-01
-1.6074282e-01
-2.0269732e-01
-2.3824282e-01
-2.6545394e-01
-2.8266231e-01
-2.8854325e-01
-2.8220240e-01
-2.6325644e-01
-2.3189865e-01
-1.8894045e-01
-1.3582130e-01
-7.4581237e-02
-7.7914932e-03
6.1558498e-02
1.3021433e-01
1.9484039e-01
2.5222010e-01
2.9945639e-01
3.3415657e-01
3.5458607e-01
3.5977762e-01
3.4958628e-01
3.2468645e-01
2.8651333e-01
2.3715562e-01
1.7920936e-01
1.1560581e-01
4.9427799e-02
-1.6270386e-02
-7.8627695e-02
-1.3511664e-01
-1.8365334e-01
-2.2267261e-01
-2.5116521e-01
-2.6867733e-01
-2.7527714e-01
-2.7149700e-01
-2.5826154e-01
-2.3680988e-01
-2.0861721e-01
-1.7531835e-01
-1.3863430e-01
-1.0030140e-01
-6.2002394e-02
-2.5299790e-02
8.4249013e-03
3.8019781e-02
6.2593404e-02
8.1525970e-02
9.4462976e-02
1.0129569e-01
1.0213347e-01
9.7273476e-02
8.7173654e-02
7.2434431e-02
5.3791678e-02
3.2120497e-02
8.4464814e-03
-1.6040951e-02
-3.9981337e-02
-6.1852921e-02
-8.0010830e-02
-9.2761525e-02
-9.8474120e-02
-9.5720878e-02
-8.3432509e-02
-6.1050177e-02
-2.8654956e-02
1.2943759e-02
6.2176369e-02
1.1674758e-01
1.7373946e-01
2.2977756e-01
2.8124820e-01
3.2455121e-01
3.5636788e-01
3.7392048e-01
3.7519835e-01
3.5912768e-01
3.2566880e-01
2.7583183e-01
2.1160880e-01
1.3582754e-01
5.1941188e-02
-3.6224207e-02
-1.2473538e-01
-2.0980282e-01
-2.8799429e-01
-3.5639563e-01
-4.1271129e-01
-4.5530456e-01
-4.8318460e-01
-4.9595396e-01
-4.9373341e-01
-4.7707994e-01
-4.4690998e-01
-4.0443509e-01
-3.5111359e-01
-2.8861788e-01
-2.1881360e-01
-1.4374312e-01
-6.5603917e-02
1.3286644e-02
9.0545658e-02
1.6379944e-01
2.3077541e-01
2.8940405e-01
3.3792099e-01
3.7495827e-01
3.9961481e-01
4.1149879e-01
4.1073695e-01
3.9794842e-01
3.7418332e-01
3.4083160e-01
2.9951345e-01
2.5196716e-01
1.9994996e-01
1.4516401e-01
8.9214077e-02
3.3597753e-02
-2.0277473e-02
-7.1061837e-02
-1.1743106e-01
-1.5806964e-01
-1.9168174e-01
-2.1703652e-01
-2.3304877e-01
-2.3888829e-01
-2.3410370e-01
-2.1873983e-01
-1.9342631e-01
-1.5941875e-01
-1.1858178e-01
-7.3311536e-02
-2.6402015e-02
1.9135593e-02
6.0286979e-02
9.4263985e-02
1.1872758e-01
1.3198254e-01
1.3312391e-01
1.2211954e-01
9.9818489e-02
6.7883243e-02
2.8652438e-02
-1.5050699e-02
-6.0144468e-02
-1.0352837e-01
-1.4231593e-01
-1.7404101e-01
-1.9681993e-01
-2.0945631e-01
-2.1148244e-01
-2.0313829e-01
-1.8529476e-01
-1.5933217e-01
-1.2698807e-01
-9.0192067e-02
-5.0905592e-02
-1.0982620e-02
2.7938674e-02
6.4509576e-02
9.7710366e-02
1.2685820e-01
1.5158715e-01
1.7180571e-01
1.8763829e-01
1.9935658e-01
2.0730607e-01
2.1183308e-01
2.1321833e-01
2.1162397e-01
2.0705920e-01
1.9936742e-01
1.8823617e-01
1.7323081e-01
1.5385193e-01
1.2961425e-01
1.0014057e-01
6.5261739e-02
2.5112851e-02
-1.9783515e-02
-6.8456551e-02
-1.1945908e-01
-1.7088153e-01
-2.2041457e-01
-2.6546160e-01
-3.0329722e-01
-3.3126303e-01
-3.4698730e-01
-3.4860982e-01
-3.3498774e-01
-3.0585678e-01
-2.6192463e-01
-2.0488121e-01
-1.3731894e-01
-6.2566452e-02
1.5550102e-02
9.2993425e-02
1.6581758e-01
2.3045466e-01
2.8395780e-01
3.2417924e-01
3.4986803e-01
3.6068045e-01
3.5710569e-01
3.4032151e-01
3.1200352e-01
2.7411668e-01
2.2871721e-01
1.7778844e-01
1.2312762e-01
6.6292135e-02
8.6041426e-03
-4.8796717e-02
-1.0486964e-01
-1.5857748e-01
-2.0879922e-01
-2.5426825e-01
-2.9355243e-01
-3.2508707e-01
-3.4726344e-01
-3.5856479e-01
-3.5773333e-01
-3.4394656e-01
-3.1698020e-01
-2.7733451e-01
-2.2630226e-01
-1.6596118e-01
-9.9082789e-02
-2.8960474e-02
4.0828094e-02
1.0669997e-01
1.6535621e-01
2.1404742e-01
2.5078371e-01
2.7446516e-01
2.8492011e-01
2.8285112e-01
2.6969899e-01
2.4744392e-01
2.1837045e-01
1.8482754e-01
1.4901449e-01
1.1281708e-01
7.7707473e-02
4.4711460e-02
1.4437764e-02
-1.2842083e-02
-3.7080574e-02
-5.8329402e-02
-7.6625695e-02
-9.1908299e-02
-1.0397569e-01
-1.1248895e-01
-1.1701639e-01
-1.1711076e-01
-1.1240463e-01
-1.0270571e-01
-8.8073922e-02
-6.8867126e-02
-4.5749280e-02
-1.9661806e-02
8.2361813e-03
3.6649131e-02
6.4235189e-02
8.9692044e-02
1.1182785e-01
1.2961130e-01
1.4219972e-01
1.4894828e-01
1.4940621e-01
1.4330856e-01
1.3057229e-01
1.1130344e-01
8.5817388e-02
5.4668407e-02
1.8680981e-02
-2.1026636e-02
-6.3036207e-02
-1.0564976e-01
-1.4694359e-01
-1.8485913e-01
-2.1732749e-01
-2.4241760e-01
-2.5849263e-01
-2.6435739e-01
-2.5937915e-01
-2.4356593e-01
-2.1759016e-01
-1.8275295e-01
-1.4089271e-01
-9.4249693e-02
-4.5301592e-02
3.4133317e-03
4.9468819e-02
9.0703098e-02
1.2533841e-01
1.5206020e-01
1.7005493e-01
1.7901046e-01
1.7908627e-01
1.7086200e-01
1.5527388e-01
1.3354750e-01
1.0713393e-01
7.7652084e-02
4.6836436e-02
1.6485746e-02
-1.1593000e-02
-3.5650402e-02
-5.4073024e-02
-6.5473546e-02
-6.8787597e-02
-6.3368216e-02
-4.9066909e-02
-2.6291025e-02
3.9704415e-03
4.0158075e-02
8.0193940e-02
1.2157591e-01
1.6151309e-01
1.9709687e-01
2.2549784e-01
2.4417517e-01
2.5108127e-01
2.4484169e-01
2.2488912e-01
1.9153378e-01
1.4595968e-01
9.0145754e-02
2.6719668e-02
-4.1239175e-02
-1.1042478e-01
-1.7753166e-01
-2.3945937e-01
-2.9347627e-01
-3.3733353e-01
-3.6932907e-01
-3.8832793e-01
-3.9374969e-01
-3.8553545e-01
-3.6410619e-01
-3.3032044e-01
-2.8543350e-01
-2.3105598e-01
-1.6910774e-01
-1.0176418e-01
-3.1393097e-02
3.9519152e-02
1.0845258e-01
1.7294784e-01
2.3070492e-01
2.7967882e-01
3.1816533e-01
3.4487151e-01
3.5896746e-01
3.6011657e-01
3.4848214e-01
3.2471087e-01
2.8989642e-01
2.4552849e-01
1.9343163e-01
1.3569568e-01
7.4598523e-02
1.2522195e-02
-4.8135177e-02
-1.0504891e-01
-1.5605649e-01
-1.9924303e-01
-2.3301999e-01
-2.5619270e-01
-2.6801280e-01
-2.6821304e-01
-2.5702337e-01
-2.3516687e-01
-2.0383413e-01
-1.6463510e-01
-1.1952907e-01
-7.0735004e-02
-2.0624508e-02
2.8399341e-02
7.4031387e-02
1.1419223e-01
1.4714246e-01
1.7157267e-01
1.8666238e-01
1.9210442e-01
1.8809369e-01
1.7528188e-01
1.5470378e-01
1.2768564e-01
9.5748196e-02
6.0515020e-02
2.3632885e-02
-1.3292498e-02
-4.8744775e-02
-8.1331097e-02
-1.0980681e-01
-1.3309690e-01
-1.5031932e-01
-1.6081177e-01
-1.6416023e-01
-1.6022529e-01
-1.4916174e-01
-1.3142699e-01
-1.0777415e-01
-7.9226878e-02
-4.7035616e-02
-1.2618096e-02
2.2511017e-02
5.6816062e-02
8.8817520e-02
1.1716594e-01
1.4070733e-01
1.5853438e-01
1.7001993e-01
1.7483212e-01
1.7293245e-01
1.6455885e-01
1.5019562e-01
1.3053377e-01
1.0642689e-01
7.8847604e-02
4.8847805e-02
1.7523804e-02
-1.4013616e-02
-4.4664911e-02
-7.3365021e-02
-9.9107592e-02
-1.2097415e-01
-1.3817012e-01
-1.5006592e-01
-1.5623783e-01
-1.5650275e-01
-1.5094097e-01
-1.3990290e-01
-1.2399648e-01
-1.0405408e-01
-8.1080688e-02
-5.6188349e-02
-3.0523868e-02
-5.1972726e-03
1.8782015e-02
4.0555091e-02
5.9444761e-02
7.4965409e-02
8.6812049e-02
9.4832259e-02
9.8987156e-02
9.9308967e-02
9.5863349e-02
8.8724538e-02
7.7969975e-02
6.3697746e-02
4.6065620e-02
2.5345894e-02
1.9866901e-03
-2.3332335e-02
-4.9663226e-02
-7.5784461e-02
-1.0023576e-01
-1.2139503e-01
-1.3759241e-01
-1.4725036e-01
-1.4903569e-01
-1.4200737e-01
-1.2574386e-01
-1.0043383e-01
-6.6917218e-02
-2.6667599e-02
1.8286870e-02
6.5500402e-02
1.1229329e-01
1.5596387e-01
1.9400427e-01
2.2429377e-01
2.4524705e-01
2.5590200e-01
2.5594163e-01
2.4565348e-01
2.2583852e-01
1.9768767e-01
1.6264690e-01
1.2229002e-01
7.8212672e-02
3.1953921e-02
-1.5053114e-02
-6.1504342e-02
-1.0622619e-01
-1.4816153e-01
-1.8634669e-01
-2.1988602e-01
-2.4793039e-01
-2.6966574e-01
-2.8431775e-01
-2.9117738e-01
-2.8964849e-01
-2.7931315e-01
-2.6000555e-01
-2.3188252e-01
-1.9547868e-01
-1.5173525e-01
-1.0199397e-01
-4.7952565e-02
8.4151348e-03
6.4964657e-02
1.1949939e-01
1.6989045e-01
2.1418877e-01
2.5072173e-01
2.7816758e-01
2.9560270e-01
3.0252048e-01
2.9882444e-01
2.8480156e-01
2.6108228e-01
2.2859380e-01
1.8851322e-01
1.4222575e-01
9.1290862e-02
3.7415323e-02
-1.7571606e-02
-7.1747107e-02
-1.2313397e-01
-1.6975479e-01
-2.0970400e-01
-2.4123723e-01
-2.6287300e-01
-2.7349739e-01
-2.7245997e-01
-2.5964958e-01
-2.3554081e-01
-2.0120410e-01
-1.5827399e-01
-1.0887342e-01
-5.5496016e-02
-8.5474394e-04
5.2290728e-02
1.0131281e-01
1.4388543e-01
1.7812875e-01
2.0271556e-01
2.1692963e-01
2.2067304e-01
2.1442565e-01
1.9916443e-01
1.7625233e-01
1.4730823e-01
1.1407147e-01
7.8274601e-02
4.1535979e-02
5.2795874e-03
-2.9314115e-02
-6.1325168e-02
-9.0079825e-02
-1.1510900e-01
-1.3608739e-01
-1.5276506e-01
-1.6490472e-01
-1.7223721e-01
-1.7444492e-01
-1.7117875e-01
-1.6210990e-01
-1.4701065e-01
-1.2585136e-01
-9.8896041e-02
-6.6777314e-02
-3.0534652e-02
8.3954760e-03
4.8242610e-02
8.7016222e-02
1.2266018e-01
1.5323023e-01
1.7707246e-01
1.9297942e-01
2.0030252e-01
1.9900371e-01
1.8963747e-01
1.7326398e-01
1.5130541e-01
1.2536599e-01
9.7041483e-02
6.7744119e-02
3.8566832e-02
1.0205382e-02
-1.7050880e-02
-4.3259128e-02
-6.8704053e-02
-9.3738331e-02
-1.1860664e-01
-1.4328002e-01
-1.6732754e-01
-1.8984894e-01
-2.0948477e-01
-2.2450928e-01
-2.3299865e-01
-2.3305546e-01
-2.2306167e-01
-2.0192700e-01
-1.6929880e-01
-1.2570304e-01
-7.2594718e-02
-1.2307521e-02
5.2094534e-02
1.1704928e-01
1.7878800e-01
2.3365409e-01
2.7841217e-01
3.1051236e-01
3.2828200e-01
3.3102803e-01
3.1904514e-01
2.9353395e-01
2.5644275e-01
2.1025370e-01
1.5774071e-01
1.0172686e-01
4.4866646e-02
-1.0528458e-02
-6.2608497e-02
-1.1004219e-01
-1.5201342e-01
-1.8816415e-01
-2.1849559e-01
-2.4324254e-01
-2.6273710e-01
-2.7727784e-01
-2.8702120e-01
-2.9191008e-01
-2.9165084e-01
-2.8574280e-01
-2.7355616e-01
-2.5444690e-01
-2.2789190e-01
-1.9362408e-01
-1.5174702e-01
-1.0281170e-01
-4.7845143e-02
1.1671223e-02
7.3868363e-02
1.3659230e-01
1.9753037e-01
2.5434740e-01
3.0481852e-01
3.4694707e-01
3.7905978e-01
3.9987458e-01
4.0853979e-01
4.0464619e-01
3.8821712e-01
3.5968547e-01
3.1986635e-01
2.6993167e-01
2.1138656e-01
1.4604315e-01
7.5985277e-02
3.5190821e-03
-6.8893519e-02
-1.3871867e-01
-2.0344937e-01
-2.6071385e-01
-3.0838628e-01
-3.4469285e-01
-3.6830756e-01
-3.7843226e-01
-3.7485420e-01
-3.5797308e-01
-3.2879085e-01
-2.8886204e-01
-2.4020858e-01
-1.8520670e-01
-1.2645454e-01
-6.6628548e-02
-8.3367168e-03
4.6021882e-02
9.4381741e-02
1.3511101e-01
1.6708019e-01
1.8969413e-01
2.0288470e-01
2.0706507e-01
2.0305146e-01
1.9196187e-01
1.7510270e-01
1.5385385e-01
1.2956185e-01
1.0345015e-01
7.6554223e-02
4.9686859e-02
2.3435617e-02
-1.8091667e-03
-2.5800828e-02
-4.8365756e-02
-6.9327103e-02
-8.8435661e-02
-1.0531995e-01
-1.1946452e-01
-1.3022167e-01
-1.3685774e-01
-1.3863141e-01
-1.3489557e-01
-1.2520792e-01
-1.0943127e-01
-8.7804751e-02
-6.0972335e-02
-2.9962845e-02
3.8761745e-03
3.8981384e-02
7.3698269e-02
1.0640884e-01
1.3564394e-01
1.6016598e-01
1.7901520e-01
1.9151990e-01
1.9727688e-01
1.9611209e-01
1.8803384e-01
1.7319209e-01
1.5185546e-01
1.2441381e-01
9.1406786e-02
5.3570661e-02
1.1889484e-02
-3.2366576e-02
-7.7631054e-02
-1.2206888e-01
-1.6364382e-01
-2.0022084e-01
-2.2969436e-01
-2.5013233e-01
-2.5992457e-01
-2.5792262e-01
-2.4355689e-01
-2.1691766e-01
-1.7879014e-01
-1.3063946e-01
-7.4546580e-02
-1.3100859e-02
5.0741646e-02
1.1382258e-01
1.7295561e-01
2.2509883e-01
2.6751582e-01
2.9791733e-01
3.1457635e-01
3.1640960e-01
3.0302064e-01
2.7470350e-01
2.3241035e-01
1.7769038e-01
1.1260916e-01
3.9658454e-02
-3.8335355e-02
-1.1829965e-01
-1.9700207e-01
-2.7114026e-01
-3.3744113e-01
-3.9277409e-01
-4.3427914e-01
-4.5950688e-01
-4.6656429e-01
-4.5425582e-01
-4.2220659e-01
-3.7095272e-01
-3.0198576e-01
-2.1774151e-01
-1.2152705e-01
-1.7383219e-02
9.0115463e-02
1.9611327e-01
2.9575971e-01
3.8450477e-01
4.5837550e-01
5.1420900e-01
5.4982212e-01
5.6410581e-01
5.5704065e-01
5.2963874e-01
4.8382445e-01
4.2226841e-01
3.4818836e-01
2.6512914e-01
1.7673656e-01
8.6543715e-02
-2.2104708e-03
-8.6714576e-02
-1.6466091e-01
-2.3426363e-01
-2.9422469e-01
-3.4366039e-01
-3.8200762e-01
-4.0893156e-01
-4.2425410e-01
-4.2791491e-01
-4.1996873e-01
-4.0061594e-01
-3.7025832e-01
-3.2956844e-01
-2.7955816e-01
-2.2163049e-01
-1.5759970e-01
-8.9668457e-02
-2.0355639e-02
4.7624964e-02
1.1152652e-01
1.6875440e-01
2.1705146e-01
2.5465941e-01
2.8043712e-01
2.9392418e-01
2.9534505e-01
2.8555456e-01
2.6593140e-01
2.3823253e-01
2.0442792e-01
1.6653664e-01
1.2648301e-01
8.5985112e-02
4.6482406e-02
9.1040400e-03
-2.5325690e-02
-5.6252992e-02
-8.3342713e-02
-1.0642033e-01
-1.2541718e-01
-1.4032591e-01
-1.5117078e-01
-1.5799394e-01
-1.6085394e-01
-1.5982930e-01
-1.5501948e-01
-1.4654101e-01
-1.3452283e-01
-1.1910857e-01
-1.0047175e-01
-7.8844768e-02
-5.4557166e-02
-2.8074754e-02
-2.8758251e-05
2.8775993e-02
5.7381587e-02
8.4727556e-02
1.0972571e-01
1.3134865e-01
1.4871949e-01
1.6119033e-01
1.6839820e-01
1.7028988e-01
1.6711235e-01
1.5937148e-01
1.4776651e-01
1.3310918e-01
1.1623688e-01
9.7928752e-02
7.8834100e-02
5.9421255e-02
3.9952697e-02
2.0488701e-02
9.1899229e-04
-1.8980520e-02
-3.9471676e-02
-6.0767786e-02
-8.2948827e-02
-1.0588985e-01
-1.2921177e-01
-1.5226045e-01
-1.7411708e-01
-1.9364079e-01
-2.0954139e-01
-2.2047699e-01
-2.2516790e-01
-2.2251682e-01
-2.1172443e-01
-1.9238893e-01
-1.6457866e-01
-1.2886801e-01
-8.6331459e-02
-3.8495819e-02
1.2743284e-02
6.5231681e-02
1.1668314e-01
1.6481142e-01
2.0745755e-01
2.4270411e-01
2.6897059e-01
2.8508680e-01
2.9034193e-01
2.8450741e-01
2.6783240e-01
2.4101390e-01
2.0514635e-01
1.6165714e-01
1.1223428e-01
5.8751730e-02
3.1966596e-03
-5.2397597e-02
-1.0601133e-01
-1.5569179e-01
-1.9960298e-01
-2.3607475e-01
-2.6365281e-01
-2.8114975e-01
-2.8769769e-01
-2.8280289e-01
-2.6640020e-01
-2.3890079e-01
-2.0122314e-01
-1.5479721e-01
-1.0153491e-01
-4.3763138e-02
1.5881384e-02
7.4592100e-02
1.2955873e-01
1.7814578e-01
2.1806708e-01
2.4753968e-01
2.6540230e-01
2.7118533e-01
2.6512378e-01
2.4811045e-01
2.2159397e-01
1.8743347e-01
1.4772669e-01
1.0463105e-01
6.0197089e-02
1.6231848e-02
-2.5794445e-02
-6.4791280e-02
-1.0004053e-01
-1.3114518e-01
-1.5794457e-01
-1.8040927e-01
-1.9853153e-01
-2.1222867e-01
-2.2127573e-01
-2.2527935e-01
-2.2369780e-01
-2.1590531e-01
-2.0129300e-01
-1.7939326e-01
-1.5000936e-01
-1.1332889e-01
-7.0001712e-02
-2.1169938e-02
3.1553969e-02
8.6158571e-02
1.4034762e-01
1.9168656e-01
2.3776681e-01
2.7637002e-01
3.0561504e-01
3.2407366e-01
3.3084600e-01
3.2559105e-01
3.0851259e-01
2.8030606e-01
2.4207687e-01
1.9524271e-01
1.4143251e-01
8.2392277e-02
1.9906567e-02
-4.4257943e-02
-1.0838320e-01
-1.7080560e-01
-2.2990278e-01
-2.8407152e-01
-3.3170870e-01
-3.7120729e-01
-4.0097777e-01
-4.1950292e-01
-4.2542860e-01
-4.1768601e-01
-3.9563227e-01
-3.5918952e-01
-3.0895994e-01
-2.4629508e-01
-1.7330212e-01
-9.2776937e-02
-8.0630877e-03
7.7153433e-02
1.5909414e-01
2.3415676e-01
2.9917407e-01
3.5163538e-01
3.8984726e-01
4.1301778e-01
4.2125760e-01
4.1550175e-01
3.9736392e-01
3.6894117e-01
3.3259114e-01
2.9070712e-01
2.4551670e-01
1.9892544e-01
1.5241959e-01
1.0703191e-01
6.3367209e-02
2.1678061e-02
-1.8024137e-02
-5.5841122e-02
-9.1862678e-02
-1.2606214e-01
-1.5822550e-01
-1.8792162e-01
-2.1451575e-01
-2.3722294e-01
-2.5519257e-01
-2.6761068e-01
-2.7380510e-01
-2.7333909e-01
-2.6608125e-01
-2.5224287e-01
-2.3237718e-01
-2.0734074e-01
-1.7822346e-01
-1.4625897e-01
-1.1272820e-01
-7.8867437e-02
-4.5789633e-02
-1.4426383e-02
1.4503278e-02
4.0494585e-02
6.3231258e-02
8.2538621e-02
9.8324955e-02
1.1052229e-01
1.1903872e-01
1.2373359e-01
1.2442311e-01
1.2091800e-01
1.1308819e-01
1.0094495e-01
8.4727833e-02
6.4982330e-02
4.2612918e-02
1.8896817e-02
-4.5523894e-03
-2.5874801e-02
-4.3102893e-02
-5.4336630e-02
-5.7937522e-02
-5.2719832e-02
-3.8114103e-02
-1.4278678e-02
1.7859103e-02
5.6640327e-02
9.9788009e-02
1.4458483e-01
1.8809558e-01
2.2740891e-01
2.5986994e-01
2.8327718e-01
2.9602362e-01
2.9717134e-01
2.8645802e-01
2.6424160e-01
2.3139610e-01
1.8917736e-01
1.3908170e-01
8.2719168e-02
2.1717765e-02
-4.2333487e-02
-1.0790190e-01
-1.7349441e-01
-2.3761712e-01
-2.9872539e-01
-3.5518102e-01
-4.0523222e-01
-4.4702873e-01
-4.7867930e-01
-4.9835244e-01
-5.0441474e-01
-4.9559326e-01
-4.7114199e-01
-4.3098872e-01
-3.7583991e-01
-3.0722546e-01
-2.2747216e-01
-1.3960156e-01
-4.7156318e-02
4.6031160e-02
1.3610323e-01
2.1944375e-01
2.9291529e-01
3.5404121e-01
4.0111700e-01
4.3324608e-01
4.5030461e-01
4.5284807e-01
4.4197766e-01
4.1918721e-01
3.8621035e-01
3.4488524e-01
2.9704992e-01
2.4447601e-01
1.8884092e-01
1.3173103e-01
7.4661994e-02
1.9101231e-02
-3.3519857e-02
-8.1811572e-02
-1.2445275e-01
-1.6023830e-01
-1.8814340e-01
-2.0739699e-01
-2.1755434e-01
-2.1855782e-01
-2.1077553e-01
-1.9500991e-01
-1.7247108e-01
-1.4471348e-01
-1.1353896e-01
-8.0873923e-02
-4.8632036e-02
-1.8576263e-02
7.8047787e-03
2.9392011e-02
4.5491854e-02
5.5847975e-02
6.0610805e-02
6.0272729e-02
5.5580492e-02
4.7437442e-02
3.6807999e-02
2.4635325e-02
1.1780301e-02
-1.0147411e-03
-1.3139112e-02
-2.4109165e-02
-3.3553151e-02
-4.1192900e-02
-4.6829172e-02
-5.0336104e-02
-5.1666528e-02
-5.0864813e-02
-4.8080199e-02
-4.3573306e-02
-3.7710693e-02
-3.0944721e-02
-2.3777925e-02
-1.6713667e-02
-1.0198652e-02
-4.5666896e-03
5.4179432e-06
3.5205914e-03
6.1571340e-03
8.2357100e-03
1.0160044e-02
1.2338236e-02
1.5096244e-02
1.8598316e-02
2.2789300e-02
2.7370829e-02
3.1818406e-02
3.5440285e-02
3.7471986e-02
3.7193436e-02
3.4050963e-02
2.7765629e-02
1.8412699e-02
6.4621631e-03
-7.2252638e-03
-2.1448735e-02
-3.4762673e-02
-4.5610023e-02
-5.2480872e-02
-5.4079925e-02
-4.9484692e-02
-3.8276176e-02
-2.0624818e-02
2.6826422e-03
3.0283071e-02
6.0341414e-02
9.0707952e-02
1.1911058e-01
1.4336200e-01
1.6156098e-01
1.7226596e-01
1.7462119e-01
1.6842006e-01
1.5409959e-01
1.3266989e-01
1.0559022e-01
7.4608247e-02
4.1580848e-02
8.2962088e-03
-2.3683979e-02
-5.3146084e-02
-7.9298855e-02
-1.0179498e-01
-1.2069939e-01
-1.3640888e-01
-1.4953353e-01
-1.6075639e-01
-1.7069030e-01
-1.7974956e-01
-1.8805141e-01
-1.9535946e-01
-2.0107822e-01
-2.0430314e-01
-2.0392267e-01
-1.9876047e-01
-1.8773924e-01
-1.7004455e-01
-1.4526723e-01
-1.1350515e-01
-7.5409869e-02
-3.2171456e-02
1.4556192e-02
6.2778864e-02
1.1031916e-01
1.5499008e-01
1.9476725e-01
2.2794179e-01
2.5323780e-01
2.6988295e-01
2.7762815e-01
2.7671856e-01
2.6782296e-01
2.5193138e-01
2.3023316e-01
2.0399080e-01
1.7442530e-01
1.4262616e-01
1.0949385e-01
7.5717312e-02
4.1785158e-02
8.0264225e-03
-2.5326230e-02
-5.8060433e-02
-8.9906385e-02
-1.2046855e-01
-1.4917688e-01
-1.7526657e-01
-1.9779354e-01
-2.1568907e-01
-2.2785105e-01
-2.3326211e-01
-2.3111989e-01
-2.2096219e-01
-2.0276944e-01
-1.7702871e-01
-1.4474704e-01
-1.0740759e-01
-6.6870839e-02
-2.5230157e-02
1.5362628e-02
5.2882876e-02
8.5609138e-02
1.1226860e-01
1.3213377e-01
1.4505807e-01
1.5144553e-01
1.5215792e-01
1.4837004e-01
1.4139076e-01
1.3247337e-01
1.2264171e-01
1.1255699e-01
1.0244371e-01
9.2084066e-02
8.0880571e-02
6.7977913e-02
5.2427859e-02
3.3374921e-02
1.0237168e-02
-1.7142642e-02
-4.8395280e-02
-8.2584487e-02
-1.1823185e-01
-1.5340477e-01
-1.8585931e-01
-2.1322418e-01
-2.3320860e-01
-2.4381459e-01
-2.4353390e-01
-2.3150997e-01
-2.0764669e-01
-1.7264979e-01
-1.2799416e-01
-7.5819238e-02
-1.8763520e-02
4.0243718e-02
9.8210648e-02
1.5230684e-01
2.0006045e-01
2.3951108e-01
2.6930736e-01
2.8874458e-01
2.9774350e-01
2.9677634e-01
2.8675190e-01
2.6887653e-01
2.4450976e-01
2.1503153e-01
1.8173285e-01
1.4573720e-01
1.0795667e-01
6.9084642e-02
2.9623224e-02
-1.0060689e-02
-4.9660709e-02
-8.8849509e-02
-1.2720285e-01
-1.6414068e-01
-1.9889562e-01
-2.3051625e-01
-2.5790760e-01
-2.7990561e-01
-2.9537668e-01
-3.0333047e-01
-3.0303180e-01
-2.9409659e-01
-2.7655696e-01
-2.5088519e-01
-2.1797343e-01
-1.7907400e-01
-1.3570993e-01
-8.9566772e-02
-4.2377230e-02
4.1892391e-03
4.8620489e-02
8.9630599e-02
1.2619942e-01
1.5758287e-01
1.8329694e-01
2.0308075e-01
2.1684627e-01
2.2462510e-01
2.2652289e-01
2.2268902e-01
2.1330478e-01
1.9859003e-01
1.7882660e-01
1.5439588e-01
1.2582495e-01
9.3832290e-02
5.9362157e-02
2.3597932e-02
-1.2051669e-02
-4.5995954e-02
-7.6534753e-02
-1.0195663e-01
-1.2065600e-01
-1.3125937e-01
-1.3274961e-01
-1.2457697e-01
-1.0674536e-01
-7.9862375e-02
-4.5142921e-02
-4.3613396e-03
4.0246045e-02
8.6118660e-02
1.3053623e-01
1.7079543e-01
2.0438434e-01
2.2914055e-01
2.4337998e-01
2.4598602e-01
2.3645315e-01
2.1488442e-01
1.8194663e-01
1.3879144e-01
8.6954085e-02
2.8244810e-02
-3.5351917e-02
-1.0175936e-01
-1.6886746e-01
-2.3457100e-01
-2.9679349e-01
-3.5350547e-01
-4.0274736e-01
-4.4266584e-01
-4.7156952e-01
-4.8800341e-01
-4.9083568e-01
-4.7934612e-01
-4.5330408e-01
-4.1302403e-01
-3.5938845e-01
-2.9383208e-01
-2.1828766e-01
-1.3509950e-01
-4.6914154e-02
4.3442740e-02
1.3309636e-01
2.1925261e-01
2.9932051e-01
3.7101946e-01
4.3246444e-01
4.8222478e-01
5.1935399e-01
5.4338968e-01
5.5432502e-01
5.5255540e-01
5.3880646e-01
5.1405110e-01
4.7942326e-01
4.3613658e-01
3.8541555e-01
3.2844581e-01
2.6634695e-01
2.0016781e-01
1.3090017e-01
5.9505573e-02
-1.3050566e-02
-8.5762108e-02
-1.5754660e-01
-2.2721461e-01
-2.9344805e-01
-3.5479278e-01
-4.0967138e-01
-4.5642183e-01
-4.9336504e-01
-5.1889974e-01
-5.3161831e-01
-5.3043236e-01
-5.1469389e-01
-4.8429696e-01
-4.3974626e-01
-3.8218209e-01
-3.1335687e-01
-2.3556494e-01
-1.5153263e-01
-6.4279311e-02
2.3038723e-02
1.0728874e-01
1.8551367e-01
2.5506481e-01
3.1370767e-01
3.5969824e-01
3.9183002e-01
4.0945379e-01
4.1247264e-01
4.0131631e-01
3.7689972e-01
3.4057058e-01
2.9404963e-01
2.3936478e-01
1.7877976e-01
1.1471768e-01
4.9680626e-02
-1.3833962e-02
-7.3420347e-02
-1.2685490e-01
-1.7218824e-01
-2.0783480e-01
-2.3265339e-01
-2.4601151e-01
-2.4782607e-01
-2.3857386e-01
-2.1926647e-01
-1.9138724e-01
-1.5679249e-01
-1.1758391e-01
-7.5962419e-02
-3.4076131e-02
6.1242252e-03
4.3008692e-02
7.5357476e-02
1.0240708e-01
1.2384918e-01
1.3978343e-01
1.5062974e-01
1.5700940e-01
1.5960975e-01
1.5905083e-01
1.5577377e-01
1.4996671e-01
1.4153787e-01
1.3013875e-01
1.1523556e-01
9.6221748e-02
7.2558658e-02
4.3925380e-02
1.0356228e-02
-2.7653575e-02
-6.9088491e-02
-1.1240901e-01
-1.5560889e-01
-1.9633290e-01
-2.3204719e-01
-2.6024694e-01
-2.7868081e-01
-2.8556952e-01
-2.7979558e-01
-2.6104192e-01
-2.2985957e-01
-1.8765208e-01
-1.3657471e-01
-7.9359345e-02
-1.9085921e-02
4.1072510e-02
9.8101827e-02
1.4936822e-01
1.9278600e-01
2.2691768e-01
2.5100267e-01
2.6492055e-01
2.6910062e-01
2.6439336e-01
2.5192187e-01
2.3293320e-01
2.0866813e-01
1.8026333e-01
1.4869330e-01
1.1475351e-01
7.9080970e-02
4.2204651e-02
4.6144584e-03
-3.3164892e-02
-7.0507994e-02
-1.0664076e-01
-1.4061696e-01
-1.7132413e-01
-1.9752330e-01
-2.1792377e-01
-2.3128869e-01
-2.3655971e-01
-2.3298449e-01
-2.2023021e-01
-1.9846846e-01
-1.6841988e-01
-1.3135034e-01
-8.9015464e-02
-4.3556031e-02
2.6475473e-03
4.7148672e-02
8.7620112e-02
1.2203367e-01
1.4881537e-01
1.6695926e-01
1.7608754e-01
1.7645094e-01
1.6887036e-01
1.5462687e-01
1.3531308e-01
1.1266326e-01
8.8382116e-02
6.3990465e-02
4.0703138e-02
1.9349629e-02
3.4418929e-04
-1.6293031e-02
-3.0868418e-02
-4.3911866e-02
-5.6053600e-02
-6.7897123e-02
-7.9902902e-02
-9.2294550e-02
-1.0499618e-01
-1.1760627e-01
-1.2940942e-01
-1.3942376e-01
-1.4647908e-01
-1.4931990e-01
-1.4672651e-01
-1.3764496e-01
-1.2131464e-01
-9.7381034e-02
-6.5981461e-02
-2.7793622e-02
1.5960556e-02
6.3559449e-02
1.1287354e-01
1.6149746e-01
2.0690949e-01
2.4664272e-01
2.7845205e-01
3.0046314e-01
3.1129101e-01
3.1011794e-01
2.9672473e-01
2.7147632e-01
2.3527030e-01
1.8946022e-01
1.3576533e-01
7.6175647e-02
1.2858344e-02
-5.1931195e-02
-1.1593217e-01
-1.7695389e-01
-2.3294220e-01
-2.8203487e-01
-3.2260543e-01
-3.5329850e-01
-3.7306132e-01
-3.8117540e-01
-3.7728834e-01
-3.6144214e-01
-3.3409343e-01
-2.9612082e-01
-2.4881579e-01
-1.9385287e-01
-1.3323523e-01
-6.9214016e-02
-4.1838859e-03
5.9438756e-02
1.1934572e-01
1.7346505e-01
2.2007537e-01
2.5789400e-01
2.8612790e-01
3.0448258e-01
3.1313088e-01
3.1264836e-01
3.0392329e-01
2.8805016e-01
2.6621730e-01
2.3960118e-01
2.0927995e-01
1.7617593e-01
1.4103171e-01
1.0442027e-01
6.6785816e-02
2.8508040e-02
-1.0021460e-02
-4.8324516e-02
-8.5776758e-02
-1.2157268e-01
-1.5472114e-01
-1.8407412e-01
-2.0838917e-01
-2.2642180e-01
-2.3703928e-01
-2.3934263e-01
-2.3278218e-01
-2.1725225e-01
-1.9315292e-01
-1.6140892e-01
-1.2343947e-01
-8.1078697e-02
-3.6453362e-02
8.1690185e-03
5.0545262e-02
8.8618332e-02
1.2066066e-01
1.4538563e-01
1.6201682e-01
1.7030921e-01
1.7052249e-01
1.6335113e-01
1.4981933e-01
1.3115187e-01
1.0863476e-01
8.3482358e-02
5.6727482e-02
2.9148146e-02
1.2394593e-03
-2.6766496e-02
-5.4835492e-02
-8.3029133e-02
-1.1138009e-01
-1.3976280e-01
-1.6777904e-01
-1.9467580e-01
-2.1930962e-01
-2.4016729e-01
-2.5544777e-01
-2.6320241e-01
-2.6152112e-01
-2.4874466e-01
-2.2367872e-01
-1.8578514e-01
-1.3532704e-01
-7.3448014e-02
-2.1714017e-03
7.5685290e-02
1.5667515e-01
2.3695086e-01
3.1253640e-01
3.7961611e-01
4.3481294e-01
4.7542786e-01
4.9961594e-01
5.0648243e-01
4.9609208e-01
4.6939471e-01
4.2807768e-01
3.7436285e-01
3.1077207e-01
2.3989017e-01
1.6415654e-01
8.5711997e-02
6.3186137e-03
-7.2641764e-02
-1.5009686e-01
-2.2515843e-01
-2.9696766e-01
-3.6454198e-01
-4.2665346e-01
-4.8176359e-01
-5.2802982e-01
-5.6338880e-01
-5.8570945e-01
-5.9299783e-01
-5.8362731e-01
-5.5656359e-01
-5.1155533e-01
-4.4926624e-01
-3.7133003e-01
-2.8031741e-01
-1.7961400e-01
-7.3219100e-02
3.4514860e-02
1.3917531e-01
2.3658502e-01
3.2306951e-01
3.9566952e-01
4.5227943e-01
4.9170438e-01
5.1364002e-01
5.1858815e-01
5.0772548e-01
4.8274409e-01
4.4568113e-01
3.9875493e-01
3.4422187e-01
2.8426421e-01
2.2091340e-01
1.5600904e-01
9.1190766e-02
2.7917879e-02
-3.2492127e-02
-8.8818282e-02
-1.3989752e-01
-1.8460421e-01
-2.2185551e-01
-2.5064578e-01
-2.7010859e-01
-2.7959920e-01
-2.7878424e-01
-2.6772225e-01
-2.4691925e-01
-2.1734850e-01
-1.8042929e-01
-1.3796422e-01
-9.2039065e-02
-4.4894332e-02
1.2178588e-03
4.4175681e-02
8.2114063e-02
1.1352507e-01
1.3732513e-01
1.5288508e-01
1.6002267e-01
1.5896188e-01
1.5026760e-01
1.3476688e-01
1.1346715e-01
8.7480143e-02
5.7957750e-02
2.6043296e-02
-7.1607787e-03
-4.0611295e-02
-7.3332802e-02
-1.0441965e-01
-1.3303314e-01
-1.5839418e-01
-1.7977358e-01
-1.9648427e-01
-2.0788079e-01
-2.1336977e-01
-2.1243227e-01
-2.0465734e-01
-1.8978502e-01
-1.6775520e-01
-1.3875608e-01
-1.0326393e-01
-6.2065808e-02
-1.6259896e-02
3.2768682e-02
8.3396006e-02
1.3382855e-01
1.8218757e-01
2.2659977e-01
2.6528481e-01
2.9663242e-01
3.1926697e-01
3.3209997e-01
3.3437179e-01
3.2568271e-01
3.0601311e-01
2.7573241e-01
2.3559621e-01
1.8673106e-01
1.3060609e-01
6.8992008e-02
3.9088267e-03
-6.2435307e-02
-1.2771196e-01
-1.8954541e-01
-2.4559013e-01
-2.9361236e-01
-3.3157642e-01
-3.5773573e-01
-3.7072824e-01
-3.6967285e-01
-3.5425943e-01
-3.2482141e-01
-2.8237788e-01
-2.2863274e-01
-1.6592107e-01
-9.7097699e-02
-2.5371013e-02
4.5905083e-02
1.1345942e-01
1.7432547e-01
2.2603141e-01
2.6673820e-01
2.9531285e-01
3.1133256e-01
3.1502392e-01
3.0715072e-01
2.8887061e-01
2.6158307e-01
2.2678928e-01
1.8597925e-01
1.4055598e-01
9.1801029e-02
4.0880048e-02
-1.1118566e-02
-6.3123200e-02
-1.1401084e-01
-1.6254670e-01
-2.0734699e-01
-2.4687793e-01
-2.7949863e-01
-3.0354863e-01
-3.1747264e-01
-3.1996900e-01
-3.1014355e-01
-2.8764820e-01
-2.5278346e-01
-2.0654742e-01
-1.5062077e-01
-8.7286336e-02
-1.9291273e-02
5.0333154e-02
1.1847453e-01
1.8214316e-01
2.3865485e-01
2.8577400e-01
3.2180527e-01
3.4563057e-01
3.5669637e-01
3.5496140e-01
3.4081929e-01
3.1501201e-01
2.7854994e-01
2.3265066e-01
1.7870224e-01
1.1824961e-01
5.2995840e-02
-1.5192944e-02
-8.4290970e-02
-1.5213375e-01
-2.1646167e-01
-2.7498634e-01
-3.2547564e-01
-3.6585117e-01
-3.9429134e-01
-4.0933330e-01
-4.0996646e-01
-3.9570960e-01
-3.6666428e-01
-3.2353897e-01
-2.6764122e-01
-2.0083610e-01
-1.2547034e-01
-4.4263800e-02
3.9825174e-02
1.2374914e-01
2.0452133e-01
2.7935272e-01
3.4576615e-01
4.0168028e-01
4.4545860e-01
4.7592170e-01
4.9232635e-01
4.9432057e-01
4.8188722e-01
4.5528938e-01
4.1502915e-01
3.6182859e-01
2.9663682e-01
2.2066132e-01
1.3541458e-01
4.2763656e-02
-5.5030849e-02
-1.5529727e-01
-2.5496615e-01
-3.5062301e-01
-4.3860855e-01
-5.1517061e-01
-5.7666497e-01
-6.1979293e-01
-6.4185616e-01
-6.4100405e-01
-6.1644607e-01
-5.6860171e-01
-4.9916438e-01
-4.1106305e-01
-3.0831618e-01
-1.9578420e-01
-7.8839144e-02
3.7018353e-02
1.4655458e-01
2.4516631e-01
3.2917222e-01
3.9600417e-01
4.4428570e-01
4.7380021e-01
4.8536249e-01
4.8061579e-01
4.6178274e-01
4.3140127e-01
3.9207560e-01
3.4626737e-01
2.9614481e-01
2.4350094e-01
1.8974342e-01
1.3594939e-01
8.2967591e-02
3.1542137e-02
-1.7569907e-02
-6.3511483e-02
-1.0528578e-01
-1.4177210e-01
-1.7179688e-01
-1.9424965e-01
-2.0822535e-01
-2.1316784e-01
-2.0898901e-01
-1.9614167e-01
-1.7563224e-01
-1.4896927e-01
-1.1805353e-01
-8.5025014e-02
-5.2087662e-02
-2.1334811e-02
5.4042372e-03
2.6681623e-02
4.1504173e-02
4.9360660e-02
5.0206949e-02
4.4417236e-02
3.2711698e-02
1.6070634e-02
-4.3557148e-03
-2.7332639e-02
-5.1612761e-02
-7.5986803e-02
-9.9310271e-02
-1.2050890e-01
-1.3857093e-01
-1.5253718e-01
-1.6149978e-01
-1.6461828e-01
-1.6115769e-01
-1.5054776e-01
-1.3245705e-01
-1.0687055e-01
-7.4158332e-02
-3.5123096e-02
8.9829488e-03
5.6478748e-02
1.0531613e-01
1.5318171e-01
1.9763287e-01
2.3625745e-01
2.6684337e-01
2.8754335e-01
2.9701887e-01
2.9454802e-01
2.8008411e-01
2.5425750e-01
2.1832046e-01
1.7404199e-01
1.2356474e-01
6.9240165e-02
1.3460394e-02
-4.1493928e-02
-9.3573713e-02
-1.4103977e-01
-1.8249748e-01
-2.1689262e-01
-2.4347795e-01
-2.6176369e-01
-2.7146609e-01
-2.7246627e-01
-2.6478613e-01
-2.4858203e-01
-2.2415200e-01
-1.9195110e-01
-1.5260991e-01
-1.0695167e-01
-5.6004666e-02
-1.0069142e-03
5.6597761e-02
1.1517238e-01
1.7290843e-01
2.2785794e-01
2.7797822e-01
3.2119043e-01
3.5545137e-01
3.7883571e-01
3.8962572e-01
3.8640565e-01
3.6815780e-01
3.3435708e-01
2.8505894e-01
2.2097488e-01
1.4352850e-01
5.4883891e-02
-4.2063654e-02
-1.4374357e-01
-2.4601785e-01
-3.4434038e-01
-4.3396376e-01
-5.1018728e-01
-5.6863670e-01
-6.0556082e-01
-6.1812308e-01
-6.0466163e-01
-5.6488965e-01
-5.0000937e-01
-4.1271726e-01
-3.0708607e-01
-1.8832196e-01
-6.2411678e-02
6.4309034e-02
1.8562163e-01
2.9587623e-01
3.9038069e-01
4.6568797e-01
5.1975581e-01
5.5196870e-01
5.6302824e-01
5.5473177e-01
5.2967018e-01
4.9088213e-01
4.4150510e-01
3.8446291e-01
3.2222419e-01
2.5665690e-01
1.8899127e-01
1.1988888e-01
4.9602892e-02
-2.1797028e-02
-9.4169931e-02
-1.6705863e-01
-2.3949343e-01
-3.0987622e-01
-3.7596503e-01
-4.3496560e-01
-4.8372215e-01
-5.1898595e-01
-5.3772952e-01
-5.3746909e-01
-5.1655863e-01
-4.7442391e-01
-4.1171222e-01
-3.3034213e-01
-2.3344684e-01
-1.2521547e-01
-1.0645805e-02
1.0477030e-01
2.1540348e-01
3.1585810e-01
4.0133094e-01
4.6793085e-01
5.1293578e-01
5.3496782e-01
5.3407429e-01
5.1171009e-01
4.7062384e-01
4.1465640e-01
3.4846635e-01
2.7720267e-01
