-1.8558555e-01
3.5322911e-01
7.5672816e-01
9.1856539e-01
7.6052781e-01
2.5099965e-01
-5.7765695e-01
-1.6204399e+00
-2.7074886e+00
-3.6319830e+00
-4.1945301e+00
-4.2526380e+00
-3.7594613e+00
-2.7779460e+00
-1.4648775e+00
-3.0538323e-02
1.3117863e+00
2.3903297e+00
3.1020250e+00
3.4189262e+00
3.3773923e+00
3.0571125e+00
2.5572483e+00
1.9752219e+00
1.3914259e+00
8.6114393e-01
4.1334826e-01
5.4742740e-02
-2.2335843e-01
-4.3768375e-01
-6.0679067e-01
-7.4658725e-01
-8.6749225e-01
-9.7296813e-01
-1.0593715e+00
-1.1172691e+00
-1.1342552e+00
-1.0988770e+00
-1.0047804e+00
-8.5393682e-01
-6.5792330e-01
-4.3665400e-01
-2.1458617e-01
-1.5209001e-02
1.4458128e-01
2.5825246e-01
3.3007568e-01
3.7203276e-01
3.9844712e-01
4.2048000e-01
4.4252136e-01
4.6152187e-01
4.6904659e-01
4.5494586e-01
4.1133955e-01
3.3590526e-01
2.3382365e-01
1.1792584e-01
6.7179741e-03
-7.9690236e-02
-1.2503942e-01
-1.2224356e-01
-7.6609535e-02
-5.3041624e-03
6.7318253e-02
1.1710946e-01
1.2744115e-01
9.3617772e-02
2.2970580e-02
-6.8875667e-02
-1.6372166e-01
-2.4630933e-01
-3.0794175e-01
-3.4744561e-01
-3.6965457e-01
-3.8223287e-01
-3.9190918e-01
-4.0114092e-01
-4.0602594e-01
-3.9602054e-01
-3.5570573e-01
-2.6841560e-01
-1.2104816e-01
9.0998750e-02
3.5994042e-01
6.6383346e-01
9.6773510e-01
1.2281468e+00
1.4002989e+00
1.4468453e+00
1.3458295e+00
1.0957992e+00
7.1672948e-01
2.4663356e-01
-2.6506067e-01
-7.6553824e-01
-1.2061717e+00
-1.5483595e+00
-1.7670938e+00
-1.8522762e+00
-1.8080908e+00
-1.6508668e+00
-1.4058685e+00
-1.1033613e+00
-7.7417228e-01
-4.4496792e-01
-1.3374323e-01
1.5352021e-01
4.2372957e-01
6.9397694e-01
9.8502699e-01
1.3121367e+00
1.6756533e+00
2.0544573e+00
2.4048611e+00
2.6661028e+00
2.7715957e+00
2.6633969e+00
2.3065190e+00
1.6998014e+00
8.8069168e-01
-7.7743821e-02
-1.0777586e+00
-2.0138773e+00
-2.7917691e+00
-3.3438582e+00
-3.6373121e+00
-3.6727289e+00
-3.4752609e+00
-3.0824803e+00
-2.5339036e+00
-1.8656452e+00
-1.1109930e+00
-3.0500377e-01
5.1044076e-01
1.2847180e+00
1.9617548e+00
2.4881404e+00
2.8233807e+00
2.9484734e+00
2.8695062e+00
2.6149499e+00
2.2278411e+00
1.7559169e+00
1.2431344e+00
7.2486516e-01
2.2717885e-01
-2.3100112e-01
-6.3484405e-01
-9.7144003e-01
-1.2294279e+00
-1.4002479e+00
-1.4800100e+00
-1.4708044e+00
-1.3808189e+00
-1.2234157e+00
-1.0157826e+00
-7.7764960e-01
-5.3006822e-01
-2.9388873e-01
-8.7680290e-02
7.4684622e-02
1.8612086e-01
2.4734015e-01
2.6631006e-01
2.5620420e-01
2.3239666e-01
2.0935978e-01
1.9829355e-01
2.0594200e-01
2.3450937e-01
2.8217391e-01
3.4363785e-01
4.1044396e-01
4.7124770e-01
5.1260875e-01
5.2089383e-01
4.8538869e-01
4.0186377e-01
2.7516450e-01
1.1943950e-01
-4.4539103e-02
-1.9427765e-01
-3.1100972e-01
-3.8379427e-01
-4.1101996e-01
-3.9920316e-01
-3.5994695e-01
-3.0634126e-01
-2.4991433e-01
-1.9875757e-01
-1.5693765e-01
-1.2495565e-01
-1.0083571e-01
-8.1395582e-02
-6.3356395e-02
-4.4127308e-02
-2.2218043e-02
2.7588971e-03
3.0508596e-02
6.0737706e-02
9.3691465e-02
1.3005056e-01
1.6998641e-01
2.1173714e-01
2.5051989e-01
2.7862063e-01
2.8706327e-01
2.6852299e-01
2.2041090e-01
1.4672084e-01
5.7592706e-02
-3.3475143e-02
-1.1372298e-01
-1.7484523e-01
-2.1478940e-01
-2.3698705e-01
-2.4751835e-01
-2.5154980e-01
-2.5055612e-01
-2.4140743e-01
-2.1766198e-01
-1.7259878e-01
-1.0284888e-01
-1.1189159e-02
9.2651765e-02
1.9353823e-01
2.7428989e-01
3.1978729e-01
3.2072061e-01
2.7612668e-01
1.9409204e-01
9.0287204e-02
-1.5445343e-02
-1.0352801e-01
-1.5881995e-01
-1.7347525e-01
-1.4805947e-01
-9.1042215e-02
-1.7003302e-02
5.6143103e-02
1.1063860e-01
1.3266896e-01
1.1573881e-01
6.2703404e-02
-1.4382630e-02
-9.6954810e-02
-1.6472507e-01
-2.0128115e-01
-1.9871680e-01
-1.5968146e-01
-9.6107749e-02
-2.5104845e-02
3.6449011e-02
7.6681111e-02
9.1316492e-02
8.3480637e-02
6.1178511e-02
3.3700085e-02
8.4256975e-03
-1.0872124e-02
-2.3895820e-02
-3.2307009e-02
-3.7736362e-02
-4.0216271e-02
-3.7580425e-02
-2.5958643e-02
-1.1751521e-03
3.9385721e-02
9.5059374e-02
1.6095148e-01
2.2815269e-01
2.8511066e-01
3.1978795e-01
3.2206393e-01
2.8584637e-01
2.1044699e-01
1.0092201e-01
-3.2683057e-02
-1.7696370e-01
-3.1723388e-01
-4.3956974e-01
-5.3243512e-01
-5.8767857e-01
-6.0084560e-01
-5.7084736e-01
-4.9914282e-01
-3.8878862e-01
-2.4387951e-01
-6.9817511e-02
1.2556304e-01
3.3049990e-01
5.2821768e-01
6.9703471e-01
8.1229926e-01
8.5052236e-01
7.9543872e-01
6.4461634e-01
4.1410395e-01
1.3833944e-01
-1.3617166e-01
-3.6225417e-01
-5.0470263e-01
-5.4937273e-01
-5.0545353e-01
-4.0061939e-01
-2.7139533e-01
-1.5230052e-01
-6.7143333e-02
-2.4677903e-02
-1.9213713e-02
-3.5232654e-02
-5.4073096e-02
-6.0469017e-02
-4.7067128e-02
-1.5781216e-02
2.4165144e-02
6.0587182e-02
8.3346118e-02
8.8093343e-02
7.7390622e-02
5.8933276e-02
4.1778506e-02
3.2282281e-02
3.1550668e-02
3.5534793e-02
3.7672375e-02
3.2737043e-02
1.9948466e-02
3.7899908e-03
-7.8381255e-03
-7.2041697e-03
9.6031770e-03
4.0543962e-02
7.7850570e-02
1.1042966e-01
1.2743060e-01
1.2160518e-01
9.1295999e-02
4.0553205e-02
-2.2348737e-02
-8.7215791e-02
-1.4420703e-01
-1.8547964e-01
-2.0600167e-01
-2.0367809e-01
-1.7911308e-01
-1.3528252e-01
-7.7198608e-02
-1.1489352e-02
5.4209268e-02
1.1208087e-01
1.5512505e-01
1.7819942e-01
1.7891497e-01
1.5815325e-01
1.2001832e-01
7.1168915e-02
1.9630406e-02
-2.6697606e-02
-6.1545746e-02
-8.1447804e-02
-8.6260347e-02
-7.8866032e-02
-6.4163541e-02
-4.7672012e-02
-3.4134080e-02
-2.6420372e-02
-2.4949579e-02
-2.7782994e-02
-3.1437244e-02
-3.2224855e-02
-2.7682696e-02
-1.7548285e-02
-3.8605216e-03
9.9371499e-03
2.0591341e-02
2.6635815e-02
2.9188528e-02
3.1494608e-02
3.7399479e-02
4.9471044e-02
6.7627607e-02
8.8837686e-02
1.0793113e-01
1.1909375e-01
1.1742796e-01
1.0006936e-01
6.6634263e-02
1.9088485e-02
-3.8663312e-02
-1.0115165e-01
-1.6153937e-01
-2.1179538e-01
-2.4324837e-01
-2.4790362e-01
-2.2051429e-01
-1.6082753e-01
-7.5047908e-02
2.4360382e-02
1.2087507e-01
1.9767432e-01
2.4179220e-01
2.4724205e-01
2.1606150e-01
1.5709116e-01
8.3157439e-02
7.7802899e-03
-5.7545801e-02
-1.0491517e-01
-1.3042088e-01
-1.3380027e-01
-1.1773008e-01
-8.6982147e-02
-4.7496459e-02
-5.4415503e-03
3.3604328e-02
6.5231400e-02
8.6491722e-02
9.5931586e-02
9.3431931e-02
7.9952359e-02
5.7269411e-02
2.7758269e-02
-5.7912094e-03
-4.0366085e-02
-7.2942349e-02
-1.0067002e-01
-1.2097837e-01
-1.3162290e-01
-1.3076960e-01
-1.1719368e-01
-9.0562212e-02
-5.1685910e-02
-2.6635612e-03
5.3036639e-02
1.1047619e-01
1.6318962e-01
2.0345723e-01
2.2323941e-01
2.1584536e-01
1.7798015e-01
1.1149033e-01
2.4083151e-02
-7.1475475e-02
-1.5973602e-01
-2.2598781e-01
-2.5969751e-01
-2.5680616e-01
-2.2013298e-01
-1.5789704e-01
-8.1100259e-02
-8.6075876e-04
7.3405451e-02
1.3464350e-01
1.7797461e-01
2.0030351e-01
2.0025314e-01
1.7855338e-01
1.3854630e-01
8.6230798e-02
2.9432529e-02
-2.3832233e-02
-6.7238414e-02
-9.7521008e-02
-1.1476165e-01
-1.2147816e-01
-1.2089713e-01
-1.1512479e-01
-1.0400521e-01
-8.5243561e-02
-5.5898357e-02
-1.4724364e-02
3.5677437e-02
8.8078294e-02
1.3193034e-01
1.5652860e-01
1.5477516e-01
1.2586077e-01
7.5658977e-02
1.4726958e-02
-4.5133095e-02
-9.4289389e-02
-1.2738985e-01
-1.4357107e-01
-1.4501289e-01
-1.3471425e-01
-1.1457414e-01
-8.4627123e-02
-4.3741077e-02
8.5384467e-03
6.9801063e-02
1.3327368e-01
1.8793763e-01
2.2069961e-01
2.2025512e-01
1.8144331e-01
1.0841924e-01
1.5148064e-02
-7.7468635e-02
-1.4733743e-01
-1.7805338e-01
-1.6436540e-01
-1.1388741e-01
-4.4189996e-02
2.3493472e-02
7.1226768e-02
8.9277773e-02
7.7562633e-02
4.3855760e-02
5.6047328e-05
-4.1952561e-02
-7.3578794e-02
-9.1136638e-02
-9.5544610e-02
-9.0487854e-02
-7.9956134e-02
-6.6259485e-02
-4.9323351e-02
-2.7415344e-02
1.1907351e-03
3.6430259e-02
7.5293387e-02
1.1177256e-01
1.3805636e-01
1.4674699e-01
1.3345934e-01
9.8845118e-02
4.9134920e-02
-5.1968871e-03
-5.2278700e-02
-8.2214896e-02
-8.9826241e-02
-7.5899864e-02
-4.6658254e-02
-1.1717141e-02
1.8801979e-02
3.7147791e-02
3.9982233e-02
2.9037006e-02
1.0243642e-02
-8.3925330e-03
-1.9591186e-02
-1.9479701e-02
-9.2983090e-03
4.5785870e-03
1.2552805e-02
5.2142611e-03
-2.2810010e-02
-6.9918934e-02
-1.2664584e-01
-1.7732031e-01
-2.0400963e-01
-1.9176948e-01
-1.3375567e-01
-3.4586766e-02
8.9378892e-02
2.1340893e-01
3.1080148e-01
3.6050027e-01
3.5329197e-01
2.9413384e-01
1.9956386e-01
9.1283090e-02
-1.1261127e-02
-9.6125329e-02
-1.6003317e-01
-2.0563643e-01
-2.3686775e-01
-2.5499613e-01
-2.5727386e-01
-2.3856540e-01
-1.9489241e-01
-1.2703075e-01
-4.2364034e-02
4.5990394e-02
1.2253756e-01
1.7385371e-01
1.9228736e-01
1.7758928e-01
1.3623696e-01
7.9143368e-02
1.8772083e-02
-3.3494039e-02
-6.9251564e-02
-8.4087891e-02
-7.7760520e-02
-5.3709978e-02
-1.8099283e-02
2.1460541e-02
5.7355374e-02
8.3366896e-02
9.5710211e-02
9.3433716e-02
7.8134105e-02
5.3210953e-02
2.3013492e-02
-7.8385889e-03
-3.4890233e-02
-5.4206095e-02
-6.2890663e-02
-5.9823499e-02
-4.6311322e-02
-2.6184248e-02
-5.0577658e-03
1.1098800e-02
1.7596208e-02
1.2265905e-02
-4.1206141e-03
-2.8311517e-02
-5.5577560e-02
-8.0747098e-02
-9.8923094e-02
-1.0587805e-01
-9.8354562e-02
-7.4467367e-02
-3.4227720e-02
1.9904723e-02
8.2557635e-02
1.4524723e-01
1.9680370e-01
2.2488555e-01
2.1875637e-01
1.7277328e-01
8.9326717e-02
-2.0142000e-02
-1.3677246e-01
-2.3827945e-01
-3.0419395e-01
-3.2086600e-01
-2.8480461e-01
-2.0335682e-01
-9.2501616e-02
2.7523954e-02
1.3732975e-01
2.2261175e-01
2.7635643e-01
2.9862017e-01
2.9432265e-01
2.7011725e-01
2.3162407e-01
1.8204004e-01
1.2246289e-01
5.3470987e-02
-2.3027274e-02
-1.0266001e-01
-1.7867980e-01
-2.4314046e-01
-2.8857933e-01
-3.0952615e-01
-3.0338232e-01
-2.7059563e-01
-2.1438480e-01
-1.4036722e-01
-5.6274035e-02
2.8357354e-02
1.0282923e-01
1.5656727e-01
1.8108507e-01
1.7225965e-01
1.3218352e-01
6.9785420e-02
-2.7418746e-04
-6.0382828e-02
-9.3869550e-02
-8.9127406e-02
-4.2960957e-02
3.7766558e-02
1.3681203e-01
2.3167334e-01
2.9864355e-01
3.1870054e-01
2.8273309e-01
1.9453599e-01
7.0410045e-02
-6.4849410e-02
-1.8449610e-01
-2.6676768e-01
-2.9990841e-01
-2.8386229e-01
-2.2860988e-01
-1.5026256e-01
-6.6495793e-02
7.3010021e-03
6.0393099e-02
8.7502257e-02
8.8426589e-02
6.7008263e-02
2.9859688e-02
-1.4937537e-02
-5.9046648e-02
-9.4880143e-02
-1.1628810e-01
-1.1895168e-01
-1.0065935e-01
-6.1666362e-02
-5.1637279e-03
6.2391467e-02
1.3150970e-01
1.9081469e-01
2.2910939e-01
2.3792440e-01
2.1379795e-01
1.5952846e-01
8.3921760e-02
-1.9805488e-05
-7.8068058e-02
-1.3809888e-01
-1.7277327e-01
-1.8071550e-01
-1.6586172e-01
-1.3533727e-01
-9.6757726e-02
-5.6014591e-02
-1.6339141e-02
2.1162251e-02
5.5997643e-02
8.6740742e-02
1.1031401e-01
1.2244575e-01
1.1902114e-01
9.7711713e-02
5.9299153e-02
8.3079479e-03
-4.7268935e-02
-9.7225347e-02
-1.3121720e-01
-1.4117502e-01
-1.2337399e-01
-7.9591593e-02
-1.7117029e-02
5.2326885e-02
1.1457079e-01
1.5566527e-01
1.6483403e-01
1.3707753e-01
7.4715694e-02
-1.2579641e-02
-1.0925866e-01
-1.9652852e-01
-2.5569988e-01
-2.7180544e-01
-2.3700016e-01
-1.5310617e-01
-3.2546121e-02
1.0300040e-01
2.2647019e-01
3.1136780e-01
3.3850244e-01
3.0152187e-01
2.0914626e-01
8.2909764e-02
-4.8996164e-02
-1.5947772e-01
-2.2906155e-01
-2.4923354e-01
-2.2220180e-01
-1.5800810e-01
-7.0507786e-02
2.6324367e-02
1.2073232e-01
2.0373740e-01
2.6820007e-01
3.0730189e-01
3.1364385e-01
2.7989182e-01
2.0116203e-01
7.8445486e-02
-7.8307203e-02
-2.4904176e-01
-4.0565686e-01
-5.1757847e-01
-5.5975864e-01
-5.2059901e-01
-4.0664686e-01
-2.4167472e-01
-5.9964751e-02
1.0371711e-01
2.2347117e-01
2.8755974e-01
2.9842498e-01
2.6848964e-01
2.1414800e-01
1.5046701e-01
8.8238606e-02
3.3687365e-02
-1.0013816e-02
-4.0768441e-02
-5.6243928e-02
-5.3695694e-02
-3.0768116e-02
1.3233925e-02
7.6178748e-02
1.5253263e-01
2.3365383e-01
3.0892743e-01
3.6742211e-01
3.9962973e-01
3.9892742e-01
3.6254932e-01
2.9194167e-01
1.9240764e-01
7.2025104e-02
-6.0003992e-02
-1.9517261e-01
-3.2708338e-01
-4.5195898e-01
-5.6809675e-01
-6.7453011e-01
-7.6938603e-01
-8.4843869e-01
-9.0429035e-01
-9.2652298e-01
-9.0299616e-01
-8.2218310e-01
-6.7610112e-01
-4.6310884e-01
-1.8971020e-01
1.2937300e-01
4.7316379e-01
8.1804561e-01
1.1418844e+00
1.4269520e+00
1.6600243e+00
1.8291250e+00
1.9182922e+00
1.9034769e+00
1.7531265e+00
1.4357371e+00
9.3392797e-01
2.6109827e-01
-5.2623807e-01
-1.3279557e+00
-2.0160357e+00
-2.4644419e+00
-2.5841672e+00
-2.3508560e+00
-1.8145063e+00
-1.0876542e+00
-3.1653144e-01
3.5491353e-01
8.1733993e-01
1.0166686e+00
9.5943025e-01
7.0339747e-01
3.3734084e-01
-4.4148705e-02
-3.6392339e-01
-5.7726739e-01
-6.7444357e-01
-6.7070514e-01
-5.8893720e-01
-4.4406901e-01
-2.3776764e-01
3.4147153e-02
3.6701962e-01
7.3519815e-01
1.0903468e+00
1.3719148e+00
1.5250086e+00
1.5178067e+00
1.3517267e+00
1.0612407e+00
7.0429405e-01
3.4705661e-01
4.7632434e-02
-1.5729252e-01
-2.6028549e-01
-2.8432961e-01
-2.7725255e-01
-3.0013309e-01
-4.1110415e-01
-6.4693676e-01
-1.0062469e+00
-1.4398867e+00
-1.8546854e+00
-2.1339230e+00
-2.1711656e+00
-1.9066089e+00
-1.3517846e+00
-5.9177911e-01
2.3727383e-01
9.8751121e-01
1.5406325e+00
1.8361900e+00
1.8784210e+00
1.7225312e+00
1.4488120e+00
1.1356899e+00
8.4069605e-01
5.9338518e-01
3.9900006e-01
2.4821316e-01
1.2743499e-01
2.5616343e-02
-6.3919713e-02
-1.4556245e-01
-2.2483956e-01
-3.1042656e-01
-4.1297043e-01
-5.4063704e-01
-6.9304309e-01
-8.5638147e-01
-1.0025127e+00
-1.0934444e+00
-1.0905332e+00
-9.6589536e-01
-7.1260097e-01
-3.5040732e-01
7.5148574e-02
5.0075844e-01
8.5881806e-01
1.0928307e+00
1.1702948e+00
1.0892993e+00
8.7714234e-01
5.8192693e-01
2.6018474e-01
-3.5645506e-02
-2.6667209e-01
-4.1222674e-01
-4.6972216e-01
-4.5092056e-01
-3.7641920e-01
-2.7002987e-01
-1.5416961e-01
-4.6786219e-02
4.0072876e-02
1.0023782e-01
1.3240140e-01
1.3873307e-01
1.2364937e-01
9.2946050e-02
5.3152106e-02
1.0833892e-02
-2.8257770e-02
-6.0001214e-02
-8.2318795e-02
-9.4967845e-02
-9.8805284e-02
-9.4885658e-02
-8.3809633e-02
-6.5616956e-02
-4.0287130e-02
-8.6302314e-03
2.6886829e-02
6.1888964e-02
9.0715110e-02
1.0780223e-01
1.0932759e-01
9.4457439e-02
6.5716665e-02
2.8364106e-02
-1.0965219e-02
-4.5865615e-02
-7.1511742e-02
-8.5403153e-02
-8.7385556e-02
-7.9066920e-02
-6.2918750e-02
-4.1422026e-02
-1.6550809e-02
1.0295026e-02
3.7980585e-02
6.5113256e-02
8.9503861e-02
1.0787246e-01
1.1610380e-01
1.1021848e-01
8.7856010e-02
4.9676819e-02
-1.5715819e-05
-5.3850188e-02
-1.0306915e-01
-1.3974699e-01
-1.5872093e-01
-1.5852000e-01
-1.4102269e-01
-1.1014050e-01
-7.0217721e-02
-2.4882039e-02
2.3221080e-02
7.1866925e-02
1.1835133e-01
1.5888769e-01
1.8873657e-01
2.0309253e-01
1.9836819e-01
1.7333997e-01
1.2969636e-01
7.1783365e-02
5.6685117e-03
-6.2068198e-02
-1.2530473e-01
-1.7878736e-01
-2.1805161e-01
-2.3923392e-01
-2.3916594e-01
-2.1589224e-01
-1.6944549e-01
-1.0254905e-01
-2.0977930e-02
6.6512674e-02
1.4870780e-01
2.1302735e-01
2.4740372e-01
2.4291443e-01
1.9657478e-01
1.1321177e-01
5.4387656e-03
-1.0851408e-01
-2.0845388e-01
-2.7617541e-01
-2.9859655e-01
-2.6953095e-01
-1.9023964e-01
-6.9285895e-02
7.7943808e-02
2.3022174e-01
3.6255926e-01
4.4989475e-01
4.7224406e-01
4.2022933e-01
2.9912761e-01
1.2946217e-01
-5.6942398e-02
-2.2472717e-01
-3.4404883e-01
-3.9769188e-01
-3.8397574e-01
-3.1510177e-01
-2.1227131e-01
-9.9621063e-02
1.2247973e-03
7.4923205e-02
1.1416598e-01
1.1956538e-01
9.8074781e-02
6.0462770e-02
1.8389688e-02
-1.8360094e-02
-4.3926645e-02
-5.7188039e-02
-6.1046797e-02
-6.0345958e-02
-5.9134549e-02
-5.8410604e-02
-5.5411698e-02
-4.4866885e-02
-2.1645792e-02
1.6457438e-02
6.7042459e-02
1.2312484e-01
1.7471541e-01
2.1133806e-01
2.2471521e-01
2.1089724e-01
1.7129908e-01
1.1242273e-01
4.4392717e-02
-2.1323125e-02
-7.4519538e-02
-1.0862084e-01
-1.2217586e-01
-1.1892414e-01
-1.0624604e-01
-9.2399758e-02
-8.3462203e-02
-8.1057436e-02
-8.1717757e-02
-7.8214981e-02
-6.2604662e-02
-3.0135206e-02
1.7362392e-02
7.0229803e-02
1.1301352e-01
1.2952779e-01
1.0907216e-01
5.1137610e-02
-3.3450025e-02
-1.2543229e-01
-2.0294577e-01
-2.4815890e-01
-2.5241677e-01
-2.1817232e-01
-1.5711552e-01
-8.5236564e-02
-1.6635799e-02
4.1644079e-02
9.1799294e-02
1.4347218e-01
2.0834450e-01
2.9284341e-01
3.9168987e-01
4.8523705e-01
5.4265172e-01
5.3100477e-01
4.2779656e-01
2.3234310e-01
-2.9081279e-02
-3.0764817e-01
-5.4534870e-01
-6.9251645e-01
-7.2259284e-01
-6.3863946e-01
-4.6996164e-01
-2.6116411e-01
-5.8259000e-02
1.0336309e-01
2.0574914e-01
2.4889439e-01
2.4602485e-01
2.1615802e-01
1.7684775e-01
1.3944459e-01
1.0795275e-01
8.1097526e-02
5.6057161e-02
3.1885369e-02
1.1071351e-02
-1.3062311e-03
-2.5581111e-04
1.5978832e-02
4.3854344e-02
7.4670965e-02
9.7111151e-02
1.0123348e-01
8.2171976e-02
4.1813915e-02
-1.2325018e-02
-7.0458663e-02
-1.2454571e-01
-1.7115741e-01
-2.1190430e-01
-2.5110117e-01
-2.9147382e-01
-3.2967539e-01
-3.5381607e-01
-3.4477580e-01
-2.8170564e-01
-1.5029420e-01
4.9066069e-02
2.9642276e-01
5.5304001e-01
7.6840317e-01
8.9207392e-01
8.8735665e-01
7.4283538e-01
4.7799849e-01
1.4049776e-01
-2.0501092e-01
-4.9351976e-01
-6.7648899e-01
-7.3315664e-01
-6.7287958e-01
-5.2868083e-01
-3.4528134e-01
-1.6619377e-01
-2.3832361e-02
6.5267610e-02
1.0013854e-01
9.1513356e-02
5.6474799e-02
1.3361223e-02
-2.2102559e-02
-3.9215883e-02
-3.3422015e-02
-6.3541948e-03
3.5082878e-02
8.0529417e-02
1.1871115e-01
1.4033420e-01
1.4076739e-01
1.2180316e-01
9.1778876e-02
6.3611502e-02
5.0941612e-02
6.3410555e-02
1.0266387e-01
1.6062633e-01
2.2091766e-01
2.6323522e-01
2.6948208e-01
2.2972015e-01
1.4592214e-01
3.2042377e-02
-8.9967700e-02
-1.9714534e-01
-2.7313471e-01
-3.1347177e-01
-3.2619397e-01
-3.2725775e-01
-3.3250631e-01
-3.4950467e-01
-3.7271375e-01
-3.8422372e-01
-3.6016330e-01
-2.8068046e-01
-1.3976870e-01
4.9176436e-02
2.5489493e-01
4.3686668e-01
5.5773023e-01
5.9454762e-01
5.4480680e-01
4.2571328e-01
2.6800582e-01
1.0701928e-01
-2.6124762e-02
-1.1102867e-01
-1.4109809e-01
-1.2303959e-01
-7.3373830e-02
-1.3060239e-02
3.8362791e-02
6.7597812e-02
7.0046202e-02
4.9271847e-02
1.3897203e-02
-2.6687403e-02
-6.6043424e-02
-1.0241379e-01
-1.3793488e-01
-1.7592745e-01
-2.1776283e-01
-2.6096227e-01
-2.9941147e-01
-3.2530481e-01
-3.3153973e-01
-3.1330885e-01
-2.6837980e-01
-1.9639550e-01
-9.8002670e-02
2.5386908e-02
1.7076670e-01
3.3175920e-01
4.9659131e-01
6.4692445e-01
7.5867254e-01
8.0546924e-01
7.6453969e-01
6.2368302e-01
3.8729279e-01
7.9205929e-02
-2.5916843e-01
-5.7570590e-01
-8.1818626e-01
-9.4618541e-01
-9.4101453e-01
-8.1055548e-01
-5.8701809e-01
-3.1792836e-01
-5.3269395e-02
1.6678875e-01
3.1967327e-01
4.0197581e-01
4.2553664e-01
4.1041869e-01
3.7753470e-01
3.4302428e-01
3.1531314e-01
2.9473528e-01
2.7501366e-01
2.4580294e-01
1.9571935e-01
1.1556259e-01
1.5273859e-03
-1.4201242e-01
-3.0095961e-01
-4.5223473e-01
-5.6756175e-01
-6.2012501e-01
-5.9258462e-01
-4.8377196e-01
-3.1113294e-01
-1.0717174e-01
8.9411206e-02
2.4466432e-01
3.3815365e-01
3.6646610e-01
3.4092943e-01
2.8143657e-01
2.0936186e-01
1.4213805e-01
9.0687694e-02
5.9475738e-02
4.8152316e-02
5.3685931e-02
7.2200831e-02
1.0007480e-01
1.3411552e-01
1.7088619e-01
2.0554758e-01
2.3084581e-01
2.3695219e-01
2.1266997e-01
1.4808686e-01
3.8164273e-02
-1.1381673e-01
-2.9431611e-01
-4.8020606e-01
-6.4233326e-01
-7.5121903e-01
-7.8343696e-01
-7.2710544e-01
-5.8524034e-01
-3.7611779e-01
-1.3026948e-01
1.1556052e-01
3.2626400e-01
4.7603968e-01
5.5372662e-01
5.6421643e-01
5.2552779e-01
4.6246463e-01
3.9881011e-01
3.5039242e-01
3.2101245e-01
3.0232509e-01
2.7762815e-01
2.2842485e-01
1.4181938e-01
1.6468326e-02
-1.3494018e-01
-2.8785340e-01
-4.1244339e-01
-4.8271807e-01
-4.8496322e-01
-4.2228827e-01
-3.1356125e-01
-1.8732029e-01
-7.3094261e-02
6.8160869e-03
4.2605438e-02
3.8030931e-02
7.4356284e-03
-2.9920325e-02
-5.6166484e-02
-5.9711972e-02
-3.7386937e-02
6.3427408e-03
6.2195942e-02
1.1950078e-01
1.6893140e-01
2.0390032e-01
2.2069662e-01
2.1795228e-01
1.9608747e-01
1.5709880e-01
1.0463294e-01
4.3989942e-02
-1.8291535e-02
-7.5325294e-02
-1.2096332e-01
-1.5066952e-01
-1.6194094e-01
-1.5432295e-01
-1.2922500e-01
-8.9694092e-02
-4.0179164e-02
1.3736026e-02
6.5656385e-02
1.0881312e-01
1.3671814e-01
1.4409404e-01
1.2797318e-01
8.8677611e-02
3.0333403e-02
-3.9321372e-02
-1.0988852e-01
-1.6990424e-01
-2.0883708e-01
-2.1914515e-01
-1.9794630e-01
-1.4782368e-01
-7.6439976e-02
5.0073491e-03
8.4048350e-02
1.4926642e-01
1.9212859e-01
2.0803820e-01
1.9658552e-01
1.6112303e-01
1.0786701e-01
4.4770049e-02
-1.9588931e-02
-7.6926405e-02
-1.1996003e-01
-1.4300132e-01
-1.4256791e-01
-1.1805394e-01
-7.2327884e-02
-1.1977559e-02
5.3121801e-02
1.1112978e-01
1.5039888e-01
1.6205587e-01
1.4230388e-01
9.3703536e-02
2.4953027e-02
-5.0874559e-02
-1.1922901e-01
-1.6736026e-01
-1.8707778e-01
-1.7624821e-01
-1.3870748e-01
-8.2782339e-02
-1.9021299e-02
4.2131320e-02
9.2139404e-02
1.2539354e-01
1.3948171e-01
1.3492233e-01
1.1458915e-01
8.2975408e-02
4.5348030e-02
6.8179196e-03
-2.8551432e-02
-5.8327717e-02
-8.1697073e-02
-9.8787755e-02
-1.0962500e-01
-1.1326546e-01
-1.0761586e-01
-9.0115496e-02
-5.9051138e-02
-1.4994203e-02
3.8201803e-02
9.3284200e-02
1.4060054e-01
1.7017742e-01
1.7447157e-01
1.5097682e-01
1.0363702e-01
4.2247300e-02
-2.0193256e-02
-7.1257163e-02
-1.0254724e-01
-1.1159606e-01
-1.0168713e-01
-7.9905459e-02
-5.4318492e-02
-3.1370989e-02
-1.4346567e-02
-3.2473988e-03
4.1161782e-03
1.0439613e-02
1.7370310e-02
2.4655744e-02
3.0253107e-02
3.1306374e-02
2.5566368e-02
1.2630902e-02
-5.5408620e-03
-2.5025397e-02
-4.1007159e-02
-4.9077837e-02
-4.6380072e-02
-3.2397598e-02
-9.2923635e-03
1.8333708e-02
4.4353592e-02
6.2598824e-02
6.8509382e-02
6.0411789e-02
4.0010956e-02
1.1958575e-02
-1.7352055e-02
-4.1399734e-02
-5.5091867e-02
-5.5836690e-02
-4.3881817e-02
-2.1936174e-02
5.6691545e-03
3.3940838e-02
5.8053097e-02
7.3953918e-02
7.8766036e-02
7.1044132e-02
5.0951175e-02
2.0384024e-02
-1.6991967e-02
-5.5922681e-02
-9.0115564e-02
-1.1323055e-01
-1.2018179e-01
-1.0842643e-01
-7.8853510e-02
-3.5970117e-02
1.2747446e-02
5.8268659e-02
9.1928460e-02
1.0743227e-01
1.0243065e-01
7.9171631e-02
4.3946457e-02
5.4094060e-03
-2.7771660e-02
-4.9243696e-02
-5.6541912e-02
-5.1333905e-02
-3.8188966e-02
-2.2376186e-02
-7.7171210e-03
4.4932480e-03
1.5074987e-02
2.5439641e-02
3.5869791e-02
4.4530968e-02
4.7717737e-02
4.1257846e-02
2.2519721e-02
-7.7989481e-03
-4.4911734e-02
-8.0674689e-02
-1.0566652e-01
-1.1190443e-01
-9.5254436e-02
-5.6788337e-02
-2.7584596e-03
5.6741801e-02
1.1008792e-01
1.4686619e-01
1.6035881e-01
1.4904188e-01
1.1657696e-01
7.0303655e-02
1.8868214e-02
-3.0056521e-02
-7.1206154e-02
-1.0206943e-01
-1.2233357e-01
-1.3282874e-01
-1.3441824e-01
-1.2723417e-01
-1.1051765e-01
-8.3122231e-02
-4.4533310e-02
3.9292132e-03
5.8194447e-02
1.1129255e-01
1.5427885e-01
1.7816296e-01
1.7632845e-01
1.4663196e-01
9.2424470e-02
2.2132383e-02
-5.2447276e-02
-1.1860476e-01
-1.6528272e-01
-1.8519863e-01
-1.7612463e-01
-1.4106250e-01
-8.7265822e-02
-2.4394906e-02
3.7625923e-02
9.0453772e-02
1.2850217e-01
1.4934317e-01
1.5340497e-01
1.4312591e-01
1.2182807e-01
9.2677212e-02
5.8078949e-02
1.9670846e-02
-2.1176484e-02
-6.2590161e-02
-1.0146077e-01
-1.3309916e-01
-1.5165476e-01
-1.5148644e-01
-1.2924329e-01
-8.5917482e-02
-2.7902110e-02
3.3678855e-02
8.5466421e-02
1.1551197e-01
1.1683698e-01
8.9619061e-02
4.1214888e-02
-1.5964792e-02
-6.7968509e-02
-1.0304516e-01
-1.1449202e-01
-1.0188052e-01
-7.0480150e-02
-2.9209264e-02
1.2220960e-02
4.6149488e-02
6.8966617e-02
8.1613664e-02
8.8349590e-02
9.4191060e-02
1.0203004e-01
1.1068050e-01
1.1482907e-01
1.0712053e-01
8.1668796e-02
3.7538635e-02
-1.9444336e-02
-7.7639578e-02
-1.2319460e-01
-1.4490681e-01
-1.3827377e-01
-1.0706154e-01
-6.1916920e-02
-1.6782241e-02
1.5453995e-02
2.6622348e-02
1.5232752e-02
-1.3659974e-02
-5.0407701e-02
-8.3730044e-02
-1.0368212e-01
-1.0383625e-01
-8.2329335e-02
-4.1826327e-02
1.1346610e-02
6.8600761e-02
1.2073117e-01
1.5954629e-01
1.7924343e-01
1.7734224e-01
1.5505222e-01
1.1699446e-01
7.0229243e-02
2.2641625e-02
-1.9021727e-02
-5.0876825e-02
-7.2689344e-02
-8.7287521e-02
-9.8740430e-02
-1.1002736e-01
-1.2118851e-01
-1.2876071e-01
-1.2679144e-01
-1.0913503e-01
-7.2264875e-02
-1.7600785e-02
4.7567969e-02
1.1108315e-01
1.5875905e-01
1.7835118e-01
1.6344887e-01
1.1595051e-01
4.6161617e-02
-2.9632675e-02
-9.3403598e-02
-1.3015911e-01
-1.3191143e-01
-9.9758189e-02
-4.3529022e-02
2.0909522e-02
7.5979143e-02
1.0718139e-01
1.0701248e-01
7.6817870e-02
2.5957991e-02
-3.1446527e-02
-8.1001520e-02
-1.1211401e-01
-1.2029450e-01
-1.0715778e-01
-7.8503034e-02
-4.1467647e-02
-1.9480495e-03
3.6718060e-02
7.3373291e-02
1.0731657e-01
1.3626800e-01
1.5526393e-01
1.5730605e-01
1.3574549e-01
8.7520787e-02
1.5855978e-02
-6.8922002e-02
-1.5112755e-01
-2.1364606e-01
-2.4270703e-01
-2.3178537e-01
-1.8328936e-01
-1.0756261e-01
-1.9682246e-02
6.4749278e-02
1.3334483e-01
1.7900448e-01
1.9988650e-01
1.9779081e-01
1.7610087e-01
1.3840801e-01
8.8315748e-02
3.0108480e-02
-3.0528268e-02
-8.6479959e-02
-1.3011702e-01
-1.5485939e-01
-1.5682404e-01
-1.3601202e-01
-9.6652487e-02
-4.6510140e-02
4.7796818e-03
4.7941717e-02
7.6180145e-02
8.6510933e-02
7.9936510e-02
6.0527286e-02
3.3818774e-02
5.0873683e-03
-2.1931795e-02
-4.5441125e-02
-6.4937788e-02
-7.9853774e-02
-8.8257613e-02
-8.6484897e-02
-7.0125364e-02
-3.6074533e-02
1.5200771e-02
7.8176296e-02
1.4231437e-01
1.9390044e-01
2.1932832e-01
2.0892435e-01
1.6009158e-01
7.8675606e-02
-2.2002891e-02
-1.2422221e-01
-2.1007417e-01
-2.6545128e-01
-2.8258469e-01
-2.6056707e-01
-2.0414588e-01
-1.2169564e-01
-2.3380865e-02
7.9895973e-02
1.7682270e-01
2.5585422e-01
3.0590876e-01
3.1790616e-01
2.8688490e-01
2.1395545e-01
1.0724929e-01
-1.8668952e-02
-1.4494264e-01
-2.5165752e-01
-3.2142921e-01
-3.4257455e-01
-3.1128876e-01
-2.3253077e-01
-1.1950880e-01
8.2930216e-03
1.2850219e-01
2.2022001e-01
2.6834004e-01
2.6653107e-01
2.1799837e-01
1.3402624e-01
3.1089654e-02
-7.2436870e-02
-1.5923036e-01
-2.1535776e-01
-2.3202837e-01
-2.0678538e-01
-1.4398517e-01
-5.4288152e-02
4.7038329e-02
1.4289994e-01
2.1769144e-01
2.6025471e-01
2.6561537e-01
2.3511459e-01
1.7519475e-01
9.5502201e-02
6.9694184e-03
-7.9730513e-02
-1.5526933e-01
-2.1238091e-01
-2.4631137e-01
-2.5501027e-01
-2.3902542e-01
-2.0113525e-01
-1.4584100e-01
-7.8836733e-02
-6.5146401e-03
6.4471953e-02
1.2759292e-01
1.7684843e-01
2.0732592e-01
2.1593727e-01
2.0213192e-01
1.6820978e-01
1.1894713e-01
6.0597932e-02
-2.7546008e-04
-5.7549998e-02
-1.0555881e-01
-1.3866534e-01
-1.5121624e-01
-1.3868333e-01
-1.0003256e-01
-4.0229258e-02
2.8818937e-02
9.0055891e-02
1.2559945e-01
1.2209691e-01
7.5200582e-02
-8.2738188e-03
-1.1108006e-01
-2.0895988e-01
-2.7600665e-01
-2.9087547e-01
-2.4248210e-01
-1.3374580e-01
1.7812442e-02
1.8312130e-01
3.2778423e-01
4.2005774e-01
4.3861499e-01
3.7813734e-01
2.5124845e-01
8.6067034e-02
-8.0387999e-02
-2.1161987e-01
-2.8154728e-01
-2.8188601e-01
-2.2428422e-01
-1.3592914e-01
-4.9795613e-02
6.8652513e-03
2.1261019e-02
-2.2297362e-03
-4.5835626e-02
-8.6468991e-02
-1.0459883e-01
-9.0705795e-02
-4.7479558e-02
1.2364818e-02
7.1341204e-02
1.1343157e-01
1.2920584e-01
1.1831246e-01
8.8775832e-02
5.3575855e-02
2.5857228e-02
1.4530773e-02
2.1775577e-02
4.3104715e-02
6.9611197e-02
9.1251704e-02
9.9864419e-02
9.1038677e-02
6.4626073e-02
2.4175748e-02
-2.4290437e-02
-7.3812116e-02
-1.1802988e-01
-1.5242342e-01
-1.7496813e-01
-1.8604329e-01
-1.8763944e-01
-1.8215040e-01
-1.7115111e-01
-1.5450875e-01
-1.3006947e-01
-9.4098001e-02
-4.2551888e-02
2.6965903e-02
1.1307665e-01
2.0908225e-01
3.0276909e-01
3.7799936e-01
4.1798989e-01
4.0958709e-01
3.4738118e-01
2.3633184e-01
9.1822617e-02
-6.3246756e-02
-2.0370170e-01
-3.0806906e-01
-3.6331575e-01
-3.6690082e-01
-3.2583091e-01
-2.5351548e-01
-1.6579465e-01
-7.7460668e-02
-8.7074268e-05
5.8723629e-02
9.5161450e-02
1.0878762e-01
1.0226775e-01
8.1127297e-02
5.3072771e-02
2.6567800e-02
8.8453031e-03
3.9944908e-03
1.1869577e-02
2.8290366e-02
4.6535911e-02
5.9680941e-02
6.2995686e-02
5.5507651e-02
4.0050243e-02
2.1747096e-02
5.6455404e-03
-5.3593358e-03
-1.1372784e-02
-1.4863005e-02
-1.8997992e-02
-2.5811679e-02
-3.5017460e-02
-4.3919369e-02
-4.8381219e-02
-4.4415016e-02
-2.9783655e-02
-5.1022719e-03
2.5840905e-02
5.6607955e-02
7.9423075e-02
8.7106553e-02
7.5254474e-02
4.4028007e-02
-1.1903476e-03
-5.0785378e-02
-9.3481143e-02
-1.1973621e-01
-1.2472548e-01
-1.0970818e-01
-8.1186400e-02
-4.8189685e-02
-1.8840323e-02
2.3436309e-03
1.5322315e-02
2.3366980e-02
3.0569108e-02
3.9291289e-02
4.8745906e-02
5.5273724e-02
5.4101013e-02
4.1771281e-02
1.8274364e-02
-1.1909192e-02
-4.0226085e-02
-5.5858215e-02
-4.8477812e-02
-1.1288886e-02
5.6353582e-02
1.4737245e-01
2.4692883e-01
3.3421074e-01
3.8603229e-01
3.8174011e-01
3.0842125e-01
1.6516003e-01
-3.4787385e-02
-2.6468322e-01
-4.8819195e-01
-6.6614398e-01
-7.6496779e-01
-7.6469226e-01
-6.6407282e-01
-4.8100148e-01
-2.4786185e-01
-3.2737559e-03
2.1709508e-01
3.8783966e-01
4.9737596e-01
5.4735344e-01
5.4886846e-01
5.1715362e-01
4.6646560e-01
4.0648048e-01
3.4089241e-01
2.6827133e-01
1.8466365e-01
8.6990751e-02
-2.3923989e-02
-1.4179398e-01
-2.5538492e-01
-3.5090945e-01
-4.1538907e-01
-4.3985912e-01
-4.2157001e-01
-3.6478407e-01
-2.8011727e-01
-1.8256576e-01
-8.8493074e-02
-1.2081943e-02
3.7938459e-02
6.0322939e-02
6.1351846e-02
5.2720979e-02
4.7823349e-02
5.7514721e-02
8.6656951e-02
1.3251661e-01
1.8551545e-01
2.3207638e-01
2.5865445e-01
2.5570920e-01
2.2044233e-01
1.5753628e-01
7.7750431e-02
-5.1074254e-03
-7.7817781e-02
-1.3082900e-01
-1.5988259e-01
-1.6586583e-01
-1.5323685e-01
-1.2784088e-01
-9.5021290e-02
-5.8642803e-02
-2.1198109e-02
1.5245771e-02
4.7819949e-02
7.2070194e-02
8.2242004e-02
7.2818372e-02
4.0862787e-02
-1.1776024e-02
-7.7428088e-02
-1.4339236e-01
-1.9455050e-01
-2.1714203e-01
-2.0260962e-01
-1.5030792e-01
-6.8098630e-02
2.9524442e-02
1.2522475e-01
2.0318124e-01
2.5250147e-01
2.6875467e-01
2.5360326e-01
2.1318135e-01
1.5603133e-01
9.1207372e-02
2.6868358e-02
-3.0546950e-02
-7.6645984e-02
-1.0910422e-01
-1.2756350e-01
-1.3345383e-01
-1.2965022e-01
-1.1987071e-01
-1.0785852e-01
-9.6542105e-02
-8.7399637e-02
-8.0166337e-02
-7.2919867e-02
-6.2537601e-02
-4.5516079e-02
-1.9089726e-02
1.7552831e-02
6.2313634e-02
1.0991458e-01
1.5261588e-01
1.8190809e-01
1.9075014e-01
1.7563408e-01
1.3774919e-01
8.2808270e-02
1.9575411e-02
-4.2388008e-02
-9.4955976e-02
-1.3288783e-01
-1.5411016e-01
-1.5898576e-01
-1.4914403e-01
-1.2652810e-01
-9.3060439e-02
-5.0927853e-02
-3.1663011e-03
4.5884482e-02
9.0601095e-02
1.2472517e-01
1.4256493e-01
1.4044547e-01
1.1794365e-01
7.8429355e-02
2.8603014e-02
-2.2948741e-02
-6.7767197e-02
-9.9438491e-02
-1.1478307e-01
-1.1399338e-01
-9.9808771e-02
-7.6165285e-02
-4.6919683e-02
-1.5149734e-02
1.6802361e-02
4.6795272e-02
7.2373798e-02
9.0709785e-02
9.9083358e-02
9.5641038e-02
8.0062302e-02
5.3894062e-02
2.0496673e-02
-1.5342516e-02
-4.8043345e-02
-7.2044213e-02
-8.2732892e-02
-7.7415372e-02
-5.6174550e-02
-2.2392301e-02
1.7333627e-02
5.4099360e-02
7.8462675e-02
8.2779366e-02
6.3502498e-02
2.2707396e-02
-3.1756788e-02
-8.7729377e-02
-1.3159337e-01
-1.5185283e-01
-1.4242161e-01
-1.0451610e-01
-4.6352371e-02
1.9400941e-02
7.9521677e-02
1.2396423e-01
1.4800836e-01
1.5223446e-01
1.4075781e-01
1.1879839e-01
9.0688155e-02
5.8986003e-02
2.4778327e-02
-1.1276621e-02
-4.7871196e-02
-8.2542362e-02
-1.1192839e-01
-1.3253807e-01
-1.4158838e-01
-1.3756624e-01
-1.2040184e-01
-9.1335092e-02
-5.2655496e-02
-7.5041448e-03
4.0160188e-02
8.5505837e-02
1.2293396e-01
1.4662447e-01
1.5162142e-01
1.3525610e-01
9.8443316e-02
4.6290733e-02
-1.2406976e-02
-6.6867348e-02
-1.0683278e-01
-1.2514068e-01
-1.1949096e-01
-9.2806576e-02
-5.2119978e-02
-6.4861154e-03
3.5280879e-02
6.6361663e-02
8.2875271e-02
8.4073507e-02
7.1980794e-02
5.0623540e-02
2.4962578e-02
-2.6586996e-04
-2.1496523e-02
-3.6820304e-02
-4.5959753e-02
-4.9867139e-02
-5.0131815e-02
-4.8353340e-02
-4.5614470e-02
-4.2183718e-02
-3.7533304e-02
-3.0655547e-02
-2.0563435e-02
-6.8337722e-03
9.9364326e-03
2.7913087e-02
4.4231066e-02
5.5702735e-02
5.9835415e-02
5.5731831e-02
4.4485700e-02
2.8954161e-02
1.3051207e-02
8.0604402e-04
-4.5928589e-03
-1.5753501e-03
9.4027294e-03
2.5957882e-02
4.4354107e-02
6.0341852e-02
6.9997284e-02
7.0396624e-02
6.0065477e-02
3.9155668e-02
9.2940098e-03
-2.6861513e-02
-6.6162758e-02
-1.0536072e-01
-1.4125070e-01
-1.7072802e-01
-1.9101606e-01
-2.0017726e-01
-1.9770252e-01
-1.8474199e-01
-1.6361252e-01
-1.3659895e-01
-1.0452948e-01
-6.5860784e-02
-1.6882424e-02
4.6824412e-02
1.2812916e-01
2.2614809e-01
3.3492976e-01
4.4342911e-01
5.3660758e-01
5.9724028e-01
6.0822963e-01
5.5556924e-01
4.3201258e-01
2.4081927e-01
-1.8482862e-03
-2.6748958e-01
-5.1958074e-01
-7.2089123e-01
-8.4164546e-01
-8.6593366e-01
-7.9453118e-01
-6.4369343e-01
-4.4075221e-01
-2.1799088e-01
-6.3263503e-03
1.6998597e-01
2.9679660e-01
3.7113199e-01
3.9968532e-01
3.9508396e-01
3.7106689e-01
3.3824899e-01
3.0197063e-01
2.6281560e-01
2.1920761e-01
1.7061962e-01
1.1970240e-01
7.2171365e-02
3.4413207e-02
9.9897130e-03
-3.0928706e-03
-1.2703851e-02
-2.9937460e-02
-6.4402353e-02
-1.1951398e-01
-1.9005183e-01
-2.6324739e-01
-3.2290896e-01
-3.5461130e-01
-3.4970957e-01
-3.0689277e-01
-2.3137056e-01
-1.3273765e-01
-2.2704221e-02
8.6626795e-02
1.8392791e-01
2.5962429e-01
3.0695208e-01
3.2298442e-01
3.0917457e-01
2.7097826e-01
2.1649785e-01
1.5454183e-01
9.2714031e-02
3.6094768e-02
-1.3129501e-02
-5.5033157e-02
-9.0636028e-02
-1.2053217e-01
-1.4410909e-01
-1.5967755e-01
-1.6534897e-01
-1.6015231e-01
-1.4485772e-01
-1.2221873e-01
-9.6633416e-02
-7.3369108e-02
-5.7511565e-02
-5.2813148e-02
-6.0641745e-02
-7.9200167e-02
-1.0311599e-01
-1.2351413e-01
-1.2879984e-01
-1.0643726e-01
-4.5836429e-02
5.7937638e-02
2.0041590e-01
3.6518456e-01
5.2405908e-01
6.4120062e-01
6.8129961e-01
6.2015332e-01
4.5420301e-01
2.0495945e-01
-8.4433785e-02
-3.6013802e-01
-5.7227341e-01
-6.8782180e-01
-6.9738627e-01
-6.1437928e-01
-4.6820174e-01
-2.9464395e-01
-1.2682934e-01
1.1011893e-02
1.0613492e-01
1.5673015e-01
1.6941056e-01
1.5592899e-01
1.2991530e-01
1.0398514e-01
8.7373824e-02
8.4309103e-02
9.3453814e-02
1.0870056e-01
1.2131368e-01
1.2297578e-01
1.0886774e-01
7.9693641e-02
4.1756397e-02
4.8625642e-03
-2.1235120e-02
-3.0432962e-02
-2.2419549e-02
-2.5360507e-03
2.0462102e-02
3.7721305e-02
4.3350776e-02
3.6134307e-02
1.9404330e-02
-6.9822181e-04
-1.7806166e-02
-2.7783529e-02
-3.0260560e-02
-2.8825191e-02
-2.9842668e-02
-4.0190941e-02
-6.4467436e-02
-1.0247831e-01
-1.4796911e-01
-1.8939427e-01
-2.1291931e-01
-2.0692863e-01
-1.6647410e-01
-9.5822031e-02
-7.8111682e-03
7.9977500e-02
1.5076775e-01
1.9356059e-01
2.0560373e-01
1.9172964e-01
1.6136337e-01
1.2481043e-01
9.0347973e-02
6.2894334e-02
4.4152549e-02
3.3570778e-02
2.9381902e-02
2.9245929e-02
3.0404270e-02
2.9590765e-02
2.3120838e-02
7.5229574e-03
-1.9240585e-02
-5.6379136e-02
-9.9447023e-02
-1.4074635e-01
-1.7111846e-01
-1.8262359e-01
-1.7114158e-01
-1.3788238e-01
-8.9187771e-02
-3.4657311e-02
1.5735840e-02
5.4511225e-02
7.8538610e-02
8.9312859e-02
9.1706226e-02
9.1817231e-02
9.4743740e-02
1.0292823e-01
1.1537542e-01
1.2776331e-01
1.3332782e-01
1.2435684e-01
9.4130312e-02
3.9112315e-02
-3.8963047e-02
-1.3175022e-01
-2.2450448e-01
-2.9843176e-01
-3.3506028e-01
-3.2157948e-01
-2.5536530e-01
-1.4584253e-01
-1.2631346e-02
1.1962898e-01
2.2794898e-01
2.9669847e-01
3.2045551e-01
3.0343472e-01
2.5630353e-01
1.9198950e-01
1.2208118e-01
5.4798364e-02
-5.3285118e-03
-5.6570349e-02
-9.8656962e-02
-1.3163776e-01
-1.5530290e-01
-1.6916722e-01
-1.7274608e-01
-1.6579480e-01
-1.4837951e-01
-1.2092697e-01
-8.4492398e-02
-4.1277703e-02
4.8933219e-03
4.8595101e-02
8.3611748e-02
1.0444617e-01
1.0803136e-01
9.4958116e-02
6.9657188e-02
3.9350626e-02
1.2062128e-02
-5.6303162e-03
-1.0281151e-02
-2.1161429e-03
1.5643165e-02
3.8188320e-02
6.0518577e-02
7.8244415e-02
8.7706473e-02
8.5785700e-02
6.9946112e-02
3.8844463e-02
-6.5910264e-03
-6.2130337e-02
-1.1996517e-01
-1.6971408e-01
-2.0072317e-01
-2.0504041e-01
-1.7998886e-01
-1.2925753e-01
-6.1963613e-02
9.9841620e-03
7.5133659e-02
1.2507249e-01
1.5553888e-01
1.6604294e-01
1.5861235e-01
1.3646982e-01
1.0322046e-01
6.2678752e-02
1.9049910e-02
-2.2996274e-02
-5.8675918e-02
-8.3822799e-02
-9.5658694e-02
-9.3249071e-02
-7.7532027e-02
-5.1058453e-02
-1.7649103e-02
1.7929500e-02
5.0311621e-02
7.4029120e-02
8.4282328e-02
7.7984111e-02
5.4840025e-02
1.8013371e-02
-2.6072060e-02
-6.8942150e-02
-1.0200110e-01
-1.1855339e-01
-1.1525967e-01
-9.2621174e-02
-5.4476851e-02
-6.8456747e-03
4.3385677e-02
8.9498798e-02
1.2552292e-01
1.4646282e-01
1.4845817e-01
1.2915037e-01
8.8346178e-02
2.8796464e-02
-4.3290356e-02
-1.1839551e-01
-1.8473000e-01
-2.3014652e-01
-2.4462555e-01
-2.2276497e-01
-1.6551392e-01
-8.0460251e-02
1.9585650e-02
1.1931824e-01
2.0409380e-01
2.6261564e-01
2.8862921e-01
2.8152606e-01
2.4593942e-01
1.9042794e-01
1.2540246e-01
6.0655753e-02
3.1014192e-03
-4.4592614e-02
-8.3997937e-02
-1.1949625e-01
-1.5585823e-01
-1.9564018e-01
-2.3733682e-01
-2.7499734e-01
-2.9947291e-01
-3.0088848e-01
-2.7161386e-01
-2.0897835e-01
-1.1703808e-01
-6.7602067e-03
1.0579233e-01
2.0308812e-01
2.7053293e-01
3.0010320e-01
2.9196389e-01
2.5378952e-01
1.9839916e-01
1.4060229e-01
9.3954647e-02
6.7894508e-02
6.5684453e-02
8.3583873e-02
1.1153189e-01
1.3531461e-01
1.3983557e-01
1.1282073e-01
4.8150022e-02
-5.1944312e-02
-1.7635228e-01
-3.0644283e-01
-4.1915718e-01
-4.9139272e-01
-5.0499765e-01
-4.5145932e-01
-3.3510631e-01
-1.7355684e-01
5.3934239e-03
1.7007664e-01
2.9265495e-01
3.5567554e-01
3.5544492e-01
3.0158250e-01
2.1348687e-01
1.1518670e-01
3.0078689e-02
-2.3393439e-02
-3.4677702e-02
-2.6840666e-03
6.3906077e-02
1.4767701e-01
2.2511684e-01
2.7096556e-01
2.6389248e-01
1.9249503e-01
6.0086182e-02
-1.1350537e-01
-2.9462530e-01
-4.4340596e-01
-5.2487692e-01
-5.2014636e-01
-4.3320497e-01
-2.8990908e-01
-1.2887177e-01
1.2085001e-02
1.0806299e-01
1.5300125e-01
1.5798556e-01
1.4399008e-01
1.3277321e-01
1.3939004e-01
1.6835945e-01
2.1385140e-01
2.6294114e-01
3.0028901e-01
3.1262968e-01
2.9204514e-01
2.3772590e-01
1.5634528e-01
6.1177894e-02
-3.0063769e-02
-9.8733227e-02
-1.2993802e-01
-1.1776940e-01
-6.9723847e-02
-8.3260589e-03
3.2045372e-02
1.3957858e-02
-9.0170927e-02
-2.8515761e-01
-5.4540737e-01
-8.1656306e-01
-1.0272266e+00
-1.1078481e+00
-1.0112398e+00
-7.2832642e-01
-2.9387457e-01
2.2015936e-01
7.2211569e-01
1.1238478e+00
1.3627299e+00
1.4160095e+00
1.3035257e+00
1.0783299e+00
8.0827367e-01
5.5426420e-01
3.5197401e-01
2.0292964e-01
7.8073258e-02
-6.7295961e-02
-2.7249508e-01
-5.5218095e-01
-8.8626500e-01
-1.2229575e+00
-1.4935948e+00
-1.6332677e+00
-1.5994462e+00
-1.3823264e+00
-1.0044086e+00
-5.1104985e-01
4.3174524e-02
6.0652340e-01
1.1362386e+00
1.5976581e+00
1.9586609e+00
2.1840562e+00
2.2345570e+00
2.0728336e+00
1.6757241e+00
1.0484197e+00
2.3477830e-01
-6.8131351e-01
-1.5856709e+00
-2.3529556e+00
-2.8704689e+00
-3.0605274e+00
-2.8959215e+00
-2.4048255e+00
-1.6640651e+00
-7.8244983e-01
1.2155307e-01
9.4198416e-01
1.6018462e+00
2.0603870e+00
2.3108011e+00
2.3708094e+00
2.2703747e+00
2.0410695e+00
1.7102513e+00
1.3007589e+00
8.3438324e-01
3.3600123e-01
-1.6448094e-01
-6.3361521e-01
-1.0385777e+00
-1.3520095e+00
-1.5556550e+00
-1.6420988e+00
-1.6150919e+00
-1.4892321e+00
-1.2890257e+00
-1.0463740e+00
-7.9542085e-01
-5.6507571e-01
-3.7161711e-01
-2.1473232e-01
-7.9048418e-02
5.9392892e-02
2.2425523e-01
4.3056696e-01
6.7907394e-01
9.5429883e-01
1.2263534e+00
1.4558580e+00
1.6008712e+00
1.6245542e+00
1.5024128e+00
1.2282176e+00
8.1783615e-01
3.1009830e-01
-2.3629813e-01
-7.5051342e-01
-1.1615427e+00
-1.4124584e+00
-1.4734463e+00
-1.3495924e+00
-1.0802507e+00
-7.2920018e-01
-3.6809152e-01
-5.8509879e-02
1.6137834e-01
2.8175354e-01
3.1743315e-01
2.9833437e-01
2.5807748e-01
2.2413184e-01
2.1153299e-01
2.2083750e-01
2.3996740e-01
2.4893916e-01
2.2615043e-01
1.5489714e-01
2.8990803e-02
-1.4349191e-01
-3.3927006e-01
-5.2255105e-01
-6.5159094e-01
-6.8824821e-01
-6.0840493e-01
-4.1031317e-01
-1.1797016e-01
2.2232468e-01
5.5210818e-01
8.1496336e-01
9.7016365e-01
1.0009948e+00
9.1528137e-01
7.3907530e-01
5.0698089e-01
2.5304506e-01
4.8421441e-03
-2.1854259e-01
-4.0545599e-01
-5.4907737e-01
-6.4480600e-01
-6.8875262e-01
-6.7782910e-01
-6.1124535e-01
-4.9267384e-01
-3.3209770e-01
-1.4643703e-01
4.1627032e-02
2.0670960e-01
3.2515801e-01
3.7987184e-01
3.6427029e-01
2.8424478e-01
1.5735248e-01
9.2619983e-03
-1.3165122e-01
-2.4006382e-01
-2.9831452e-01
-2.9885777e-01
-2.4425553e-01
-1.4508607e-01
-1.6670920e-02
1.2426376e-01
2.6204340e-01
3.8314507e-01
4.7606577e-01
5.3060412e-01
5.3746433e-01
4.8897728e-01
3.8122145e-01
2.1705226e-01
8.8297668e-03
-2.2063212e-01
-4.3998052e-01
-6.1427384e-01
-7.1206433e-01
-7.1284894e-01
-6.1274565e-01
-4.2653645e-01
-1.8521712e-01
7.0370432e-02
2.9802349e-01
4.6253837e-01
5.4204846e-01
5.3116732e-01
4.4052571e-01
2.9301586e-01
1.1774932e-01
-5.6700016e-02
-2.0796781e-01
-3.2300183e-01
-3.9797264e-01
-4.3546805e-01
-4.4032233e-01
-4.1577085e-01
-3.6137371e-01
-2.7344482e-01
-1.4779001e-01
1.6281329e-02
2.1215878e-01
4.2377169e-01
6.2599897e-01
7.8788836e-01
8.7826556e-01
8.7275443e-01
7.6068950e-01
5.4994159e-01
2.6768734e-01
-4.3951038e-02
-3.3681320e-01
-5.6786870e-01
-7.0937286e-01
-7.5483799e-01
-7.1881866e-01
-6.3047888e-01
-5.2309544e-01
-4.2320931e-01
-3.4329675e-01
-2.8039238e-01
-2.2065488e-01
-1.4755578e-01
-5.0217472e-02
7.1228923e-02
2.0495016e-01
3.3123692e-01
4.2912933e-01
4.8325263e-01
4.8836650e-01
4.5016649e-01
3.8245376e-01
3.0219109e-01
2.2451762e-01
1.5936157e-01
1.1031990e-01
7.5555038e-02
4.9917396e-02
2.7368503e-02
2.9429924e-03
-2.6184764e-02
-6.0588437e-02
-9.9181003e-02
-1.4010512e-01
-1.8152066e-01
-2.2197223e-01
-2.6016612e-01
-2.9423848e-01
-3.2091230e-01
-3.3513508e-01
-3.3069693e-01
-3.0194983e-01
-2.4620625e-01
-1.6587828e-01
-6.9182101e-02
3.1417309e-02
1.2281320e-01
1.9545455e-01
2.4610248e-01
2.7776723e-01
2.9691238e-01
3.0933779e-01
3.1666124e-01
3.1492621e-01
2.9590607e-01
2.5061608e-01
1.7376248e-01
6.7552484e-02
-5.6513405e-02
-1.7865893e-01
-2.7467479e-01
-3.2183640e-01
-3.0553708e-01
-2.2489108e-01
-9.5458877e-02
5.2438828e-02
1.8042357e-01
2.5273630e-01
2.4780025e-01
1.6613225e-01
3.0613432e-02
-1.2170863e-01
-2.5280789e-01
-3.3589909e-01
-3.6182051e-01
-3.3818023e-01
-2.8312806e-01
-2.1713820e-01
-1.5599296e-01
-1.0696347e-01
-6.8724477e-02
