2.0678916e-05
-4.2060692e-05
-1.1477214e-04
-1.9634293e-04
-2.6538714e-04
-2.8404910e-04
-2.1330240e-04
-3.5180016e-05
2.2776214e-04
5.0710322e-04
7.0450114e-04
7.2651494e-04
5.2505906e-04
1.2450155e-04
-3.7935231e-04
-8.4982536e-04
-1.1559873e-03
-1.2146147e-03
-1.0112545e-03
-5.9606444e-04
-6.1272515e-05
4.8800926e-04
9.5918809e-04
1.2872475e-03
1.4375589e-03
1.3999761e-03
1.1811162e-03
8.0069841e-04
2.9364586e-04
-2.8495740e-04
-8.5768892e-04
-1.3308068e-03
-1.6108398e-03
-1.6292254e-03
-1.3673836e-03
-8.7171968e-04
-2.4962632e-04
3.5600645e-04
8.0733638e-04
1.0132777e-03
9.5597075e-04
6.9143263e-04
3.2602231e-04
-2.1349013e-05
-2.5842529e-04
-3.4570574e-04
-2.9935674e-04
-1.7195424e-04
-2.2352300e-05
1.1032004e-04
2.1782965e-04
3.1735992e-04
4.3533232e-04
5.8929136e-04
7.7471147e-04
9.5996773e-04
1.0901133e-03
1.0990096e-03
9.2831319e-04
5.4949418e-04
-1.8309977e-05
-7.0309237e-04
-1.3900036e-03
-1.9440066e-03
-2.2430278e-03
-2.2136880e-03
-1.8551386e-03
-1.2405130e-03
-4.9566654e-04
2.3577351e-04
8.2795963e-04
1.1979477e-03
1.3153230e-03
1.1977370e-03
8.9792054e-04
4.8849331e-04
4.8952091e-05
-3.4388521e-04
-6.2334609e-04
-7.4039112e-04
-6.7123743e-04
-4.2355497e-04
-3.9854554e-05
4.0513974e-04
8.1694800e-04
1.1028052e-03
1.1962031e-03
1.0761191e-03
7.7331553e-04
3.6049501e-04
-7.0565059e-05
-4.3651462e-04
-6.8441348e-04
-8.0061504e-04
-8.0482554e-04
-7.3391839e-04
-6.2365010e-04
-4.9582842e-04
-3.5485236e-04
-1.9321341e-04
-2.4795094e-06
2.1583609e-04
4.4461287e-04
6.5203534e-04
7.9826901e-04
8.4585321e-04
7.7004087e-04
5.6558093e-04
2.4850566e-04
-1.4624784e-04
-5.6935024e-04
-9.6214070e-04
-1.2622515e-03
-1.4112052e-03
-1.3650998e-03
-1.1070967e-03
-6.5735505e-04
-7.4936257e-05
5.5134069e-04
1.1211832e-03
1.5443120e-03
1.7589303e-03
1.7416378e-03
1.5059753e-03
1.0937360e-03
5.6537821e-04
-7.9507812e-06
-5.5150808e-04
-9.9486975e-04
-1.2812559e-03
-1.3769165e-03
-1.2778579e-03
-1.0111781e-03
-6.2974495e-04
-2.0135697e-04
2.0438161e-04
5.2774164e-04
7.2674041e-04
7.8101180e-04
6.9303014e-04
4.8752868e-04
2.0729070e-04
-9.5777874e-05
-3.7070849e-04
-5.7475949e-04
-6.7744459e-04
-6.6265407e-04
-5.3006777e-04
-2.9581525e-04
8.5533593e-06
3.3940888e-04
6.4636271e-04
8.7881566e-04
9.9333030e-04
9.6155043e-04
7.7762332e-04
4.6293762e-04
6.5558558e-05
-3.4720553e-04
-7.0210672e-04
-9.3565905e-04
-1.0090643e-03
-9.1849789e-04
-6.9530382e-04
-3.9541053e-04
-8.3038547e-05
1.8527379e-04
3.7165838e-04
4.6074900e-04
4.5695400e-04
3.7779662e-04
2.4658721e-04
8.6952819e-05
-7.9726087e-05
-2.3437165e-04
-3.5913151e-04
-4.3687524e-04
-4.5258874e-04
-3.9687375e-04
-2.7013139e-04
-8.4664005e-05
1.3714115e-04
3.6654201e-04
5.7168988e-04
7.2161842e-04
7.9158871e-04
7.6793580e-04
6.5085197e-04
4.5459615e-04
2.0530920e-04
-6.3051733e-05
-3.1394604e-04
-5.1373631e-04
-6.3648561e-04
-6.6741990e-04
-6.0477057e-04
-4.5984868e-04
-2.5534231e-04
-2.2257147e-05
2.0362147e-04
3.8515831e-04
4.8835154e-04
4.8816863e-04
3.7368698e-04
1.5246240e-04
-1.4559770e-04
-4.6772004e-04
-7.4477467e-04
-9.0593148e-04
-8.9819612e-04
-7.0400491e-04
-3.4974533e-04
9.8676545e-05
5.5203769e-04
9.2023785e-04
1.1337141e-03
1.1578599e-03
9.9766918e-04
6.9310520e-04
3.0784559e-04
-8.5231979e-05
-4.1970365e-04
-6.5011346e-04
-7.6024517e-04
-7.6136564e-04
-6.8186516e-04
-5.5326433e-04
-3.9849700e-04
-2.2691556e-04
-3.7300479e-05
1.7322965e-04
3.9881522e-04
6.1784388e-04
7.9278785e-04
8.7769653e-04
8.3139010e-04
6.3242368e-04
2.9104478e-04
-1.4628420e-04
-6.0259313e-04
-9.8633558e-04
-1.2144096e-03
-1.2350303e-03
-1.0416172e-03
-6.7378360e-04
-2.0674008e-04
2.6728057e-04
6.6036194e-04
9.0735469e-04
9.7703464e-04
8.7410586e-04
6.3304518e-04
3.0694052e-04
-4.4695254e-05
-3.6581831e-04
-6.0999122e-04
-7.4346549e-04
-7.4719613e-04
-6.1932514e-04
-3.7767495e-04
-5.9506016e-05
2.8457384e-04
6.0125280e-04
8.4475679e-04
9.8405072e-04
1.0059033e-03
9.1294947e-04
7.1824719e-04
4.3983065e-04
9.8564034e-05
-2.7971588e-04
-6.5992712e-04
-9.9565188e-04
-1.2332226e-03
-1.3229753e-03
-1.2343868e-03
-9.6875775e-04
-5.6334525e-04
-8.4531988e-05
3.8729414e-04
7.7547917e-04
1.0237373e-03
1.1080077e-03
1.0376326e-03
8.4583212e-04
5.7607298e-04
2.7055793e-04
-3.5949615e-05
-3.1690466e-04
-5.5133624e-04
-7.2051211e-04
-8.0645565e-04
-7.9366742e-04
-6.7350533e-04
-4.4929746e-04
-1.4036900e-04
2.1595398e-04
5.6524404e-04
8.4162393e-04
9.8011718e-04
9.3438483e-04
6.9264842e-04
2.8507985e-04
-2.1866866e-04
-7.2223236e-04
-1.1235421e-03
-1.3376999e-03
-1.3155251e-03
-1.0539665e-03
-5.9686706e-04
-2.6405362e-05
5.5301105e-04
1.0355086e-03
1.3353948e-03
1.4051664e-03
1.2451746e-03
9.0155824e-04
4.5236803e-04
-1.3829742e-05
-4.1930600e-04
-7.1113259e-04
-8.6536571e-04
-8.8275994e-04
-7.7850354e-04
-5.7243921e-04
-2.8636014e-04
5.1377487e-05
3.9943376e-04
7.0237594e-04
8.9886001e-04
9.3735464e-04
7.9307780e-04
4.7896534e-04
4.6195025e-05
-4.2599983e-04
-8.4781437e-04
-1.1382798e-03
-1.2414129e-03
-1.1359309e-03
-8.3793126e-04
-3.9707512e-04
1.1414348e-04
6.1568248e-04
1.0336225e-03
1.3095459e-03
1.4063172e-03
1.3107472e-03
1.0337986e-03
6.0885277e-04
8.8157388e-05
-4.6250968e-04
-9.7082376e-04
-1.3664121e-03
-1.5906241e-03
-1.6066733e-03
-1.4081461e-03
-1.0230831e-03
-5.1119441e-04
4.6472758e-05
5.6342619e-04
9.6472543e-04
1.2006616e-03
1.2542823e-03
1.1408491e-03
8.9990136e-04
5.8371196e-04
2.4608062e-04
-6.6297792e-05
-3.1914168e-04
-4.9245497e-04
-5.7919261e-04
-5.8165920e-04
-5.0739477e-04
-3.6647577e-04
-1.7150491e-04
5.9633447e-05
2.9981237e-04
5.1080743e-04
6.4734856e-04
6.6859257e-04
5.5361475e-04
3.1318707e-04
-8.6766996e-06
-3.4460982e-04
-6.2199470e-04
-7.8282513e-04
-7.9810717e-04
-6.7252228e-04
-4.3945573e-04
-1.4993662e-04
1.3991401e-04
3.7964146e-04
5.3228499e-04
5.7943307e-04
5.2348511e-04
3.8615032e-04
2.0206174e-04
8.1880579e-06
-1.6723745e-04
-3.1082540e-04
-4.2182536e-04
-5.0417917e-04
-5.5710390e-04
-5.6744991e-04
-5.1023669e-04
-3.6016312e-04
-1.0751097e-04
2.3077780e-04
6.1006553e-04
9.6651778e-04
1.2311470e-03
1.3450426e-03
1.2724273e-03
1.0089588e-03
5.8346689e-04
5.2808301e-05
-5.0864461e-04
-1.0222469e-03
-1.4182307e-03
-1.6462175e-03
-1.6811416e-03
-1.5240723e-03
-1.1993665e-03
-7.4969245e-04
-2.2930426e-04
3.0382354e-04
7.9568487e-04
1.2022448e-03
1.4925431e-03
1.6487124e-03
1.6638122e-03
1.5388692e-03
1.2804398e-03
8.9978932e-04
4.1449001e-04
-1.4753752e-04
-7.4305576e-04
-1.3109360e-03
-1.7759625e-03
-2.0611225e-03
-2.1062473e-03
-1.8868471e-03
-1.4260305e-03
-7.9393664e-04
-9.2686376e-05
5.6878234e-04
1.1004085e-03
1.4475272e-03
1.5932744e-03
1.5490606e-03
1.3407511e-03
9.9881195e-04
5.5652944e-04
5.4618441e-05
-4.5332844e-04
-9.0046490e-04
-1.2147636e-03
-1.3348778e-03
-1.2289782e-03
-9.0900829e-04
-4.3290353e-04
1.0888080e-04
6.1755090e-04
1.0100121e-03
1.2355965e-03
1.2826759e-03
1.1742134e-03
9.5433673e-04
6.7076706e-04
3.5923294e-04
3.5644422e-05
-3.0050846e-04
-6.5235551e-04
-1.0074769e-03
-1.3251426e-03
-1.5382052e-03
-1.5726505e-03
-1.3779680e-03
-9.5400249e-04
-3.6057547e-04
2.9536746e-04
8.9086512e-04
1.3234070e-03
1.5358018e-03
1.5209738e-03
1.3104603e-03
9.5618469e-04
5.1493718e-04
4.0571755e-05
-4.1675321e-04
-8.0866148e-04
-1.0887007e-03
-1.2170466e-03
-1.1691560e-03
-9.4515341e-04
-5.7552282e-04
-1.1931950e-04
3.4634994e-04
7.4307554e-04
1.0083104e-03
1.1064322e-03
1.0311949e-03
8.0226334e-04
4.5905455e-04
5.3776507e-05
-3.5508636e-04
-7.0901902e-04
-9.5636115e-04
-1.0597684e-03
-1.0027731e-03
-7.9322088e-04
-4.6175377e-04
-5.5216845e-05
3.7270097e-04
7.6979663e-04
1.0898203e-03
1.2933093e-03
1.3479484e-03
1.2320244e-03
9.4185294e-04
4.9997817e-04
-4.1689184e-05
-6.0709901e-04
-1.1080970e-03
-1.4606022e-03
-1.6020049e-03
-1.5055841e-03
-1.1877727e-03
-7.0564932e-04
-1.4487458e-04
3.9854824e-04
8.3736110e-04
1.1080497e-03
1.1792527e-03
1.0538381e-03
7.6614032e-04
3.7533917e-04
-4.4865394e-05
-4.1977826e-04
-6.8820691e-04
-8.1358286e-04
-7.8786394e-04
-6.2867337e-04
-3.7226253e-04
-6.3975495e-05
2.5115558e-04
5.3472220e-04
7.5728782e-04
8.9777775e-04
9.4153625e-04
8.7844941e-04
7.0240546e-04
4.1354499e-04
2.4173650e-05
-4.3314025e-04
-8.9996650e-04
-1.2950342e-03
-1.5295655e-03
-1.5326581e-03
-1.2778208e-03
-7.9838139e-04
-1.8289935e-04
4.4746320e-04
9.7007049e-04
1.2916820e-03
1.3700188e-03
1.2184120e-03
8.9369943e-04
4.7494062e-04
4.2564185e-05
-3.3575280e-04
-6.1154001e-04
-7.5707430e-04
-7.6509204e-04
-6.4775389e-04
-4.3402791e-04
-1.6449053e-04
1.1613311e-04
3.6688249e-04
5.5650609e-04
6.6561988e-04
6.8548646e-04
6.1607886e-04
4.6510159e-04
2.4726131e-04
-1.6904265e-05
-3.0222134e-04
-5.7954190e-04
-8.1615340e-04
-9.7739397e-04
-1.0312251e-03
-9.5597581e-04
-7.4881313e-04
-4.3090537e-04
-4.6239901e-05
3.4606779e-04
6.8339529e-04
9.1149314e-04
9.9392156e-04
9.1855000e-04
7.0154939e-04
3.8639566e-04
3.5259340e-05
-2.8437517e-04
-5.1360251e-04
-6.1386424e-04
-5.7398296e-04
-4.1063404e-04
-1.6231682e-04
1.2098694e-04
3.8891486e-04
5.9934664e-04
7.2312252e-04
7.4536772e-04
6.6477474e-04
4.9202135e-04
2.4800152e-04
-3.8051920e-05
-3.3114924e-04
-5.9471811e-04
-7.9674870e-04
-9.1634854e-04
-9.4575573e-04
-8.8559160e-04
-7.3925248e-04
-5.1225368e-04
-2.1643369e-04
1.2437652e-04
4.7146576e-04
7.7417838e-04
9.7907931e-04
1.0429582e-03
9.4552611e-04
6.9753471e-04
3.4139654e-04
-5.6433684e-05
-4.1969429e-04
-6.7960557e-04
-7.9068266e-04
-7.4083523e-04
-5.5296133e-04
-2.7773838e-04
2.0184248e-05
2.7880093e-04
4.5336423e-04
5.2455831e-04
4.9808603e-04
3.9668519e-04
2.4846536e-04
7.6883188e-05
-1.0329685e-04
-2.8304080e-04
-4.5207204e-04
-5.9300455e-04
-6.8066526e-04
-6.8750531e-04
-5.9284090e-04
-3.9213124e-04
-1.0283565e-04
2.3522565e-04
5.6576438e-04
8.2804330e-04
9.7167242e-04
9.6836665e-04
8.1810973e-04
5.4978964e-04
2.1608481e-04
-1.1711915e-04
-3.8524223e-04
-5.4043691e-04
-5.6374661e-04
-4.6967811e-04
-3.0053101e-04
-1.1141597e-04
4.8760514e-05
1.5229902e-04
1.9682145e-04
1.9713775e-04
1.7046823e-04
1.2436948e-04
5.4303772e-05
-4.9317857e-05
-1.9009153e-04
-3.5654318e-04
-5.1972942e-04
-6.3945829e-04
-6.7698793e-04
-6.0899467e-04
-4.3677102e-04
-1.8660093e-04
9.8564798e-05
3.7185616e-04
5.9377217e-04
7.3791164e-04
7.9077727e-04
7.4852320e-04
6.1451850e-04
4.0007536e-04
1.2769479e-04
-1.6634818e-04
-4.3361914e-04
-6.2154455e-04
-6.8680192e-04
-6.0870987e-04
-3.9680252e-04
-9.0105172e-05
2.5138187e-04
5.6046826e-04
7.7780801e-04
8.6368978e-04
8.0338349e-04
6.0571507e-04
2.9751773e-04
-8.2166357e-05
-4.8564020e-04
-8.5844508e-04
-1.1427407e-03
-1.2852650e-03
-1.2498109e-03
-1.0297841e-03
-6.5393045e-04
-1.8018838e-04
3.1987309e-04
7.7772460e-04
1.1396924e-03
1.3717759e-03
1.4578709e-03
1.3945347e-03
1.1864386e-03
8.4557238e-04
3.9473136e-04
-1.2716387e-04
-6.6239204e-04
-1.1386386e-03
-1.4814404e-03
-1.6318869e-03
-1.5631944e-03
-1.2894621e-03
-8.6311169e-04
-3.6254981e-04
1.2491385e-04
5.2180420e-04
7.7794656e-04
8.7914132e-04
8.4309094e-04
7.0710957e-04
5.1483163e-04
3.0710106e-04
1.1834273e-04
-2.3745093e-05
-9.8712175e-05
-9.6265979e-05
-2.0571096e-05
1.0755035e-04
2.5362137e-04
3.7787987e-04
4.4606094e-04
4.3834678e-04
3.5319013e-04
2.0525333e-04
1.8918783e-05
-1.8098089e-04
-3.7733901e-04
-5.6194254e-04
-7.2914717e-04
-8.6745836e-04
-9.5482702e-04
-9.6103639e-04
-8.5696769e-04
-6.2734267e-04
-2.8173615e-04
1.4117788e-04
5.7884091e-04
9.5843616e-04
1.2143466e-03
1.3032183e-03
1.2116531e-03
9.5535835e-04
5.7280963e-04
1.1831892e-04
-3.4285259e-04
-7.4077120e-04
-1.0118223e-03
-1.1107260e-03
-1.0199763e-03
-7.5546234e-04
-3.6562769e-04
7.7748309e-05
4.9572091e-04
8.2038698e-04
1.0087624e-03
1.0475786e-03
9.4827711e-04
7.3593428e-04
4.3843989e-04
8.1541226e-05
-3.0841755e-04
-6.9719976e-04
-1.0373860e-03
-1.2713489e-03
-1.3440103e-03
-1.2202366e-03
-8.9892898e-04
-4.1760271e-04
1.5482973e-04
7.3378183e-04
1.2367504e-03
1.5975373e-03
1.7741446e-03
1.7504512e-03
1.5334661e-03
1.1483627e-03
6.3304258e-04
3.3130811e-05
-6.0234444e-04
-1.2244968e-03
-1.7871992e-03
-2.2487643e-03
-2.5731315e-03
-2.7315476e-03
-2.7056803e-03
-2.4907786e-03
-2.0938451e-03
-1.5264009e-03
-8.0084291e-04
6.3938299e-05
1.0325608e-03
2.0473058e-03
3.0314832e-03
3.9003187e-03
4.5723558e-03
4.9745281e-03
5.0401635e-03
4.7070911e-03
3.9261481e-03
2.6845816e-03
1.0367291e-03
-8.7549170e-04
-2.8294555e-03
-4.5619878e-03
-5.8325110e-03
-6.4829602e-03
-6.4665237e-03
-5.8396002e-03
-4.7313212e-03
-3.3048324e-03
-1.7205605e-03
-1.1077310e-04
1.4279842e-03
2.8238892e-03
4.0077546e-03
4.8944677e-03
5.3835053e-03
5.3851048e-03
4.8629853e-03
3.8718685e-03
2.5670475e-03
1.1748069e-03
-6.9777204e-05
-9.9599172e-04
-1.5531285e-03
-1.8277101e-03
-2.0143193e-03
-2.3416939e-03
-2.9735661e-03
-3.9194405e-03
-4.9906691e-03
-5.8268086e-03
-5.9968363e-03
-5.1517958e-03
-3.1794993e-03
-3.0017550e-04
2.9463877e-03
5.8355014e-03
7.6766694e-03
8.0361144e-03
6.8717820e-03
4.5272923e-03
1.5990016e-03
-1.2525134e-03
-3.4664841e-03
-4.6929422e-03
-4.8479544e-03
-4.0892161e-03
-2.7228674e-03
-1.0957238e-03
4.8596096e-04
1.7979471e-03
2.7066929e-03
3.1598203e-03
3.1700013e-03
2.7976658e-03
2.1339808e-03
1.2850022e-03
3.5867689e-04
-5.4371111e-04
-1.3317890e-03
-1.9286006e-03
-2.2751033e-03
-2.3387729e-03
-2.1245762e-03
-1.6811859e-03
-1.0940990e-03
-4.6606051e-04
1.0632346e-04
5.5119396e-04
8.3038315e-04
9.3803400e-04
8.9247571e-04
7.2692124e-04
4.8319176e-04
2.0906482e-04
-4.3426835e-05
-2.2223891e-04
-2.8371388e-04
-2.0360572e-04
1.3244741e-05
3.2900670e-04
6.7746480e-04
9.7685505e-04
1.1477650e-03
1.1321325e-03
9.0905859e-04
5.0184541e-04
-2.7198363e-05
-5.9221061e-04
-1.1037573e-03
-1.4868115e-03
-1.6920404e-03
-1.6992736e-03
-1.5150953e-03
-1.1675407e-03
-7.0013311e-04
-1.6617983e-04
3.7664594e-04
8.7155050e-04
1.2675171e-03
1.5235885e-03
1.6125967e-03
1.5246686e-03
1.2703738e-03
8.8145839e-04
4.0616943e-04
-1.0005676e-04
-5.8359121e-04
-9.9746543e-04
-1.3021747e-03
-1.4652099e-03
-1.4624961e-03
-1.2831863e-03
-9.3643735e-04
-4.5656191e-04
9.7380611e-05
6.4961249e-04
1.1220827e-03
1.4510471e-03
1.6001488e-03
1.5654837e-03
1.3712907e-03
1.0587800e-03
6.7319098e-04
2.5321130e-04
-1.7475860e-04
-5.9523970e-04
-9.9552384e-04
-1.3547659e-03
-1.6364121e-03
-1.7899126e-03
-1.7638866e-03
-1.5264905e-03
-1.0836725e-03
-4.8607252e-04
1.7944084e-04
8.1059702e-04
1.3147701e-03
1.6288638e-03
1.7277044e-03
1.6203769e-03
1.3393439e-03
9.2962038e-04
4.4330675e-04
-6.2884604e-05
-5.3231474e-04
-9.1385574e-04
-1.1657665e-03
-1.2592310e-03
-1.1822069e-03
-9.4286004e-04
-5.7124043e-04
-1.1781132e-04
3.5206219e-04
7.6757156e-04
1.0643713e-03
1.1961385e-03
1.1427307e-03
9.1304794e-04
5.4254114e-04
8.6689136e-05
-3.8777386e-04
-8.1232212e-04
-1.1259505e-03
-1.2845677e-03
-1.2681357e-03
-1.0819963e-03
-7.5455075e-04
-3.3422165e-04
1.1576075e-04
5.2655172e-04
8.3613481e-04
1.0018908e-03
1.0094767e-03
8.7522302e-04
6.4119850e-04
3.6416721e-04
1.0133928e-04
-1.0330570e-04
-2.2845059e-04
-2.7800464e-04
-2.7605164e-04
-2.5586368e-04
-2.4689012e-04
-2.6443811e-04
-3.0500583e-04
-3.4807329e-04
-3.6412167e-04
-3.2657817e-04
-2.2347493e-04
-6.4554612e-05
1.1920386e-04
2.8403117e-04
3.8686809e-04
3.9886864e-04
3.1420011e-04
1.5178058e-04
-4.9650627e-05
-2.4086987e-04
-3.7312150e-04
-4.0839994e-04
-3.2759288e-04
-1.3551656e-04
1.3826679e-04
4.4426368e-04
7.2303949e-04
9.1734048e-04
9.8350211e-04
8.9993814e-04
6.7054990e-04
3.2219153e-04
-1.0231744e-04
-5.5219056e-04
-9.7448140e-04
-1.3171107e-03
-1.5314186e-03
-1.5772477e-03
-1.4315591e-03
-1.0983302e-03
-6.1495860e-04
-5.0220826e-05
5.0819805e-04
9.7360360e-04
1.2805937e-03
1.3989311e-03
1.3368853e-03
1.1330332e-03
8.4050912e-04
5.1112929e-04
1.8541452e-04
-1.0946397e-04
-3.5587479e-04
-5.4032031e-04
-6.5027143e-04
-6.7487111e-04
-6.0871543e-04
-4.5650541e-04
-2.3609178e-04
2.2184467e-05
2.8084499e-04
5.0404911e-04
6.6602913e-04
7.5489178e-04
7.6959865e-04
7.1209991e-04
5.8067343e-04
3.6959913e-04
7.5444679e-05
-2.9315052e-04
-7.0719154e-04
-1.1158367e-03
-1.4543402e-03
-1.6596841e-03
-1.6882264e-03
-1.5280803e-03
-1.2007204e-03
-7.5117356e-04
-2.3200731e-04
3.1016844e-04
8.3841432e-04
1.3184270e-03
1.7075764e-03
1.9509662e-03
1.9917434e-03
1.7914412e-03
1.3496646e-03
7.1526301e-04
-1.6936234e-05
-7.2527703e-04
-1.2899262e-03
-1.6209988e-03
-1.6771879e-03
-1.4701733e-03
-1.0554822e-03
-5.1481485e-04
6.3392633e-05
5.9942939e-04
1.0309327e-03
1.3150404e-03
1.4267417e-03
1.3567781e-03
1.1115163e-03
7.1529106e-04
2.1303561e-04
-3.3160089e-04
-8.4388310e-04
-1.2479385e-03
-1.4787971e-03
-1.4965921e-03
-1.2981516e-03
-9.1999882e-04
-4.2989098e-04
9.0571113e-05
5.6529479e-04
9.3743373e-04
1.1734131e-03
1.2584660e-03
1.1891168e-03
9.6902212e-04
6.1180271e-04
1.4926274e-04
-3.6152771e-04
-8.4021562e-04
-1.1982039e-03
-1.3634250e-03
-1.3040582e-03
-1.0388202e-03
-6.2953016e-04
-1.6083762e-04
2.8405580e-04
6.4287693e-04
8.8328829e-04
1.0006452e-03
1.0083291e-03
9.2670289e-04
7.7558715e-04
5.7178884e-04
3.3019964e-04
6.6052848e-05
-2.0321988e-04
-4.5697684e-04
-6.7136194e-04
-8.2090467e-04
-8.8255522e-04
-8.4224014e-04
-7.0166650e-04
-4.8139650e-04
-2.1795837e-04
4.4449824e-05
2.6513839e-04
4.1689638e-04
4.9069660e-04
4.9346355e-04
4.4065564e-04
3.4765692e-04
2.2396128e-04
7.2521035e-05
-1.0552206e-04
-3.0280979e-04
-4.9860593e-04
-6.5728892e-04
-7.3522392e-04
-6.9438721e-04
-5.1696609e-04
-2.1488126e-04
1.6845379e-04
5.6555438e-04
9.0177849e-04
1.1163229e-03
1.1783783e-03
1.0924710e-03
8.9235850e-04
6.2727222e-04
3.4636511e-04
8.6740962e-05
-1.3199624e-04
-3.0679692e-04
-4.4599063e-04
-5.6230955e-04
-6.6578429e-04
-7.5769512e-04
-8.2709451e-04
-8.5200655e-04
-8.0661647e-04
-6.7172713e-04
-4.4349294e-04
-1.3801467e-04
2.0921504e-04
5.4905373e-04
8.2750379e-04
9.9499349e-04
1.0146139e-03
8.6893794e-04
5.6544551e-04
1.3985657e-04
-3.4463705e-04
-8.0485152e-04
-1.1530064e-03
-1.3176604e-03
-1.2637570e-03
-1.0037197e-03
-5.9426083e-04
-1.1972725e-04
3.3169036e-04
6.9170828e-04
9.2807104e-04
1.0455396e-03
1.0720595e-03
1.0389898e-03
9.6536123e-04
8.5193973e-04
6.8537705e-04
4.4902811e-04
1.3570584e-04
-2.4211216e-04
-6.4799431e-04
-1.0248663e-03
-1.3056032e-03
-1.4285987e-03
-1.3544672e-03
-1.0794372e-03
-6.4158932e-04
-1.1764933e-04
3.9036821e-04
7.7932716e-04
9.7529211e-04
9.5660813e-04
7.5917386e-04
4.6236959e-04
1.6063690e-04
-6.8572658e-05
-1.8759675e-04
-2.0315919e-04
-1.5248101e-04
-7.9515614e-05
-1.3940225e-05
3.7587497e-05
8.6263766e-05
1.4774012e-04
2.2885807e-04
3.2065315e-04
3.9938134e-04
4.3384605e-04
3.9564320e-04
2.6848087e-04
5.4076151e-05
-2.2570739e-04
-5.3027981e-04
-8.0542338e-04
-9.9224628e-04
-1.0395521e-03
-9.1758046e-04
-6.2938006e-04
-2.1540786e-04
2.5193206e-04
6.8393107e-04
9.9723796e-04
1.1342803e-03
1.0755204e-03
8.4045675e-04
4.7917360e-04
5.9224589e-05
-3.4746043e-04
-6.7519204e-04
-8.7360134e-04
-9.1571495e-04
-8.0209003e-04
-5.5959693e-04
-2.3580903e-04
1.1035426e-04
4.2035267e-04
6.4741264e-04
7.6438819e-04
7.6572809e-04
6.6323539e-04
4.7782762e-04
2.3133421e-04
-5.7518549e-05
-3.7086008e-04
-6.8473636e-04
-9.6238480e-04
-1.1535635e-03
-1.2034195e-03
-1.0692833e-03
-7.3823992e-04
-2.3850821e-04
3.5903000e-04
9.5227551e-04
1.4309773e-03
1.7032379e-03
1.7160182e-03
1.4637510e-03
9.8470624e-04
3.4944855e-04
-3.5264318e-04
-1.0245770e-03
-1.5700970e-03
-1.9017507e-03
-1.9518592e-03
-1.6870611e-03
-1.1228741e-03
-3.3158113e-04
5.6291820e-04
1.4058899e-03
2.0459990e-03
2.3714782e-03
2.3317038e-03
1.9390475e-03
1.2568165e-03
3.8151172e-04
-5.7255563e-04
-1.4827017e-03
-2.2244079e-03
-2.6815115e-03
-2.7642580e-03
-2.4330680e-03
-1.7195351e-03
-7.3347028e-04
3.5220573e-04
1.3385714e-03
2.0494458e-03
2.3749143e-03
2.2943026e-03
1.8718994e-03
1.2290268e-03
5.0458323e-04
-1.7955290e-04
-7.3676220e-04
-1.1174036e-03
-1.3020196e-03
-1.2944675e-03
-1.1183205e-03
-8.1437087e-04
-4.3535348e-04
-3.6788973e-05
3.3295997e-04
6.3868809e-04
8.5804561e-04
9.7688624e-04
9.8498681e-04
8.7615971e-04
6.5341503e-04
3.3624748e-04
-3.5028982e-05
-4.0368665e-04
-7.0989287e-04
-9.0515636e-04
-9.6197840e-04
-8.7780032e-04
-6.7371042e-04
-3.8901871e-04
-7.3035183e-05
2.2442631e-04
4.6184001e-04
6.1191313e-04
6.6336769e-04
6.1889949e-04
4.9115654e-04
2.9901868e-04
6.5603891e-05
-1.8219956e-04
-4.1417143e-04
-5.9870153e-04
-7.0659214e-04
-7.1598594e-04
-6.1700395e-04
-4.1468039e-04
-1.3003638e-04
2.0047809e-04
5.2784608e-04
7.9667721e-04
9.5503992e-04
9.6653009e-04
8.2115750e-04
5.4069312e-04
1.7542764e-04
-2.0745789e-04
-5.4024163e-04
-7.7014381e-04
-8.6880879e-04
-8.3336840e-04
-6.8061341e-04
-4.3897938e-04
-1.4282450e-04
1.7100791e-04
4.6496613e-04
6.9998316e-04
8.3614952e-04
8.3962410e-04
6.9420849e-04
4.1183313e-04
3.5836101e-05
-3.6608869e-04
-7.1768728e-04
-9.5315332e-04
-1.0325841e-03
-9.4903285e-04
-7.2603938e-04
-4.0795606e-04
-4.7176198e-05
3.0741498e-04
6.1738530e-04
8.5584592e-04
1.0042582e-03
1.0480904e-03
9.7373459e-04
7.6955193e-04
4.3414966e-04
-1.0728811e-05
-5.1139010e-04
-9.8534727e-04
-1.3382835e-03
-1.4895856e-03
-1.3969164e-03
-1.0705080e-03
-5.7186845e-04
2.6702421e-06
5.4776848e-04
9.7512847e-04
1.2308545e-03
1.2995388e-03
1.1970287e-03
9.5876572e-04
6.3032762e-04
2.6053239e-04
-1.0434869e-04
-4.2350951e-04
-6.6361685e-04
-8.0349278e-04
-8.3920265e-04
-7.8397017e-04
-6.5991124e-04
-4.8484339e-04
-2.6266312e-04
1.4691684e-05
3.5269674e-04
7.3495306e-04
1.1109003e-03
1.3987831e-03
1.5047587e-03
1.3527432e-03
9.1604414e-04
2.3973696e-04
-5.5764220e-04
-1.3094722e-03
-1.8468420e-03
-2.0471091e-03
-1.8683704e-03
-1.3593702e-03
-6.4247701e-04
1.2304711e-04
7.8369697e-04
1.2258584e-03
1.3924319e-03
1.2816728e-03
9.3525773e-04
4.2445011e-04
-1.6064704e-04
-7.1967016e-04
-1.1525013e-03
-1.3743313e-03
-1.3336164e-03
-1.0275020e-03
-5.0754382e-04
1.3036302e-04
7.6958103e-04
1.2990200e-03
1.6335102e-03
1.7250524e-03
1.5651553e-03
1.1813067e-03
6.3095772e-04
-5.3824059e-06
-6.3252521e-04
-1.1521507e-03
-1.4784720e-03
-1.5563080e-03
-1.3764791e-03
-9.8176454e-04
-4.5863951e-04
8.4734534e-05
5.4773100e-04
8.6292309e-04
1.0073587e-03
9.9580992e-04
8.6222185e-04
6.4000508e-04
3.5157042e-04
1.2122780e-05
-3.5692231e-04
-7.1585038e-04
-1.0055462e-03
-1.1600274e-03
-1.1275216e-03
-8.9066122e-04
-4.7679323e-04
4.6114582e-05
5.8598557e-04
1.0482912e-03
1.3546041e-03
1.4536368e-03
1.3259851e-03
9.8676463e-04
4.8748449e-04
-8.8967679e-05
-6.4473943e-04
-1.0885393e-03
-1.3542338e-03
-1.4119712e-03
-1.2694383e-03
-9.6463864e-04
-5.5418436e-04
-1.0099915e-04
3.3601098e-04
7.0882944e-04
9.8311141e-04
1.1374393e-03
1.1608595e-03
1.0510432e-03
8.1482560e-04
4.7124690e-04
5.5104886e-05
-3.8235855e-04
-7.7858259e-04
-1.0713883e-03
-1.2130235e-03
-1.1800270e-03
-9.7724303e-04
-6.3697643e-04
-2.1330111e-04
2.2782190e-04
6.2054183e-04
9.1026507e-04
1.0613460e-03
1.0602248e-03
9.1461257e-04
6.5030171e-04
3.0715722e-04
-6.5102599e-05
-4.1199260e-04
-6.8129093e-04
-8.3191025e-04
-8.4246051e-04
-7.1614582e-04
-4.7959508e-04
-1.7598302e-04
1.4474778e-04
4.3515922e-04
6.5670217e-04
7.8253847e-04
7.9766140e-04
6.9802248e-04
4.9038832e-04
1.9373432e-04
-1.5871657e-04
-5.1928600e-04
-8.3010132e-04
-1.0326543e-03
-1.0806865e-03
-9.5243544e-04
-6.5817819e-04
-2.4060647e-04
2.3198798e-04
6.7798027e-04
1.0188848e-03
1.1962691e-03
1.1822656e-03
9.8219761e-04
6.3244502e-04
1.9488700e-04
-2.5288461e-04
-6.3235774e-04
-8.8195728e-04
-9.7242653e-04
-9.1293106e-04
-7.4397251e-04
-5.1917727e-04
-2.8395077e-04
-6.1427276e-05
1.4694189e-04
3.4667296e-04
5.3062353e-04
6.6789483e-04
7.1043260e-04
6.1472131e-04
3.6735508e-04
2.0541539e-06
-4.0231880e-04
-7.4429046e-04
-9.3283639e-04
-9.1658381e-04
-6.9802478e-04
-3.2901824e-04
1.0843575e-04
5.2716058e-04
8.5584083e-04
1.0500242e-03
1.0927008e-03
9.8873754e-04
7.5862976e-04
4.3474483e-04
5.9668649e-05
-3.1586791e-04
-6.3788583e-04
-8.5821360e-04
-9.4524889e-04
-8.9089540e-04
-7.1167701e-04
-4.4528306e-04
-1.4327893e-04
1.3953488e-04
3.5755713e-04
4.8507142e-04
5.2068690e-04
4.8294818e-04
3.9884076e-04
2.9092241e-04
1.6966058e-04
3.4560225e-05
-1.1720343e-04
-2.7981379e-04
-4.3178801e-04
-5.3732844e-04
-5.5649968e-04
-4.6002376e-04
-2.4172472e-04
7.6234058e-05
4.4536532e-04
7.9804783e-04
1.0584020e-03
1.1561122e-03
1.0422613e-03
7.0468678e-04
1.7836739e-04
-4.5427282e-04
-1.0762096e-03
-1.5606392e-03
-1.8019505e-03
-1.7438552e-03
-1.3953001e-03
-8.2797838e-04
-1.5577979e-04
4.9597639e-04
1.0200298e-03
1.3482667e-03
1.4606699e-03
1.3787585e-03
1.1481508e-03
8.2081842e-04
4.4424840e-04
5.9130763e-05
-2.9772210e-04
-5.9076604e-04
-7.8737527e-04
-8.6362005e-04
-8.1057880e-04
-6.3723042e-04
-3.6860978e-04
-4.1098897e-05
3.0218594e-04
6.1464985e-04
8.4948510e-04
9.6516440e-04
9.3320200e-04
7.4514559e-04
4.1590236e-04
-1.6882244e-05
-4.9642263e-04
-9.5277850e-04
-1.3116521e-03
-1.5066822e-03
-1.4941465e-03
-1.2661381e-03
-8.5659488e-04
-3.3586649e-04
2.0619619e-04
6.8335969e-04
1.0336859e-03
1.2298480e-03
1.2760949e-03
1.1954322e-03
1.0149576e-03
7.5718350e-04
4.4079314e-04
8.6857695e-05
-2.7569986e-04
-6.0775499e-04
-8.6290268e-04
-9.9681216e-04
-9.7970426e-04
-8.0675980e-04
-5.0238653e-04
-1.1694189e-04
2.8273261e-04
6.2604944e-04
8.5172371e-04
9.1894021e-04
8.1515799e-04
5.5938702e-04
1.9991163e-04
-1.9410308e-04
-5.4645106e-04
-7.9049452e-04
-8.8400821e-04
-8.1786629e-04
-6.1641842e-04
-3.2965821e-04
-1.9373193e-05
2.5627832e-04
4.5474928e-04
5.5468606e-04
5.5519601e-04
4.7099659e-04
3.2626412e-04
1.4947871e-04
-2.9750918e-05
-1.8249604e-04
-2.8250311e-04
-3.0961724e-04
-2.5468742e-04
-1.2462420e-04
5.4894123e-05
2.4197269e-04
3.8790621e-04
4.5175092e-04
4.1409506e-04
2.8324892e-04
9.1709413e-05
-1.1474535e-04
-2.9113745e-04
-4.0590992e-04
-4.4822326e-04
-4.2770524e-04
-3.6701632e-04
-2.9075575e-04
-2.1610265e-04
-1.4932640e-04
-8.8507156e-05
-2.9242883e-05
3.0840564e-05
9.1073225e-05
1.4943695e-04
2.0411431e-04
2.5246928e-04
2.8800659e-04
2.9859903e-04
2.6859028e-04
1.8495262e-04
4.5781916e-05
-1.3289264e-04
-3.1699048e-04
-4.6293896e-04
-5.3155800e-04
-5.0049614e-04
-3.6950347e-04
-1.5726018e-04
1.0693226e-04
3.9128611e-04
6.6555036e-04
9.0051206e-04
1.0658856e-03
1.1305202e-03
1.0670505e-03
8.5979744e-04
5.1269029e-04
5.4767404e-05
-4.5899639e-04
-9.5425065e-04
-1.3508972e-03
-1.5800242e-03
-1.5997478e-03
-1.4060291e-03
-1.0353920e-03
-5.5799392e-04
-6.1883292e-05
3.6783565e-04
6.6890186e-04
8.1444668e-04
8.1404468e-04
7.0351814e-04
5.2845102e-04
3.2893518e-04
1.3207344e-04
-4.5335408e-05
-1.8817512e-04
-2.7615371e-04
-2.8305784e-04
-1.8335613e-04
3.5342981e-05
3.5990940e-04
7.4653811e-04
1.1266159e-03
1.4220728e-03
1.5642973e-03
1.5093670e-03
1.2446228e-03
7.8623329e-04
1.7174457e-04
-5.4672342e-04
-1.3048440e-03
-2.0245163e-03
-2.6131585e-03
-2.9702713e-03
-3.0052462e-03
-2.6648331e-03
-1.9629935e-03
-9.9810118e-04
6.1458204e-05
1.0265693e-03
1.7494013e-03
2.1650435e-03
2.2915274e-03
2.1932265e-03
1.9343070e-03
1.5515619e-03
1.0600561e-03
4.8270508e-04
-1.1993174e-04
-6.4312621e-04
-9.6426031e-04
-9.9223942e-04
-7.1621999e-04
-2.2769595e-04
2.9905294e-04
6.6455527e-04
7.1723786e-04
4.0947803e-04
-1.8756837e-04
-9.1378752e-04
-1.5790233e-03
-2.0255431e-03
-2.1701287e-03
-2.0135280e-03
-1.6202315e-03
-1.0828142e-03
-4.8814230e-04
1.0206860e-04
6.5301662e-04
1.1462872e-03
1.5666111e-03
1.8939462e-03
2.1038307e-03
2.1738341e-03
2.0917457e-03
1.8612687e-03
1.5017180e-03
1.0425729e-03
5.1863878e-04
-3.0480224e-05
-5.5836877e-04
-1.0118887e-03
-1.3372881e-03
-1.4924529e-03
-1.4607119e-03
-1.2590407e-03
-9.3522622e-04
-5.5409353e-04
-1.7898416e-04
1.4280398e-04
3.8481611e-04
5.3700484e-04
5.9774430e-04
5.6853676e-04
4.5373760e-04
2.6292876e-04
1.3201722e-05
-2.6928326e-04
-5.4912645e-04
-7.8363437e-04
-9.2735149e-04
-9.4004479e-04
-7.9805634e-04
-5.0621264e-04
-1.0481181e-04
3.3383600e-04
7.2112406e-04
9.7610999e-04
1.0491777e-03
9.3617447e-04
6.7720304e-04
3.4028116e-04
-3.3093866e-06
-3.0071935e-04
-5.2634953e-04
-6.7669833e-04
-7.5707824e-04
-7.6763188e-04
-6.9801200e-04
-5.3505745e-04
-2.7756873e-04
5.1857288e-05
4.0514829e-04
7.1815232e-04
9.2647774e-04
9.8124510e-04
8.6015120e-04
5.7278962e-04
1.6137563e-04
-3.0260658e-04
-7.2748287e-04
-1.0183626e-03
-1.1009232e-03
-9.4520775e-04
-5.7896198e-04
-8.2734296e-05
4.3319367e-04
8.6198833e-04
1.1303626e-03
1.2130427e-03
1.1271371e-03
9.1275747e-04
6.1250780e-04
2.6064999e-04
-1.1516285e-04
-4.8516780e-04
-8.1105196e-04
-1.0482669e-03
-1.1569834e-03
-1.1157547e-03
-9.3026621e-04
-6.3250200e-04
-2.7120661e-04
1.0061355e-04
4.3470854e-04
6.9218122e-04
8.4606849e-04
8.8189197e-04
7.9719341e-04
6.0244031e-04
3.2310001e-04
5.1737945e-07
-3.1103704e-04
-5.5246705e-04
-6.7226457e-04
-6.4012468e-04
-4.5718147e-04
-1.5872188e-04
1.9219448e-04
5.1837665e-04
7.4528235e-04
8.1666565e-04
7.0619477e-04
4.2354487e-04
1.3595812e-05
-4.5303950e-04
-8.9492502e-04
-1.2332442e-03
-1.4031664e-03
-1.3652668e-03
-1.1152439e-03
-6.8811493e-04
-1.5346377e-04
3.9889296e-04
8.7934497e-04
1.2185643e-03
1.3806695e-03
1.3656734e-03
1.2015520e-03
9.3022634e-04
5.9401732e-04
2.2829626e-04
-1.3816511e-04
-4.7886849e-04
-7.6682964e-04
-9.7537176e-04
-1.0807005e-03
-1.0652652e-03
-9.2228762e-04
-6.6058284e-04
-3.0744973e-04
9.2352711e-05
4.8232584e-04
8.0397888e-04
1.0085154e-03
1.0671684e-03
9.7667540e-04
7.5801850e-04
4.4954807e-04
9.8020247e-05
-2.4879570e-04
-5.4641082e-04
-7.5609816e-04
-8.4835134e-04
-8.0868588e-04
-6.4323564e-04
-3.8026579e-04
-6.6121683e-05
2.4390213e-04
4.9713580e-04
6.5342440e-04
6.9073811e-04
6.0646761e-04
4.1578246e-04
1.4841598e-04
-1.5541608e-04
-4.4990492e-04
-6.8953589e-04
-8.3573595e-04
-8.6315202e-04
-7.6387498e-04
-5.4843136e-04
-2.4378948e-04
1.1008386e-04
4.6407175e-04
7.6590488e-04
9.6842596e-04
1.0362700e-03
9.5040174e-04
7.1251361e-04
3.4852144e-04
-9.1503021e-05
-5.3926593e-04
-9.2024038e-04
-1.1691556e-03
-1.2444945e-03
-1.1373605e-03
-8.7194573e-04
-4.9795890e-04
-7.8166013e-05
3.2483525e-04
6.5947036e-04
8.9232139e-04
1.0114541e-03
1.0259583e-03
9.6148579e-04
8.5244016e-04
7.3261215e-04
6.2619238e-04
5.4086889e-04
4.6460963e-04
3.6768795e-04
2.1112412e-04
-3.8937888e-05
-3.9435073e-04
-8.3173863e-04
-1.2894925e-03
-1.6785729e-03
-1.9052531e-03
-1.8986254e-03
-1.6332734e-03
-1.1390982e-03
-4.9500634e-04
1.9083286e-04
8.0706547e-04
1.2655929e-03
1.5223786e-03
1.5830597e-03
1.4900110e-03
1.2989040e-03
1.0565486e-03
7.8873628e-04
5.0081795e-04
1.8819333e-04
-1.4926091e-04
-4.9541449e-04
-8.1392402e-04
-1.0542596e-03
-1.1660370e-03
-1.1164567e-03
-9.0384048e-04
-5.6128885e-04
-1.4855541e-04
2.6418300e-04
6.1317072e-04
8.5341631e-04
9.6489668e-04
9.5037882e-04
8.2589268e-04
6.1030391e-04
3.2031553e-04
-2.6845878e-05
-4.0574478e-04
-7.7609358e-04
-1.0829959e-03
-1.2661453e-03
-1.2751806e-03
-1.0855261e-03
-7.0922757e-04
-1.9738346e-04
3.6671741e-04
8.8243615e-04
1.2516514e-03
1.3996697e-03
1.2926611e-03
9.4728257e-04
4.2917452e-04
-1.6003816e-04
-7.0356425e-04
-1.0928500e-03
-1.2488651e-03
-1.1373042e-03
-7.7492627e-04
-2.2600300e-04
4.1016344e-04
1.0180102e-03
1.4870376e-03
1.7314766e-03
1.7044186e-03
1.4039895e-03
8.7143224e-04
1.8283929e-04
-5.6331237e-04
-1.2612713e-03
-1.8142969e-03
-2.1497336e-03
-2.2282901e-03
-2.0449050e-03
-1.6254034e-03
-1.0230800e-03
-3.1392485e-04
4.1232144e-04
1.0656857e-03
1.5708755e-03
1.8785686e-03
1.9694261e-03
1.8506887e-03
1.5484293e-03
1.0996779e-03
5.4767392e-04
-5.8731957e-05
-6.6312847e-04
-1.2007057e-03
-1.6023347e-03
-1.8049412e-03
-1.7663423e-03
-1.4790834e-03
-9.7657313e-04
-3.2978487e-04
3.6296914e-04
9.9114425e-04
1.4506740e-03
1.6640683e-03
1.5976136e-03
1.2702004e-03
7.4984650e-04
1.3810827e-04
-4.5293773e-04
-9.2417025e-04
-1.2073063e-03
-1.2741070e-03
-1.1366693e-03
-8.4027401e-04
-4.5144983e-04
-4.4541496e-05
3.1167433e-04
5.6656892e-04
6.9590486e-04
7.0250282e-04
6.1011025e-04
4.5368499e-04
2.6960164e-04
8.8314220e-05
-6.9605075e-05
-1.9441684e-04
-2.8575646e-04
-3.4877211e-04
-3.8781270e-04
-3.9938560e-04
-3.6866474e-04
-2.7381363e-04
-9.7981361e-05
1.5680507e-04
4.6132854e-04
7.6063672e-04
9.8504291e-04
1.0674047e-03
9.6167376e-04
6.5770102e-04
1.8812247e-04
-3.7531840e-04
-9.3551640e-04
-1.3900956e-03
-1.6529238e-03
-1.6726002e-03
-1.4439536e-03
-1.0092263e-03
-4.4793591e-04
1.4176022e-04
6.6454509e-04
1.0466274e-03
1.2480090e-03
1.2667514e-03
1.1350484e-03
9.0834648e-04
6.5013263e-04
4.1583262e-04
2.4067209e-04
1.3601338e-04
9.3993328e-05
9.6041734e-05
1.2059653e-04
1.4740911e-04
1.5837843e-04
1.3660441e-04
6.5853008e-05
-6.7847276e-05
-2.7176850e-04
-5.3985105e-04
-8.4607615e-04
-1.1413932e-03
-1.3581232e-03
-1.4241477e-03
-1.2851110e-03
-9.2737844e-04
-3.9084056e-04
2.3329431e-04
8.1768619e-04
1.2276598e-03
1.3600129e-03
1.1779530e-03
7.2707215e-04
1.2474612e-04
-4.7349358e-04
-9.1802496e-04
-1.1043432e-03
-9.9596459e-04
-6.2693661e-04
-8.6859921e-05
5.0461836e-04
1.0262567e-03
1.3806336e-03
1.5126100e-03
1.4183683e-03
1.1429478e-03
7.6400554e-04
3.6381218e-04
9.3676462e-07
-3.0375664e-04
-5.6035436e-04
-7.8787942e-04
-9.9057353e-04
-1.1464501e-03
-1.2147201e-03
-1.1573534e-03
-9.6147268e-04
-6.4937141e-04
-2.7173759e-04
1.0965706e-04
4.3893948e-04
6.7562554e-04
7.9685480e-04
7.9699453e-04
6.8760142e-04
4.9656617e-04
2.6431936e-04
3.6846912e-05
-1.4385622e-04
-2.5012952e-04
-2.7566241e-04
-2.3526899e-04
-1.5718564e-04
-7.1454011e-05
3.5184317e-07
4.9566435e-05
7.7541732e-05
8.7960435e-05
7.9694864e-05
4.5162026e-05
-2.4404707e-05
-1.2990339e-04
-2.5739584e-04
-3.7805313e-04
-4.5552715e-04
-4.5696139e-04
-3.6326206e-04
-1.7650829e-04
7.7508709e-05
3.5420225e-04
6.0168407e-04
7.7424309e-04
8.4316700e-04
8.0220445e-04
6.6687866e-04
4.6817999e-04
2.4251715e-04
2.1284356e-05
-1.7616642e-04
-3.4377230e-04
-4.8427193e-04
-6.0111529e-04
-6.9021715e-04
-7.3560114e-04
-7.1229785e-04
-5.9677346e-04
-3.7994756e-04
-7.7388913e-05
2.6625102e-04
5.8292624e-04
7.9825979e-04
8.5410247e-04
7.2809652e-04
4.4318744e-04
6.3710432e-05
-3.2088154e-04
-6.1986731e-04
-7.6586214e-04
-7.3318630e-04
-5.4442799e-04
-2.6248232e-04
3.0336450e-05
2.5955498e-04
3.8228070e-04
3.9808325e-04
3.4247552e-04
2.6560963e-04
2.0583404e-04
1.7121176e-04
1.3848529e-04
6.9696897e-05
-6.2735817e-05
-2.5595676e-04
-4.7187052e-04
-6.4942864e-04
-7.2742427e-04
-6.6725659e-04
-4.6670977e-04
-1.6086853e-04
1.8827929e-04
5.0856398e-04
7.3507343e-04
8.2425872e-04
7.6275383e-04
5.7021552e-04
2.9568338e-04
6.7263906e-06
-2.2725232e-04
-3.5263603e-04
-3.4500989e-04
-2.1459802e-04
-1.4045155e-06
2.3866030e-04
4.5128073e-04
5.9781344e-04
6.6067826e-04
6.3913534e-04
5.3940608e-04
3.6602848e-04
1.2038076e-04
-1.9237113e-04
-5.5238738e-04
-9.1801731e-04
-1.2286587e-03
-1.4186750e-03
-1.4376530e-03
-1.2686358e-03
-9.3626514e-04
-5.0134702e-04
-4.3939737e-05
3.5923236e-04
6.5539105e-04
8.2705424e-04
8.8993837e-04
8.7846628e-04
8.2544562e-04
7.4551802e-04
6.3059651e-04
4.5989720e-04
2.1974287e-04
-7.7249400e-05
-3.8457147e-04
-6.3167439e-04
-7.4848862e-04
-6.9387984e-04
-4.7421994e-04
-1.4199254e-04
2.2418709e-04
5.4559930e-04
7.6310032e-04
8.4506966e-04
7.8524789e-04
5.9672872e-04
3.0797059e-04
-3.7711334e-05
-3.8262556e-04
-6.6045210e-04
-8.0968500e-04
-7.9152393e-04
-6.0473894e-04
-2.9020024e-04
7.8089812e-05
4.1302009e-04
6.3851828e-04
7.0922116e-04
6.1886767e-04
3.9574466e-04
8.8943494e-05
-2.4793912e-04
-5.6848529e-04
-8.3653191e-04
-1.0226385e-03
-1.0999502e-03
-1.0449042e-03
-8.4409968e-04
-5.0397479e-04
-5.7493072e-05
4.3702987e-04
9.0620181e-04
1.2777909e-03
1.4968313e-03
1.5354060e-03
1.3930148e-03
1.0896230e-03
6.5772258e-04
1.3941655e-04
-4.1186014e-04
-9.3000674e-04
-1.3394562e-03
-1.5665116e-03
-1.5585606e-03
-1.3039120e-03
-8.4252198e-04
-2.6111328e-04
3.2719082e-04
8.1194387e-04
1.1127868e-03
1.1958362e-03
1.0747252e-03
7.9839097e-04
4.3241646e-04
4.1847625e-05
-3.1913304e-04
-6.0987491e-04
-8.0156153e-04
-8.7560644e-04
-8.2482135e-04
-6.5664750e-04
-3.9510508e-04
-7.8817833e-05
2.4521157e-04
5.3044114e-04
7.3917531e-04
8.4741359e-04
8.4485712e-04
7.3161231e-04
5.1527580e-04
2.1167537e-04
-1.5064121e-04
-5.2596951e-04
-8.5254492e-04
-1.0626127e-03
-1.1001436e-03
-9.4009836e-04
-6.0108023e-04
-1.4500602e-04
3.3786364e-04
7.5323865e-04
1.0264475e-03
1.1177356e-03
1.0263842e-03
7.8467657e-04
4.4571875e-04
6.9980325e-05
-2.8571237e-04
-5.7502522e-04
-7.6508804e-04
-8.3717263e-04
-7.8684856e-04
-6.2448811e-04
-3.7559474e-04
-7.9361038e-05
2.1613718e-04
4.6236770e-04
6.2052111e-04
6.6976330e-04
6.1025250e-04
4.6074827e-04
2.5282759e-04
2.3521232e-05
-1.9166417e-04
-3.6351766e-04
-4.7135122e-04
-5.0362835e-04
-4.5821454e-04
-3.4289761e-04
-1.7581110e-04
1.5493888e-05
1.9759403e-04
3.3740254e-04
4.0934510e-04
4.0087799e-04
3.1438093e-04
1.6530275e-04
-2.1739714e-05
-2.1707983e-04
-3.9088504e-04
-5.1888156e-04
-5.8574490e-04
-5.8468196e-04
-5.1504377e-04
-3.8047751e-04
-1.8937032e-04
4.2856453e-05
2.9212570e-04
5.2733341e-04
7.1575093e-04
8.3021748e-04
8.5492855e-04
7.8741724e-04
6.3664942e-04
4.1949440e-04
1.5830576e-04
-1.1962504e-04
-3.8244450e-04
-5.9594369e-04
-7.2797278e-04
-7.5446594e-04
-6.6548232e-04
-4.6879058e-04
-1.9020739e-04
1.2880591e-04
4.3649327e-04
6.7914703e-04
8.1091015e-04
8.0238057e-04
6.4603822e-04
3.5810765e-04
-2.2721584e-05
-4.3957706e-04
-8.2488600e-04
-1.1108942e-03
-1.2421397e-03
-1.1876998e-03
-9.5006598e-04
-5.6699013e-04
-1.0351952e-04
3.6361634e-04
7.6243822e-04
1.0379201e-03
1.1580217e-03
1.1136180e-03
9.1501607e-04
5.8863702e-04
1.7559172e-04
-2.6908435e-04
-6.7949750e-04
-9.8640632e-04
-1.1287697e-03
-1.0666543e-03
-7.9202065e-04
-3.3433349e-04
2.4096124e-04
8.4144520e-04
1.3626069e-03
1.7053031e-03
1.7925420e-03
1.5835555e-03
1.0831533e-03
3.4451075e-04
-5.3480065e-04
-1.4232982e-03
-2.1733352e-03
-2.6464372e-03
-2.7433299e-03
-2.4309556e-03
-1.7559549e-03
-8.3661704e-04
1.6662364e-04
1.0921326e-03
1.8134404e-03
2.2575111e-03
2.4019930e-03
2.2604824e-03
1.8695797e-03
1.2854818e-03
5.8488128e-04
-1.3910979e-04
-7.8709903e-04
-1.2673076e-03
-1.5113985e-03
-1.4884916e-03
-1.2130961e-03
-7.4417999e-04
-1.7513394e-04
3.8329977e-04
8.2393240e-04
1.0643567e-03
1.0645661e-03
8.3657534e-04
4.4230463e-04
-2.1465104e-05
-4.4825601e-04
-7.5022769e-04
-8.8020173e-04
-8.3943540e-04
-6.6981379e-04
-4.3443218e-04
-1.9367029e-04
1.2339721e-05
1.6764877e-04
2.7311460e-04
3.3542927e-04
3.5973953e-04
3.4848467e-04
3.0436460e-04
2.3361634e-04
1.4705675e-04
5.8546170e-05
-1.8061273e-05
-7.2096426e-05
-9.8334419e-05
-9.7751624e-05
-7.6483872e-05
-4.2943750e-05
-3.6236127e-06
4.0718599e-05
9.4475139e-05
1.6052304e-04
2.3313798e-04
2.9637904e-04
3.2813270e-04
3.0698847e-04
2.1905798e-04
6.2833567e-05
-1.4914097e-04
-3.9249155e-04
-6.3661736e-04
-8.5138589e-04
-1.0116927e-03
-1.0978226e-03
-1.0923954e-03
-9.7736474e-04
-7.3533558e-04
-3.5773506e-04
1.4201344e-04
7.1830037e-04
1.2930986e-03
1.7658268e-03
2.0324153e-03
2.0112791e-03
1.6694086e-03
1.0403664e-03
2.2709390e-04
-6.1449234e-04
-1.3099039e-03
-1.7106154e-03
-1.7352147e-03
-1.3925672e-03
-7.7811187e-04
-4.5041224e-05
6.3820310e-04
1.1293867e-03
1.3418247e-03
1.2570935e-03
9.2076225e-04
4.2258432e-04
-1.3163455e-04
-6.4515049e-04
-1.0462917e-03
-1.2947128e-03
-1.3793251e-03
-1.3109836e-03
-1.1133526e-03
-8.1481295e-04
-4.4334809e-04
-2.5268104e-05
4.1253957e-04
8.3843548e-04
1.2126972e-03
1.4881019e-03
1.6162765e-03
1.5592853e-03
1.3035340e-03
8.7146374e-04
3.2573194e-04
-2.3956679e-04
-7.1977188e-04
-1.0240643e-03
-1.0972847e-03
-9.3549853e-04
-5.9048450e-04
-1.6063557e-04
2.3004784e-04
4.5982915e-04
4.3770816e-04
1.2698617e-04
-4.4020560e-04
-1.1606957e-03
-1.8732225e-03
-2.3881624e-03
-2.5322294e-03
-2.2000021e-03
-1.3965294e-03
-2.5160225e-04
1.0075432e-03
2.1213263e-03
2.8767230e-03
3.1665770e-03
3.0058900e-03
2.5037254e-03
1.8090501e-03
1.0569544e-03
3.3674646e-04
-3.1026968e-04
-8.7052390e-04
-1.3317280e-03
-1.6663061e-03
-1.8328666e-03
-1.7933723e-03
-1.5357797e-03
-1.0896797e-03
-5.2617230e-04
5.9059432e-05
5.7217032e-04
9.4465689e-04
1.1457936e-03
1.1843135e-03
1.0994481e-03
9.4147130e-04
7.4940113e-04
5.3720209e-04
2.9553911e-04
8.0465443e-06
-3.2652174e-04
-6.7824278e-04
-9.8540816e-04
-1.1712363e-03
-1.1713337e-03
-9.6019239e-04
-5.6562428e-04
-6.5448445e-05
4.3221029e-04
8.1799706e-04
1.0100525e-03
9.7339967e-04
7.2559919e-04
3.2893519e-04
-1.2771970e-04
-5.5068072e-04
-8.6026969e-04
-1.0041025e-03
-9.6468073e-04
-7.6115333e-04
-4.4429893e-04
-8.3957804e-05
2.4935575e-04
5.0319034e-04
6.5500067e-04
7.1226329e-04
7.0151620e-04
6.5217905e-04
5.8299024e-04
4.9682013e-04
3.8498117e-04
2.3752256e-04
5.2926086e-05
-1.5743847e-04
-3.7031810e-04
-5.5644124e-04
-6.8902377e-04
-7.5045736e-04
-7.3445972e-04
-6.4439065e-04
-4.9051906e-04
-2.8868137e-04
-6.0742070e-05
1.6482146e-04
3.5468767e-04
4.7632666e-04
5.0673593e-04
4.4111503e-04
2.9732311e-04
1.1328306e-04
-6.2377217e-05
-1.8297512e-04
-2.1570313e-04
-1.5056523e-04
-3.5808295e-06
1.8854905e-04
3.8033640e-04
5.3012364e-04
6.0860348e-04
6.0159927e-04
5.0837622e-04
3.3815279e-04
1.0714904e-04
-1.6281196e-04
-4.4447810e-04
-7.0535377e-04
-9.0947985e-04
-1.0219853e-03
-1.0163347e-03
-8.8247783e-04
-6.3286740e-04
-3.0329014e-04
5.4249697e-05
3.8622879e-04
6.5248728e-04
8.3232134e-04
9.1967281e-04
9.1275945e-04
8.0670844e-04
5.9561480e-04
2.8403248e-04
-9.9002976e-05
-4.9335778e-04
-8.1562450e-04
-9.8116331e-04
-9.3251087e-04
-6.6232449e-04
-2.2073995e-04
2.9646373e-04
7.7452987e-04
1.1110809e-03
1.2407393e-03
1.1461308e-03
8.5510534e-04
4.2754440e-04
-6.2659580e-05
-5.4348402e-04
-9.5411604e-04
-1.2480757e-03
-1.3934171e-03
-1.3732351e-03
-1.1876886e-03
-8.5652814e-04
-4.1994230e-04
6.4182754e-05
5.2724702e-04
9.0040729e-04
1.1266863e-03
1.1722938e-03
1.0347516e-03
7.4579455e-04
3.6753618e-04
-1.9102700e-05
-3.3222904e-04
-5.0808476e-04
-5.1617522e-04
-3.6627593e-04
-1.0439283e-04
2.0182191e-04
4.8333378e-04
6.8799987e-04
7.8971517e-04
7.8569085e-04
6.8552450e-04
5.0010874e-04
2.3763601e-04
-9.1425331e-05
-4.6477703e-04
-8.4177631e-04
-1.1659281e-03
-1.3769758e-03
-1.4278721e-03
-1.3003791e-03
-1.0133751e-03
-6.1922225e-04
-1.8895857e-04
2.0713696e-04
5.1587693e-04
7.0949802e-04
7.8557462e-04
7.6133769e-04
6.6577960e-04
5.3172090e-04
3.8898229e-04
2.5970295e-04
1.5674982e-04
8.5080027e-05
4.4429995e-05
3.1398576e-05
4.0276805e-05
6.3392085e-05
