-7.4043316e-04
3.4914874e-04
1.2077377e-03
1.6444232e-03
1.4986067e-03
7.1435905e-04
-5.6185615e-04
-1.9158446e-03
-2.7299418e-03
-2.3730161e-03
-4.1498842e-04
3.1964741e-03
7.9891996e-03
1.2897401e-02
1.6451386e-02
1.7297882e-02
1.4776459e-02
9.1134159e-03
1.1678466e-03
-7.8697651e-03
-1.6598527e-02
-2.3548579e-02
-2.7505575e-02
-2.7819279e-02
-2.4602176e-02
-1.8844032e-02
-1.1955773e-02
-4.8213027e-03
2.4851484e-03
1.0028458e-02
1.7425108e-02
2.3905937e-02
2.8409713e-02
2.9566691e-02
2.6323472e-02
1.8852561e-02
8.7253703e-03
-1.6835915e-03
-1.0174661e-02
-1.5451566e-02
-1.7028891e-02
-1.5022783e-02
-1.0377562e-02
-4.6813289e-03
5.3360526e-04
4.2316810e-03
6.1561716e-03
6.7939335e-03
6.4642999e-03
4.7139700e-03
1.1780323e-03
-3.6088088e-03
-8.6228685e-03
-1.2854993e-02
-1.5418169e-02
-1.5817088e-02
-1.4076861e-02
-1.0430114e-02
-5.2804706e-03
6.1712205e-04
6.5261749e-03
1.2006925e-02
1.6485873e-02
1.9116174e-02
1.9439313e-02
1.7652276e-02
1.3958799e-02
8.2810481e-03
8.7597534e-04
-7.2122641e-03
-1.4588979e-02
-2.0260400e-02
-2.3822593e-02
-2.5170042e-02
-2.4371105e-02
-2.1581922e-02
-1.6613123e-02
-8.8162835e-03
2.2436839e-03
1.6120910e-02
3.1342285e-02
4.5427741e-02
5.5018525e-02
5.6752102e-02
4.9001912e-02
3.3067626e-02
1.2365933e-02
-9.5156018e-03
-2.9888052e-02
-4.6832874e-02
-5.8912486e-02
-6.5095920e-02
-6.4503556e-02
-5.6287870e-02
-4.0281615e-02
-1.7919705e-02
7.4599145e-03
3.1343497e-02
4.9483961e-02
5.8992962e-02
5.8610945e-02
4.8824744e-02
3.1974834e-02
1.1769507e-02
-7.6235898e-03
-2.2438116e-02
-3.0217189e-02
-3.0503634e-02
-2.4586140e-02
-1.4580042e-02
-2.6964657e-03
9.2006224e-03
1.9589210e-02
2.6725591e-02
2.8422217e-02
2.2859268e-02
1.0032195e-02
-7.4769396e-03
-2.5492531e-02
-3.9991346e-02
-4.7986732e-02
-4.7888384e-02
-4.0029202e-02
-2.6537182e-02
-1.0145116e-02
6.8052749e-03
2.2400227e-02
3.5003635e-02
4.3459046e-02
4.7226048e-02
4.6196221e-02
4.0451264e-02
3.0413534e-02
1.7243023e-02
2.7263668e-03
-1.1161268e-02
-2.2468358e-02
-2.9571368e-02
-3.1789042e-02
-2.9687539e-02
-2.4549579e-02
-1.7704135e-02
-1.0292320e-02
-3.0117101e-03
3.8534521e-03
9.7565957e-03
1.3537902e-02
1.3985277e-02
1.0860780e-02
5.4156515e-03
-4.6368171e-04
-5.5337652e-03
-9.3082321e-03
-1.1500572e-02
-1.1933588e-02
-1.0531713e-02
-7.0889853e-03
-1.5574004e-03
5.2062941e-03
1.1476253e-02
1.5708459e-02
1.7166954e-02
1.5626679e-02
1.1330432e-02
5.2558098e-03
-1.1805912e-03
-6.6596582e-03
-1.0318979e-02
-1.1967307e-02
-1.1878138e-02
-1.0336562e-02
-7.5323429e-03
-3.7451053e-03
6.3688183e-04
5.1730949e-03
9.3141133e-03
1.2485888e-02
1.4226734e-02
1.4066608e-02
1.1466272e-02
6.3316582e-03
-3.1804993e-04
-6.6055753e-03
-1.0998600e-02
-1.3175338e-02
-1.3682469e-02
-1.3033778e-02
-1.1354636e-02
-8.5548355e-03
-4.5986584e-03
8.1253350e-05
4.5518211e-03
8.0670768e-03
1.0349284e-02
1.1147892e-02
1.0209077e-02
7.5991659e-03
3.7202925e-03
-7.2704917e-04
-4.8882326e-03
-8.1430847e-03
-1.0103719e-02
-1.0309982e-02
-8.4604143e-03
-4.7184156e-03
5.8597049e-04
6.9170807e-03
1.2927569e-02
1.6700577e-02
1.6827644e-02
1.3065401e-02
6.3503448e-03
-1.6077830e-03
-8.9660284e-03
-1.4360410e-02
-1.7200379e-02
-1.7421003e-02
-1.5119430e-02
-1.0483295e-02
-4.0423681e-03
3.0574790e-03
9.4239348e-03
1.3966117e-02
1.5943623e-02
1.5159426e-02
1.2186810e-02
7.9602983e-03
3.2500499e-03
-1.4728340e-03
-5.8967277e-03
-9.6488343e-03
-1.2286507e-02
-1.3549200e-02
-1.3460345e-02
-1.2131137e-02
-9.5665108e-03
-5.6851990e-03
-5.2316728e-04
5.6099742e-03
1.2020095e-02
1.7501366e-02
2.0591070e-02
2.0200341e-02
1.6041738e-02
8.7842425e-03
4.1919767e-05
-8.1157845e-03
-1.3998173e-02
-1.6780022e-02
-1.6476537e-02
-1.3718531e-02
-9.4352065e-03
-4.5421538e-03
2.6805447e-04
4.6220508e-03
8.3605902e-03
1.1320836e-02
1.3044672e-02
1.2627689e-02
9.3263206e-03
3.3785066e-03
-4.0107492e-03
-1.1108824e-02
-1.6132427e-02
-1.8026514e-02
-1.6938558e-02
-1.3812200e-02
-9.6869493e-03
-5.1965423e-03
-3.1106182e-04
5.3911298e-03
1.2027791e-02
1.8914611e-02
2.4540448e-02
2.7046010e-02
2.5113611e-02
1.8750968e-02
9.3512347e-03
-1.0462153e-03
-1.0559692e-02
-1.7760916e-02
-2.1770814e-02
-2.2373923e-02
-2.0008324e-02
-1.5473726e-02
-9.4594147e-03
-2.6042575e-03
4.0941847e-03
9.6640139e-03
1.3793766e-02
1.6418254e-02
1.6889791e-02
1.4161601e-02
7.9359489e-03
-6.2514873e-04
-9.4646118e-03
-1.6699435e-02
-2.1116902e-02
-2.2099534e-02
-1.9571490e-02
-1.3974015e-02
-6.0606792e-03
3.0595603e-03
1.1826639e-02
1.8836699e-02
2.3328227e-02
2.4752228e-02
2.2572591e-02
1.6824249e-02
8.4026554e-03
-1.2763723e-03
-1.0653877e-02
-1.8218494e-02
-2.2745545e-02
-2.3540905e-02
-2.0543871e-02
-1.4323036e-02
-5.8966197e-03
3.4803398e-03
1.2445595e-02
1.9683597e-02
2.4002344e-02
2.4542089e-02
2.1135734e-02
1.4388103e-02
5.5162650e-03
-4.0338955e-03
-1.2949200e-02
-1.9941453e-02
-2.3814915e-02
-2.4052931e-02
-2.0919716e-02
-1.4945686e-02
-6.8665990e-03
2.0287514e-03
1.0052770e-02
1.5760290e-02
1.8490335e-02
1.8344881e-02
1.5603418e-02
1.0496969e-02
3.6929619e-03
-3.5215195e-03
-9.7577812e-03
-1.4108745e-02
-1.6225504e-02
-1.5939667e-02
-1.3213295e-02
-8.5081358e-03
-2.6505143e-03
3.6972217e-03
1.0029010e-02
1.5616189e-02
1.9445059e-02
2.0505743e-02
1.8253887e-02
1.2967128e-02
5.6999357e-03
-2.0417575e-03
-8.8062114e-03
-1.3663033e-02
-1.6344147e-02
-1.7091575e-02
-1.6193583e-02
-1.3660284e-02
-9.4651518e-03
-3.9245947e-03
2.1439939e-03
7.6335152e-03
1.1712923e-02
1.4097568e-02
1.4639857e-02
1.3061285e-02
9.3826173e-03
4.3077666e-03
-1.1132821e-03
-6.1209474e-03
-1.0270977e-02
-1.3034706e-02
-1.3858782e-02
-1.2417527e-02
-8.7363251e-03
-3.4542749e-03
2.3078869e-03
7.4661507e-03
1.1075530e-02
1.2463555e-02
1.1633710e-02
9.0799043e-03
5.2326942e-03
5.0778423e-04
-4.3955424e-03
-8.7677965e-03
-1.2111509e-02
-1.3804789e-02
-1.3115166e-02
-9.8500428e-03
-4.7490562e-03
9.9806493e-04
6.6175867e-03
1.1891597e-02
1.6478736e-02
1.9556825e-02
2.0149684e-02
1.7499455e-02
1.1593358e-02
3.6857309e-03
-4.3404960e-03
-1.1280645e-02
-1.6892778e-02
-2.1112757e-02
-2.3398939e-02
-2.3019768e-02
-1.9729501e-02
-1.3790695e-02
-5.6740779e-03
3.7319391e-03
1.2877664e-02
2.0100065e-02
2.4338737e-02
2.5277403e-02
2.3233636e-02
1.8739462e-02
1.2031341e-02
3.5345313e-03
-5.3980116e-03
-1.3065171e-02
-1.8449849e-02
-2.1404266e-02
-2.2251015e-02
-2.1346925e-02
-1.8889393e-02
-1.4946613e-02
-9.6367637e-03
-3.3772327e-03
3.2318310e-03
9.8538837e-03
1.6432372e-02
2.2559833e-02
2.6991353e-02
2.8143917e-02
2.5214182e-02
1.8545687e-02
9.1549639e-03
-1.3846565e-03
-1.1010880e-02
-1.8009693e-02
-2.1817397e-02
-2.2978693e-02
-2.2258784e-02
-1.9690608e-02
-1.4815076e-02
-7.7046111e-03
6.7095795e-04
8.9636177e-03
1.6068350e-02
2.1105886e-02
2.3062278e-02
2.0987691e-02
1.4794797e-02
5.7201362e-03
-4.2259835e-03
-1.3116883e-02
-1.9455229e-02
-2.2364959e-02
-2.1777984e-02
-1.8241141e-02
-1.2592502e-02
-5.8380543e-03
1.0264692e-03
7.2984699e-03
1.2627317e-02
1.6768833e-02
1.9419495e-02
2.0426959e-02
1.9780154e-02
1.7120983e-02
1.1907296e-02
4.4095160e-03
-3.9464528e-03
-1.1344329e-02
-1.6493399e-02
-1.9035883e-02
-1.9336991e-02
-1.7924690e-02
-1.5099267e-02
-1.0903677e-02
-5.3541002e-03
1.1575753e-03
7.6813481e-03
1.3068980e-02
1.6449616e-02
1.7441493e-02
1.6128905e-02
1.2711010e-02
7.2836473e-03
3.7520110e-04
-6.5720740e-03
-1.1777685e-02
-1.4204896e-02
-1.4053100e-02
-1.2251740e-02
-9.5356577e-03
-6.0649373e-03
-1.7372131e-03
3.2949796e-03
8.4304466e-03
1.2904634e-02
1.5939531e-02
1.6617025e-02
1.4239375e-02
9.0476759e-03
2.2368257e-03
-4.7810152e-03
-1.0934570e-02
-1.5637450e-02
-1.8704628e-02
-1.9922088e-02
-1.8734325e-02
-1.4737378e-02
-8.3909701e-03
-7.9229449e-04
7.1623381e-03
1.4885116e-02
2.1472492e-02
2.5567218e-02
2.5939771e-02
2.2027461e-02
1.4300422e-02
4.4444825e-03
-5.1776247e-03
-1.2683285e-02
-1.7392607e-02
-1.9388377e-02
-1.8714319e-02
-1.5365171e-02
-9.7817292e-03
-3.0429818e-03
3.4191769e-03
8.2782270e-03
1.0647727e-02
1.0370876e-02
8.0932374e-03
4.7492169e-03
8.9452038e-04
-3.3851328e-03
-8.0085666e-03
-1.2398057e-02
-1.5302058e-02
-1.5315766e-02
-1.2041392e-02
-6.4855232e-03
7.8821850e-06
6.7344186e-03
1.3491109e-02
1.9885088e-02
2.4744535e-02
2.6484671e-02
2.4219765e-02
1.8001310e-02
8.3223073e-03
-3.6279177e-03
-1.5410057e-02
-2.4015744e-02
-2.7479923e-02
-2.5811045e-02
-2.0547884e-02
-1.3485606e-02
-5.7295203e-03
2.2113377e-03
9.8138541e-03
1.6076984e-02
1.9508901e-02
1.8988182e-02
1.4797949e-02
8.3555240e-03
1.0865472e-03
-5.9842378e-03
-1.1972581e-02
-1.6079745e-02
-1.7833402e-02
-1.7201275e-02
-1.4295494e-02
-9.1932527e-03
-2.3027735e-03
5.3450398e-03
1.2419301e-02
1.7963400e-02
2.1643320e-02
2.3173182e-02
2.1744705e-02
1.6543534e-02
7.7660153e-03
-3.2276668e-03
-1.4383616e-02
-2.3322856e-02
-2.7935304e-02
-2.7232155e-02
-2.1679517e-02
-1.2845088e-02
-2.8489630e-03
6.3071928e-03
1.3359132e-02
1.7871957e-02
1.9933305e-02
1.9780861e-02
1.7481965e-02
1.2977945e-02
6.5639779e-03
-7.8737203e-04
-7.7962755e-03
-1.3474855e-02
-1.7172136e-02
-1.8416876e-02
-1.7022028e-02
-1.3175339e-02
-7.5648445e-03
-1.4336868e-03
4.0934256e-03
8.8952238e-03
1.3425479e-02
1.7247087e-02
1.8728046e-02
1.6646072e-02
1.1543491e-02
5.0561602e-03
-1.4614970e-03
-7.2908801e-03
-1.2043828e-02
-1.5439749e-02
-1.7210606e-02
-1.7122461e-02
-1.4949587e-02
-1.0459721e-02
-3.8753422e-03
3.6915216e-03
1.0566723e-02
1.5199334e-02
1.6798376e-02
1.5505099e-02
1.1876651e-02
6.4289523e-03
-3.2237849e-04
-7.4718577e-03
-1.3447253e-02
-1.6523781e-02
-1.5762711e-02
-1.1507851e-02
-5.2603084e-03
1.2347602e-03
7.0430209e-03
1.1966700e-02
1.5863177e-02
1.8333025e-02
1.8709106e-02
1.6406738e-02
1.1450959e-02
4.5628825e-03
-3.2206878e-03
-1.0818277e-02
-1.7112892e-02
-2.1134915e-02
-2.2385845e-02
-2.0864865e-02
-1.6870172e-02
-1.0964675e-02
-3.9442840e-03
3.4869287e-03
1.0788203e-02
1.7112905e-02
2.1171861e-02
2.1741094e-02
1.8207934e-02
1.1103535e-02
2.3845321e-03
-5.4288872e-03
-1.0812912e-02
-1.3732682e-02
-1.4778971e-02
-1.4355206e-02
-1.2520350e-02
-9.0994860e-03
-4.0041021e-03
2.3292791e-03
8.8917135e-03
1.4394605e-02
1.7395082e-02
1.6596703e-02
1.1773802e-02
4.3522073e-03
-3.2612329e-03
-8.9636078e-03
-1.1825114e-02
-1.2059096e-02
-1.0410059e-02
-7.6036762e-03
-4.0363423e-03
2.3529605e-04
5.0136854e-03
9.4358491e-03
1.2362476e-02
1.3245200e-02
1.2128218e-02
9.0531216e-03
3.9276372e-03
-2.9980281e-03
-1.0546556e-02
-1.6746899e-02
-1.9832325e-02
-1.9131204e-02
-1.5235023e-02
-9.5316243e-03
-3.3522281e-03
2.6796509e-03
8.6104071e-03
1.4574425e-02
1.9995410e-02
2.3252035e-02
2.2533885e-02
1.7165463e-02
8.1431108e-03
-2.2578239e-03
-1.1479076e-02
-1.7759699e-02
-2.0608986e-02
-2.0599137e-02
-1.8720157e-02
-1.5732939e-02
-1.2035062e-02
-7.6966398e-03
-2.4324827e-03
4.1322820e-03
1.1947458e-02
1.9967361e-02
2.6151945e-02
2.8467367e-02
2.5884574e-02
1.8685195e-02
8.3989531e-03
-2.5059275e-03
-1.1399902e-02
-1.6647594e-02
-1.8153603e-02
-1.6780224e-02
-1.3519560e-02
-9.1712932e-03
-4.4751929e-03
-2.3906133e-04
2.9224877e-03
4.7978122e-03
5.1930325e-03
3.7402150e-03
5.1171259e-04
-3.6450269e-03
-7.6440709e-03
-1.0638460e-02
-1.1804398e-02
-1.0288426e-02
-6.1556921e-03
-9.0741919e-04
3.6524647e-03
6.7590320e-03
8.9436313e-03
1.1216756e-02
1.3777138e-02
1.5697051e-02
1.5926744e-02
1.4137796e-02
1.0627558e-02
5.9791435e-03
1.0389605e-03
-3.3695146e-03
-7.1087919e-03
-1.0617219e-02
-1.4022243e-02
-1.6608007e-02
-1.7098105e-02
-1.4625766e-02
-9.5160021e-03
-3.0257713e-03
3.5135170e-03
9.2050852e-03
1.3423799e-02
1.5457921e-02
1.4615254e-02
1.0781573e-02
4.7284340e-03
-2.1635468e-03
-8.4135471e-03
-1.2900574e-02
-1.5133391e-02
-1.5240554e-02
-1.3725841e-02
-1.1084269e-02
-7.4950175e-03
-2.8595401e-03
2.8517142e-03
9.2709356e-03
1.5628613e-02
2.1041171e-02
2.4446084e-02
2.4363539e-02
1.9697369e-02
1.1004509e-02
4.4482085e-04
-9.5657719e-03
-1.7454888e-02
-2.2464157e-02
-2.4299254e-02
-2.3250048e-02
-1.9997862e-02
-1.4987790e-02
-8.3778437e-03
-4.7114378e-04
7.9209036e-03
1.5362738e-02
2.0079352e-02
2.0633717e-02
1.6784897e-02
9.7798750e-03
1.7949429e-03
-4.7300351e-03
-7.6747702e-03
-5.7590201e-03
1.2016874e-03
1.2062125e-02
2.4255121e-02
3.4062126e-02
3.7086862e-02
2.9306626e-02
9.2486640e-03
-1.9287377e-02
-4.6698690e-02
-6.2465535e-02
-6.2793329e-02
-5.2678551e-02
-4.0123831e-02
-2.9608878e-02
-2.0742947e-02
-1.1056444e-02
1.1178072e-03
1.5799910e-02
3.1730896e-02
4.6832656e-02
5.8888040e-02
6.6098757e-02
6.6844190e-02
5.9538526e-02
4.3480432e-02
1.9979888e-02
-7.2932688e-03
-3.3453315e-02
-5.4457118e-02
-6.8111128e-02
-7.3455305e-02
-7.0286799e-02
-5.9646287e-02
-4.3516010e-02
-2.3698701e-02
-1.8525802e-03
2.0217352e-02
4.1140654e-02
6.0040679e-02
7.5869945e-02
8.7063849e-02
9.1579312e-02
8.6983288e-02
7.0653632e-02
4.0673663e-02
-2.4461962e-03
-5.4293892e-02
-1.0594717e-01
-1.4432323e-01
-1.5556596e-01
-1.3325419e-01
-8.5330857e-02
-2.9467543e-02
1.9775473e-02
5.7228573e-02
8.3262228e-02
9.8232045e-02
1.0089758e-01
9.0394233e-02
6.8451765e-02
3.9586394e-02
9.5657816e-03
-1.6834486e-02
-3.7085870e-02
-5.0389871e-02
-5.6988377e-02
-5.7866703e-02
-5.4031445e-02
-4.5958578e-02
-3.4035005e-02
-1.9266658e-02
-3.2902881e-03
1.2136907e-02
2.5476945e-02
3.5560194e-02
4.1799316e-02
4.3989558e-02
4.1796925e-02
3.5153076e-02
2.5150305e-02
1.3913074e-02
3.5561763e-03
-4.8925023e-03
-1.1717579e-02
-1.7527904e-02
-2.2149351e-02
-2.4551182e-02
-2.3824634e-02
-2.0174606e-02
-1.4900320e-02
-9.6219990e-03
-5.4792224e-03
-2.7259711e-03
-1.0354428e-03
2.2045543e-05
9.8035356e-04
2.3565371e-03
4.1168524e-03
5.5861777e-03
6.0667665e-03
5.4476271e-03
4.4322792e-03
4.2654954e-03
5.7788293e-03
8.6006838e-03
1.1478640e-02
1.3115295e-02
1.2563471e-02
9.3098183e-03
3.5227222e-03
-3.7360499e-03
-1.0803443e-02
-1.6209448e-02
-1.9306203e-02
-2.0071711e-02
-1.8598185e-02
-1.5082458e-02
-9.9865084e-03
-3.8838664e-03
2.7505106e-03
9.4494809e-03
1.5541550e-02
2.0144206e-02
2.2335354e-02
2.1568663e-02
1.7985254e-02
1.2200909e-02
5.0646201e-03
-2.4532376e-03
-9.4043882e-03
-1.4965392e-02
-1.8609327e-02
-2.0114078e-02
-1.9448224e-02
-1.6920264e-02
-1.3166765e-02
-8.7651118e-03
-4.0048408e-03
9.6128112e-04
5.8675843e-03
1.0407896e-02
1.4536639e-02
1.8414580e-02
2.1753437e-02
2.3333628e-02
2.1807564e-02
1.6814628e-02
8.8580878e-03
-9.8704017e-04
-1.0849728e-02
-1.8663054e-02
-2.3274218e-02
-2.4520515e-02
-2.2716203e-02
-1.8564161e-02
-1.3024241e-02
-6.7896606e-03
-8.7632086e-05
6.7963279e-03
1.3052420e-02
1.7665818e-02
1.9889026e-02
1.9343569e-02
1.6089278e-02
1.0550154e-02
3.2614305e-03
-4.9767302e-03
-1.2696135e-02
-1.8103364e-02
-2.0086661e-02
-1.8653565e-02
-1.4486701e-02
-8.4279607e-03
-1.4075957e-03
5.6116803e-03
1.2037594e-02
1.7668652e-02
2.1913699e-02
2.3355304e-02
2.0578158e-02
1.3482662e-02
3.8369563e-03
-5.5731037e-03
-1.2623474e-02
-1.6747664e-02
-1.8456190e-02
-1.8382262e-02
-1.6776726e-02
-1.3690595e-02
-9.3398272e-03
-4.2210486e-03
8.8812699e-04
5.1593660e-03
8.2111387e-03
1.0257577e-02
1.1704360e-02
1.2790178e-02
1.3354777e-02
1.2655248e-02
1.0020625e-02
5.7986824e-03
9.6385183e-04
-3.8940999e-03
-8.5723434e-03
-1.2548407e-02
-1.4832147e-02
-1.4679040e-02
-1.2062731e-02
-7.4444924e-03
-1.6780566e-03
4.0360119e-03
8.6015953e-03
1.1294087e-02
1.1692135e-02
9.7715688e-03
6.0189315e-03
1.2661009e-03
-3.6042621e-03
-7.9537208e-03
-1.1452392e-02
-1.3678498e-02
-1.3809534e-02
-1.1016836e-02
-5.2314120e-03
2.4169856e-03
1.0117049e-02
1.6427766e-02
2.0521400e-02
2.1922892e-02
2.0617870e-02
1.6889780e-02
1.0902040e-02
3.0015679e-03
-5.6798573e-03
-1.3436268e-02
-1.8781839e-02
-2.0965443e-02
-2.0064556e-02
-1.6926698e-02
-1.2903051e-02
-9.1319924e-03
-5.7828542e-03
-2.2040102e-03
2.0932253e-03
6.8312621e-03
1.1160034e-02
1.4047336e-02
1.4755142e-02
1.3243228e-02
9.8084614e-03
4.6117736e-03
-1.7637574e-03
-7.8285184e-03
-1.2057289e-02
-1.3918392e-02
-1.3723681e-02
-1.1957050e-02
-9.0978420e-03
-5.6805572e-03
-1.9982728e-03
2.1726576e-03
7.2045798e-03
1.2994160e-02
1.8893793e-02
2.4015001e-02
2.7243707e-02
2.7260409e-02
2.3098287e-02
1.4840224e-02
3.7962168e-03
-7.9203781e-03
-1.8190224e-02
-2.5616474e-02
-2.9660384e-02
-3.0380403e-02
-2.8156342e-02
-2.3394257e-02
-1.6528366e-02
-8.2282908e-03
7.0158265e-04
9.4154427e-03
1.6886466e-02
2.1887525e-02
2.3339093e-02
2.0938436e-02
1.5417856e-02
8.1417450e-03
4.9919282e-04
-6.5941363e-03
-1.2757169e-02
-1.7716910e-02
-2.0939483e-02
-2.1568779e-02
-1.8805494e-02
-1.2663570e-02
-4.2023024e-03
5.1259820e-03
1.4082631e-02
2.1612038e-02
2.6723402e-02
2.8680837e-02
2.7086690e-02
2.1913029e-02
1.3850342e-02
4.3715203e-03
-4.8788870e-03
-1.2631081e-02
-1.8137810e-02
-2.1161706e-02
-2.1803774e-02
-2.0368098e-02
-1.7204992e-02
-1.2412437e-02
-5.8094168e-03
2.6638482e-03
1.2087951e-02
2.0004143e-02
2.3543371e-02
2.1450677e-02
1.4564763e-02
4.5633914e-03
-6.7859906e-03
-1.7316228e-02
-2.4589553e-02
-2.6696916e-02
-2.3104666e-02
-1.5169048e-02
-5.5467760e-03
3.1752811e-03
9.3001458e-03
1.2207362e-02
1.2334309e-02
1.0959435e-02
9.6777025e-03
9.4619967e-03
1.0096291e-02
1.0717700e-02
1.0551537e-02
9.0006890e-03
5.6917759e-03
8.9410605e-04
-4.2336485e-03
-8.1416711e-03
-9.9923565e-03
-1.0220966e-02
-9.6944961e-03
-8.6044132e-03
-6.6168780e-03
-3.7679322e-03
-6.5478947e-04
2.2643755e-03
5.1062931e-03
8.0616996e-03
1.0817122e-02
1.2539592e-02
1.2083337e-02
8.4673645e-03
1.6263153e-03
-7.1841491e-03
-1.5747671e-02
-2.1847251e-02
-2.4073889e-02
-2.2064022e-02
-1.6503242e-02
-9.0806246e-03
-2.0610773e-03
2.9000197e-03
5.8748531e-03
8.2358914e-03
1.1158914e-02
1.4853039e-02
1.8646215e-02
2.1179136e-02
2.1118645e-02
1.8070117e-02
1.2567466e-02
5.6330162e-03
-1.4583878e-03
-7.5281784e-03
-1.1924178e-02
-1.4661498e-02
-1.6030870e-02
-1.6069189e-02
-1.4632740e-02
-1.1810850e-02
-7.9811182e-03
-3.5799473e-03
1.1352336e-03
6.1305916e-03
1.1260721e-02
1.5851242e-02
1.8634974e-02
1.8249148e-02
1.4137875e-02
7.0343033e-03
-1.3795265e-03
-9.1367668e-03
-1.4691115e-02
-1.7441026e-02
-1.7679340e-02
-1.6102020e-02
-1.3428762e-02
-1.0285773e-02
-7.0826168e-03
-3.8623740e-03
-3.5389831e-04
3.7230714e-03
8.4006679e-03
1.3403100e-02
1.8109350e-02
2.1481623e-02
2.2229812e-02
1.9502688e-02
1.3362834e-02
4.5683740e-03
-5.4533081e-03
-1.4759720e-02
-2.1700690e-02
-2.5044518e-02
-2.3541601e-02
-1.6717046e-02
-6.1144668e-03
5.0587680e-03
1.3464370e-02
1.7049397e-02
1.5930110e-02
1.2193189e-02
8.3092997e-03
5.3320456e-03
2.6222727e-03
-8.8942573e-04
-5.4227553e-03
-1.0131092e-02
-1.3886451e-02
-1.6039588e-02
-1.6411505e-02
-1.4965018e-02
-1.1742752e-02
-6.9756054e-03
-9.4295843e-04
6.1376879e-03
1.3639281e-02
2.0257084e-02
2.4572650e-02
2.5586085e-02
2.2785506e-02
1.6362629e-02
7.6151073e-03
-1.4305493e-03
-9.2140977e-03
-1.5238816e-02
-1.9425447e-02
-2.1261196e-02
-1.9982144e-02
-1.5469857e-02
-8.4929810e-03
-2.3919650e-04
7.7737200e-03
1.3604632e-02
1.5609473e-02
1.3462509e-02
8.1602590e-03
1.1990406e-03
-5.8803354e-03
-1.1646796e-02
-1.5195835e-02
-1.6274533e-02
-1.5011714e-02
-1.1897582e-02
-7.6233932e-03
-2.5199255e-03
3.5151000e-03
1.0459992e-02
1.7807851e-02
2.4665858e-02
2.9820402e-02
3.1557008e-02
2.8116737e-02
1.9048838e-02
5.8818974e-03
-8.5456038e-03
-2.1127057e-02
-2.9505276e-02
-3.2829712e-02
-3.1656328e-02
-2.7107528e-02
-2.0140035e-02
-1.1411990e-02
-1.4643791e-03
8.8997261e-03
1.8182712e-02
2.4373013e-02
2.5798559e-02
2.2089389e-02
1.4513486e-02
5.2462835e-03
-3.5974778e-03
-1.0466728e-02
-1.4663653e-02
-1.6305145e-02
-1.5905645e-02
-1.3824739e-02
-9.9161953e-03
-4.0238984e-03
3.1905915e-03
1.0394301e-02
1.6420976e-02
2.0411742e-02
2.1300828e-02
1.8061706e-02
1.0726084e-02
8.8085386e-04
-8.8154228e-03
-1.5873389e-02
-1.9207445e-02
-1.9230034e-02
-1.6886642e-02
-1.2796271e-02
-7.1932493e-03
-3.6785083e-04
6.9968169e-03
1.3793950e-02
1.8770664e-02
2.0904925e-02
1.9618857e-02
1.4942163e-02
7.6900663e-03
-6.1633668e-04
-8.2841201e-03
-1.4226629e-02
-1.8327091e-02
-2.0868111e-02
-2.1622793e-02
-1.9793452e-02
-1.4842213e-02
-7.1597386e-03
1.9188741e-03
1.0619759e-02
1.7520774e-02
2.1866009e-02
2.3237696e-02
2.1374213e-02
1.6316240e-02
8.6452563e-03
-3.2878115e-04
-8.7532335e-03
-1.4940312e-02
-1.8032598e-02
-1.7994600e-02
-1.5398649e-02
-1.1228127e-02
-6.2587538e-03
-6.8980759e-04
5.3505202e-03
1.1144005e-02
1.5556469e-02
1.7796135e-02
1.7520135e-02
1.4559351e-02
9.1740381e-03
2.2202398e-03
-5.1924528e-03
-1.2081181e-02
-1.7717649e-02
-2.1334555e-02
-2.1921768e-02
-1.8827637e-02
-1.2392499e-02
-3.6699770e-03
6.0312994e-03
1.5041110e-02
2.1356463e-02
2.3422308e-02
2.1037691e-02
1.5375691e-02
7.9920264e-03
-5.7305298e-06
-7.7115343e-03
-1.4024691e-02
-1.8060542e-02
-1.9543900e-02
-1.8521637e-02
-1.5041347e-02
-9.1931934e-03
-1.3792004e-03
7.2918867e-03
1.4984667e-02
1.9863621e-02
2.0993049e-02
1.8475108e-02
1.2874912e-02
5.1545011e-03
-2.9158515e-03
-9.2687312e-03
-1.2792456e-02
-1.3844932e-02
-1.3533423e-02
-1.2588039e-02
-1.0899470e-02
-7.8794400e-03
-2.9458892e-03
4.0576735e-03
1.2249613e-02
1.9529718e-02
2.3407713e-02
2.2147915e-02
1.5552331e-02
5.2092290e-03
-5.9940844e-03
-1.4980778e-02
-1.9867338e-02
-2.0750496e-02
-1.9115424e-02
-1.6498605e-02
-1.3552730e-02
-1.0117156e-02
-5.8237664e-03
-5.0112482e-04
5.6598643e-03
1.2241071e-02
1.8572562e-02
2.3440830e-02
2.5545780e-02
2.4300971e-02
1.9861612e-02
1.2741643e-02
3.7109473e-03
-6.0304802e-03
-1.4827785e-02
-2.1073531e-02
-2.3939751e-02
-2.3541491e-02
-2.0482380e-02
-1.5453435e-02
-9.0363794e-03
-1.6385801e-03
6.1060776e-03
1.2832763e-02
1.6886200e-02
1.7285694e-02
1.4087995e-02
8.3005820e-03
1.4876010e-03
-4.9555011e-03
-1.0118383e-02
-1.3310651e-02
-1.3901254e-02
-1.1624163e-02
-6.8837447e-03
-4.3726066e-04
7.0390981e-03
1.4677677e-02
2.0912980e-02
2.3823599e-02
2.2221104e-02
1.6322079e-02
7.4837588e-03
-2.6383745e-03
-1.2661597e-02
-2.1246896e-02
-2.6914652e-02
-2.8513460e-02
-2.5596231e-02
-1.8490115e-02
-8.4748473e-03
2.4550313e-03
1.2422701e-02
2.0129133e-02
2.4745487e-02
2.5780401e-02
2.3177898e-02
1.7456313e-02
9.4153862e-03
-5.6518565e-05
-9.5538848e-03
-1.7230930e-02
-2.1738599e-02
-2.2813843e-02
-2.1100052e-02
-1.7514379e-02
-1.2500123e-02
-5.8973870e-03
2.2921956e-03
1.1149400e-02
1.9019780e-02
2.4277698e-02
2.5700034e-02
2.2603798e-02
1.5360127e-02
5.5981515e-03
-4.4521175e-03
-1.2799933e-02
-1.8378869e-02
-2.1193306e-02
-2.1544715e-02
-1.9359694e-02
-1.4305608e-02
-6.3949860e-03
3.3150637e-03
1.2827277e-02
2.0100807e-02
2.3746503e-02
2.3218487e-02
1.8718303e-02
1.1176909e-02
2.1971830e-03
-6.4568085e-03
-1.3543426e-02
-1.8513881e-02
-2.1104663e-02
-2.1152222e-02
-1.8753009e-02
-1.4185055e-02
-7.7751376e-03
3.5997021e-05
8.6094197e-03
1.6969958e-02
2.3638616e-02
2.6867151e-02
2.5479526e-02
1.9577381e-02
1.0442061e-02
1.9253958e-05
-9.5856178e-03
-1.6712446e-02
-2.0649079e-02
-2.1434724e-02
-1.9468873e-02
-1.5589810e-02
-1.0742338e-02
-5.2369166e-03
1.0133198e-03
7.5166450e-03
1.2976372e-02
1.6048222e-02
1.6132295e-02
1.3607085e-02
9.4178847e-03
4.3390353e-03
-1.1476865e-03
-6.3473768e-03
-1.0279109e-02
-1.2144381e-02
-1.1777871e-02
-9.6484811e-03
-6.3268218e-03
-2.0620018e-03
3.0476882e-03
8.4686538e-03
1.2958679e-02
1.5232725e-02
1.4816236e-02
1.1973103e-02
7.1303459e-03
9.2480946e-04
-5.4688159e-03
-1.0774132e-02
-1.4193992e-02
-1.5417666e-02
-1.4588166e-02
-1.2082488e-02
-7.9773098e-03
-2.1967207e-03
4.6033384e-03
1.0808329e-02
1.4770228e-02
1.5679436e-02
1.3525103e-02
8.6914087e-03
1.9098295e-03
-5.5905128e-03
-1.2351947e-02
-1.7139071e-02
-1.9030700e-02
-1.7603293e-02
-1.3224603e-02
-6.8115176e-03
6.8583172e-04
8.5142228e-03
1.5891705e-02
2.1677667e-02
2.4634859e-02
2.4017213e-02
1.9824787e-02
1.2749094e-02
3.9539822e-03
-5.0811695e-03
-1.2725932e-02
-1.7793864e-02
-2.0103918e-02
-2.0181389e-02
-1.8465971e-02
-1.4953939e-02
-9.5778790e-03
-2.8671570e-03
4.0307009e-03
9.9545904e-03
1.4050981e-02
1.5801815e-02
1.5164590e-02
1.2447984e-02
7.8259531e-03
1.5718457e-03
-5.0540565e-03
-1.0119948e-02
-1.2345504e-02
-1.1685049e-02
-9.1509558e-03
-6.0585715e-03
-2.9022546e-03
7.2288760e-04
5.1207244e-03
9.7536396e-03
1.3262293e-02
1.4319656e-02
1.2478585e-02
7.9805574e-03
1.3762067e-03
-6.2046277e-03
-1.3001236e-02
-1.7438464e-02
-1.8938362e-02
-1.7836485e-02
-1.4751148e-02
-1.0105062e-02
-4.0899963e-03
3.0130008e-03
1.0602958e-02
1.7798824e-02
2.3497746e-02
2.6513961e-02
2.5862519e-02
2.1111931e-02
1.2828781e-02
2.6476762e-03
-7.4156837e-03
-1.5823408e-02
-2.1683514e-02
-2.4392779e-02
-2.3676294e-02
-1.9963341e-02
-1.4250521e-02
-7.4373714e-03
1.8783900e-05
7.7349259e-03
1.4838159e-02
1.9912377e-02
2.1636813e-02
1.9488409e-02
1.3918884e-02
6.0642578e-03
-2.7569925e-03
-1.1337896e-02
-1.8455207e-02
-2.2885000e-02
-2.3938175e-02
-2.1728065e-02
-1.6767249e-02
-9.6412095e-03
-1.0058473e-03
8.3893809e-03
1.7625746e-02
2.5488872e-02
3.0523771e-02
3.1339205e-02
2.7197068e-02
1.8580153e-02
7.1608004e-03
-4.5526556e-03
-1.3916102e-02
-1.9463726e-02
-2.1570063e-02
-2.1477058e-02
-1.9894575e-02
-1.6903926e-02
-1.2663951e-02
-7.4262606e-03
-1.3707317e-03
5.0290291e-03
1.0877245e-02
1.5214628e-02
1.7243999e-02
1.6398535e-02
1.2638926e-02
6.7289456e-03
-7.1951101e-05
-6.6197880e-03
-1.2005680e-02
-1.5361882e-02
-1.5965445e-02
-1.3524305e-02
-8.3536086e-03
-1.3243324e-03
6.3263664e-03
1.3153645e-02
1.7781179e-02
1.9293258e-02
1.7440658e-02
1.2626253e-02
5.8638580e-03
-1.4497289e-03
-8.2123095e-03
-1.3842385e-02
-1.7601158e-02
-1.8571988e-02
-1.6572669e-02
-1.2325553e-02
-6.7045557e-03
-4.3010912e-04
5.6276651e-03
1.0626826e-02
1.4196437e-02
1.6096046e-02
1.5736193e-02
1.2515299e-02
6.4239991e-03
-1.5297079e-03
-9.2799407e-03
-1.4626735e-02
-1.6502872e-02
-1.5119947e-02
-1.1194923e-02
-5.6410011e-03
2.3059887e-04
5.0333628e-03
8.1799427e-03
1.0037014e-02
1.1038756e-02
1.1149726e-02
1.0170955e-02
8.0109600e-03
4.7556077e-03
8.0454064e-04
-3.2400016e-03
-6.7833045e-03
-9.0739585e-03
-9.3662332e-03
-7.8025672e-03
-5.6601678e-03
-4.1261642e-03
-2.8812969e-03
-3.8606686e-04
4.1499491e-03
9.5091054e-03
1.3355690e-02
1.3882833e-02
1.0712919e-02
4.9061150e-03
-1.6849476e-03
-7.3145191e-03
-1.1130422e-02
-1.3483509e-02
-1.5351594e-02
-1.7299968e-02
-1.8852293e-02
-1.8712498e-02
-1.5718869e-02
-9.6514321e-03
-1.2473872e-03
8.3172482e-03
1.7846793e-02
2.6049925e-02
3.1494735e-02
3.3013483e-02
3.0093801e-02
2.3029721e-02
1.2979110e-02
1.7663341e-03
-8.6495701e-03
-1.6604447e-02
-2.1057535e-02
-2.1968308e-02
-2.0098774e-02
-1.6360741e-02
-1.1608630e-02
-6.6031723e-03
-1.6658390e-03
3.2669128e-03
8.0425697e-03
1.1944156e-02
1.3798140e-02
1.2510139e-02
7.8420774e-03
6.8042954e-04
-7.2663719e-03
-1.3919894e-02
-1.7631463e-02
-1.7990717e-02
-1.5698626e-02
-1.1647009e-02
-6.4153754e-03
-5.0934121e-04
5.5819884e-03
1.1588011e-02
1.7286397e-02
2.2042333e-02
2.4725213e-02
2.4126671e-02
1.9394460e-02
1.0657914e-02
-4.0613037e-04
-1.0871109e-02
-1.7847211e-02
-2.0071880e-02
-1.8219923e-02
-1.3855936e-02
-8.5052546e-03
-3.1184371e-03
2.0578853e-03
6.8776379e-03
1.0663333e-02
1.2319816e-02
1.0935713e-02
6.3010072e-03
-9.8269731e-04
-9.5360899e-03
-1.7279335e-02
-2.2079964e-02
-2.2698842e-02
-1.9210555e-02
-1.2807786e-02
-5.3083588e-03
1.6447201e-03
7.5130089e-03
1.2928671e-02
1.8583331e-02
2.4156748e-02
2.8406165e-02
2.9975554e-02
2.7951181e-02
2.2172820e-02
1.3299776e-02
2.4990419e-03
-8.7317797e-03
-1.8502982e-02
-2.4989866e-02
-2.7478171e-02
-2.6581362e-02
-2.3314034e-02
-1.8507105e-02
-1.2921069e-02
-7.1704535e-03
-1.2962974e-03
5.0440666e-03
1.1594811e-02
1.7087263e-02
1.9951227e-02
1.9380421e-02
1.5724047e-02
9.9484263e-03
2.9970027e-03
-4.3286072e-03
-1.0966973e-02
-1.5505155e-02
-1.7083974e-02
-1.5954033e-02
-1.2778367e-02
-8.0519209e-03
-2.2985278e-03
3.8027498e-03
9.6179762e-03
1.4502999e-02
1.7641202e-02
1.8306260e-02
1.6120365e-02
1.1198726e-02
4.4383325e-03
-2.6842295e-03
-8.8726853e-03
-1.3484848e-02
-1.6293124e-02
-1.6900663e-02
-1.4862338e-02
-1.0466802e-02
-4.8162052e-03
9.7988365e-04
6.4431899e-03
1.1489613e-02
1.5700423e-02
1.8065169e-02
1.7432855e-02
1.3247575e-02
6.0438903e-03
-2.5908642e-03
-1.0507801e-02
-1.5862836e-02
-1.7905239e-02
-1.7046746e-02
-1.4231832e-02
-1.0174023e-02
-5.0724620e-03
1.1145880e-03
8.0410982e-03
1.4439876e-02
1.8502409e-02
1.8911112e-02
1.5433592e-02
8.8284940e-03
5.7122652e-04
-7.4162550e-03
-1.3400996e-02
-1.6494326e-02
-1.6658310e-02
-1.4392037e-02
-1.0415972e-02
-5.3975938e-03
1.0063774e-04
5.6083702e-03
1.0762391e-02
1.5108355e-02
1.7780217e-02
1.7640781e-02
1.3998394e-02
7.2965529e-03
-7.9747633e-04
-8.2174371e-03
-1.3616664e-02
-1.6660523e-02
-1.7529417e-02
-1.6305206e-02
-1.2739724e-02
-6.6439290e-03
1.5476843e-03
1.0707636e-02
1.9390621e-02
2.5964428e-02
2.8598126e-02
2.5809581e-02
1.7260546e-02
4.1630705e-03
-1.0891189e-02
-2.4748974e-02
-3.4618043e-02
-3.8542107e-02
-3.5810887e-02
-2.7286988e-02
-1.5056830e-02
-1.6990534e-03
1.0476410e-02
2.0185159e-02
2.7101856e-02
3.0888891e-02
3.0857869e-02
2.6727426e-02
1.9205276e-02
9.6790291e-03
-4.3980315e-04
-9.9557252e-03
-1.7631651e-02
-2.2185871e-02
-2.2948199e-02
-2.0401863e-02
-1.5825319e-02
-1.0177454e-02
-3.4755310e-03
4.3512933e-03
1.2297565e-02
1.8464728e-02
2.1344680e-02
2.0549726e-02
1.6472967e-02
1.0026341e-02
2.5520557e-03
-4.8634442e-03
-1.1801470e-02
-1.7726535e-02
-2.1355630e-02
-2.1427012e-02
-1.7758477e-02
-1.1279839e-02
-3.3802363e-03
4.5317486e-03
1.1145140e-02
1.5525403e-02
1.7345965e-02
1.6647651e-02
1.3558819e-02
8.2920401e-03
1.4708728e-03
-5.4665639e-03
-1.0783171e-02
-1.3645863e-02
-1.4293804e-02
-1.3075941e-02
-1.0094586e-02
-5.7245242e-03
-6.5984406e-04
4.5611348e-03
9.6643461e-03
1.4288147e-02
1.7588614e-02
1.8417793e-02
1.6064338e-02
1.0689999e-02
3.2353434e-03
-4.9226970e-03
-1.2456130e-02
-1.8260125e-02
-2.1326018e-02
-2.1000149e-02
-1.7441953e-02
-1.1556466e-02
-4.4347909e-03
3.0797338e-03
1.0337611e-02
1.6539224e-02
2.0513027e-02
2.1122357e-02
1.8201274e-02
1.2848751e-02
6.6321729e-03
7.1516328e-04
-4.3154103e-03
-8.2451518e-03
-1.1039251e-02
-1.2623855e-02
-1.2967305e-02
-1.2443638e-02
-1.1713460e-02
-1.1122256e-02
-1.0408090e-02
-9.1875801e-03
-7.6447629e-03
-6.2495286e-03
-4.8621113e-03
-2.5555305e-03
1.8488042e-03
8.8954104e-03
1.7621297e-02
2.5753867e-02
3.0997143e-02
3.2055255e-02
2.8646974e-02
2.1118829e-02
1.0506353e-02
-1.2096362e-03
-1.1581618e-02
-1.8895684e-02
-2.2901783e-02
-2.4407603e-02
-2.4356191e-02
-2.3106030e-02
-2.0389871e-02
-1.6055081e-02
-1.0512004e-02
-4.2884368e-03
2.3158309e-03
9.0594067e-03
1.5457777e-02
2.0584086e-02
2.3210193e-02
2.2176967e-02
1.7040880e-02
8.7958191e-03
-4.0682301e-04
-8.4089267e-03
-1.3803682e-02
-1.6130713e-02
-1.5855119e-02
-1.3979543e-02
-1.1412963e-02
-8.5907561e-03
-5.3242400e-03
-8.7402615e-04
5.1981218e-03
1.1978037e-02
1.7534252e-02
2.0362198e-02
2.0058224e-02
1.6783243e-02
1.0829356e-02
2.9541858e-03
-5.3793691e-03
-1.2528069e-02
-1.7355284e-02
-1.9394621e-02
-1.8695599e-02
-1.5650404e-02
-1.0718958e-02
-4.2545148e-03
3.2246773e-03
1.0708859e-02
1.6856223e-02
2.0398697e-02
2.0493761e-02
1.6924931e-02
1.0117045e-02
1.2238242e-03
-7.9594067e-03
-1.5650109e-02
-2.0772684e-02
-2.3079410e-02
-2.2571583e-02
-1.8965818e-02
-1.2282897e-02
-3.5966040e-03
5.4823927e-03
1.3692887e-02
2.0308832e-02
2.4848549e-02
2.6610580e-02
2.4533359e-02
1.8030870e-02
8.0924828e-03
-2.8934102e-03
-1.2547979e-02
-1.9639547e-02
-2.3917788e-02
-2.5204258e-02
-2.3191772e-02
-1.8022517e-02
-1.0504888e-02
-1.6689209e-03
7.6044808e-03
1.6373642e-02
2.3352032e-02
2.7096790e-02
2.6539426e-02
2.1537557e-02
1.3086854e-02
2.8865777e-03
-7.3868756e-03
-1.6307366e-02
-2.2452050e-02
-2.4586758e-02
-2.2407693e-02
-1.6737490e-02
-9.0320680e-03
-9.5137553e-04
6.0768609e-03
1.1231036e-02
1.4185146e-02
1.4731959e-02
1.2794073e-02
8.8277193e-03
3.7741463e-03
-1.4675795e-03
-6.2645090e-03
-1.0031876e-02
-1.2129955e-02
-1.2183356e-02
-1.0313936e-02
-6.9173854e-03
-2.3179037e-03
3.2552598e-03
9.2924045e-03
1.4689227e-02
1.7954944e-02
1.7911389e-02
1.4424005e-02
8.4555712e-03
1.4333304e-03
-5.2709655e-03
-1.0685209e-02
-1.4489492e-02
-1.6695488e-02
-1.7217604e-02
-1.5957426e-02
-1.2978026e-02
-8.5041883e-03
-2.8132996e-03
3.8876565e-03
1.1202262e-02
1.8187780e-02
2.3537220e-02
2.5956054e-02
2.4564880e-02
1.9416643e-02
1.1494365e-02
2.1953289e-03
-7.0449755e-03
-1.4967454e-02
-2.0636602e-02
-2.3477525e-02
-2.3329792e-02
-2.0655724e-02
-1.6675275e-02
-1.2859452e-02
-9.9293672e-03
-7.5341597e-03
-5.0608394e-03
-2.2939644e-03
7.5225679e-04
4.0000373e-03
7.4505405e-03
1.1384757e-02
1.5999174e-02
2.0932729e-02
2.5318335e-02
2.8060021e-02
2.8063057e-02
2.4537854e-02
1.7422456e-02
7.3924647e-03
-4.5817473e-03
-1.7372276e-02
-2.9428937e-02
-3.8569655e-02
-4.2355857e-02
-3.9017483e-02
-2.8248511e-02
-1.1741490e-02
7.0299939e-03
2.4190403e-02
3.6713883e-02
4.2628995e-02
4.0984375e-02
3.2297481e-02
1.8802398e-02
3.6666052e-03
-1.0358089e-02
-2.1781751e-02
-3.0188842e-02
-3.5427778e-02
-3.7109136e-02
-3.4888382e-02
-2.8966007e-02
-2.0069115e-02
-9.2793564e-03
1.9420769e-03
1.1965895e-02
1.9346255e-02
2.3201317e-02
2.3713132e-02
2.2090675e-02
1.9874333e-02
1.8249788e-02
1.7606850e-02
1.7536031e-02
1.7253877e-02
1.5793868e-02
1.2025468e-02
5.3534441e-03
-3.3475659e-03
-1.2037616e-02
-1.8835837e-02
-2.2772948e-02
-2.3758182e-02
-2.2378676e-02
-1.9530377e-02
-1.6066917e-02
-1.2692846e-02
-9.8643287e-03
-7.6733271e-03
-5.8554553e-03
-4.0288214e-03
-2.0164941e-03
2.8458323e-04
3.2568940e-03
7.3748674e-03
1.2674536e-02
1.8549322e-02
2.3913990e-02
2.7383141e-02
2.7571320e-02
2.3846742e-02
1.6827456e-02
7.8760327e-03
-1.5256997e-03
-9.9098894e-03
-1.6192641e-02
-2.0179791e-02
-2.2262663e-02
-2.2568184e-02
-2.0703715e-02
-1.6474880e-02
-1.0752896e-02
-5.1279533e-03
-5.6101253e-04
3.0795934e-03
6.2986776e-03
9.2579332e-03
1.1594919e-02
1.2805091e-02
1.2743975e-02
1.1527034e-02
8.9794417e-03
4.8471309e-03
-3.4024370e-04
-5.4259800e-03
-9.4954189e-03
-1.1988669e-02
-1.2433364e-02
-1.0488872e-02
-6.0773935e-03
2.6651896e-04
7.0532486e-03
1.2403349e-02
1.4940736e-02
1.4061576e-02
1.0065471e-02
4.1918757e-03
-1.9118026e-03
-6.9725325e-03
-1.0554289e-02
-1.2817880e-02
-1.3898547e-02
-1.3715557e-02
-1.2124420e-02
-8.8473866e-03
-3.6003124e-03
3.2136145e-03
1.0298389e-02
1.6206528e-02
1.9853382e-02
2.0493881e-02
1.7865722e-02
1.2384743e-02
5.0272427e-03
-2.8737733e-03
-9.8643381e-03
-1.4879071e-02
-1.7562033e-02
-1.7966716e-02
-1.6231615e-02
-1.2536099e-02
-7.1434935e-03
-5.1417433e-04
6.5272750e-03
1.2608137e-02
1.6217900e-02
1.6732544e-02
1.4586405e-02
1.0352536e-02
4.2728096e-03
-3.1176992e-03
-1.0416563e-02
-1.5930289e-02
-1.8626274e-02
-1.8148814e-02
-1.4265154e-02
-6.9464563e-03
2.8747675e-03
1.3080302e-02
2.1294234e-02
2.5940519e-02
2.6325675e-02
2.2233139e-02
1.4019839e-02
2.8617540e-03
-9.4847123e-03
-2.1025997e-02
-2.9861470e-02
-3.4742244e-02
-3.5216912e-02
-3.1109809e-02
-2.2488497e-02
-1.0247931e-02
3.8516932e-03
1.7557110e-02
2.8514008e-02
3.5145791e-02
3.7212856e-02
3.5158892e-02
2.9420280e-02
2.0547804e-02
9.6199684e-03
-1.6197313e-03
-1.1383909e-02
-1.8834775e-02
-2.4207674e-02
-2.7811296e-02
-2.9094041e-02
-2.6892337e-02
-2.0483192e-02
-1.0360410e-02
1.5554002e-03
1.2398167e-02
1.9691897e-02
2.2423824e-02
2.0827851e-02
1.5853538e-02
8.9862994e-03
1.6938916e-03
-5.1698593e-03
-1.1057857e-02
-1.5065732e-02
-1.6070779e-02
-1.3680828e-02
-8.7186336e-03
-2.3952086e-03
4.5221757e-03
1.1245822e-02
1.6456163e-02
1.8896213e-02
1.7945207e-02
1.3498780e-02
6.0707393e-03
-2.9443893e-03
-1.1628689e-02
-1.8121579e-02
-2.1093044e-02
-2.0310791e-02
-1.6690065e-02
-1.1485797e-02
-5.5167418e-03
9.3340447e-04
7.7635979e-03
1.4619183e-02
2.0555720e-02
2.4060002e-02
2.3637727e-02
1.8696645e-02
1.0014751e-02
-5.5791346e-04
-1.0708857e-02
-1.8327860e-02
-2.2142815e-02
-2.1872179e-02
-1.8078414e-02
-1.2083038e-02
-5.5732545e-03
1.6767700e-04
4.8503101e-03
8.9305720e-03
1.2600780e-02
1.5283268e-02
1.6060041e-02
1.4295741e-02
1.0178333e-02
4.6336419e-03
-1.3981435e-03
-7.1544467e-03
-1.1856745e-02
-1.4907062e-02
-1.6087009e-02
-1.5365254e-02
-1.2639410e-02
-7.7942558e-03
-1.0290233e-03
6.8027306e-03
1.4174310e-02
1.9336059e-02
2.0953831e-02
1.8550904e-02
1.2532755e-02
4.0929678e-03
-4.8706937e-03
-1.2322150e-02
-1.6907218e-02
-1.8228180e-02
-1.6558376e-02
-1.2502663e-02
-6.8013679e-03
-3.6650908e-04
5.7457902e-03
1.0784351e-02
1.4388524e-02
1.6192835e-02
1.5758222e-02
1.2654283e-02
6.8296463e-03
-7.8149558e-04
-8.4790061e-03
-1.4589779e-02
-1.7920826e-02
-1.7935729e-02
-1.4909731e-02
-9.8756246e-03
-4.0368026e-03
1.8072158e-03
7.1651279e-03
1.1574623e-02
1.4583274e-02
1.5880739e-02
1.5337588e-02
1.2785980e-02
8.0633078e-03
1.5508970e-03
-5.6535916e-03
-1.2232546e-02
-1.7002567e-02
-1.8902101e-02
-1.7218729e-02
-1.2132983e-02
-4.9371559e-03
2.5665851e-03
9.0338330e-03
1.3877398e-02
1.6789932e-02
1.7466583e-02
1.5759034e-02
1.1653240e-02
5.4047704e-03
-2.0035547e-03
-9.0842059e-03
-1.4635555e-02
-1.7989048e-02
-1.8782165e-02
-1.6911293e-02
-1.2712307e-02
-6.9418718e-03
-2.7358111e-04
6.9863026e-03
1.4347682e-02
2.0581555e-02
2.3970333e-02
2.3127004e-02
1.7780259e-02
9.1019787e-03
-7.1807721e-04
-9.6451328e-03
-1.6648608e-02
-2.1353874e-02
-2.3355468e-02
-2.2309667e-02
-1.8454533e-02
-1.2503191e-02
-5.1771981e-03
2.6786900e-03
9.9324209e-03
1.5573162e-02
1.8994746e-02
1.9862626e-02
1.8013682e-02
1.3604042e-02
7.3113409e-03
2.2825408e-04
-6.3369666e-03
-1.1047240e-02
-1.3140083e-02
-1.2806303e-02
-1.0702345e-02
-7.4656359e-03
-3.6229719e-03
5.3928019e-04
4.8777538e-03
9.0132101e-03
1.2328166e-02
1.4195575e-02
1.3994550e-02
1.1209719e-02
5.7906469e-03
-1.5005834e-03
-9.2724270e-03
-1.6139452e-02
-2.0964721e-02
-2.2723457e-02
-2.0637329e-02
-1.4677498e-02
-5.9342278e-03
3.8649459e-03
1.3287212e-02
2.1288725e-02
2.6692558e-02
2.8338711e-02
2.5687764e-02
1.8931585e-02
8.8514685e-03
-3.2171471e-03
-1.5380977e-02
-2.5281393e-02
-3.0856167e-02
-3.1328116e-02
-2.7196937e-02
-1.9592819e-02
-9.8361471e-03
8.5313421e-04
1.1440454e-02
2.0819420e-02
2.7636504e-02
3.0572031e-02
2.8899537e-02
2.2836177e-02
1.3399933e-02
1.9751588e-03
-1.0031592e-02
-2.1167631e-02
-2.9840566e-02
-3.4770292e-02
-3.5525766e-02
-3.2341851e-02
-2.5697998e-02
-1.6244915e-02
-4.8349071e-03
7.5063063e-03
1.9585640e-02
3.0120392e-02
3.8088281e-02
4.3006558e-02
4.4596991e-02
4.2312499e-02
3.5671143e-02
2.5086645e-02
1.1876547e-02
-2.5093394e-03
-1.6716921e-02
-2.9014664e-02
-3.7248854e-02
-3.9718497e-02
-3.6021313e-02
-2.7188947e-02
-1.5575639e-02
-4.4303624e-03
3.2702665e-03
5.9395260e-03
3.6588604e-03
-1.9613427e-03
-8.1718094e-03
-1.2017591e-02
-1.1653596e-02
-7.5852258e-03
-2.5307891e-03
7.3168243e-04
1.5847241e-03
1.7942924e-03
3.6738720e-03
7.9795658e-03
1.3566871e-02
1.8651590e-02
2.1995410e-02
2.3068274e-02
2.1762845e-02
1.8483244e-02
1.3997885e-02
8.6916975e-03
2.3575545e-03
-5.1338617e-03
-1.3201774e-02
-2.0551927e-02
-2.5625404e-02
-2.6940794e-02
-2.3299532e-02
-1.4217544e-02
-5.5429582e-04
1.5099070e-02
2.8665264e-02
3.5458002e-02
3.2122094e-02
1.9163605e-02
1.1283684e-03
-1.6345845e-02
-2.9472817e-02
-3.7069668e-02
-3.9428934e-02
-3.7096395e-02
-3.0731425e-02
-2.1166322e-02
-9.2691638e-03
3.9135724e-03
1.6940808e-02
2.7964346e-02
3.5162425e-02
3.7533800e-02
3.5291697e-02
2.9612238e-02
2.2152551e-02
1.4403268e-02
6.9495226e-03
-6.0034221e-04
-8.4703733e-03
-1.5395392e-02
-1.9224568e-02
-1.8950017e-02
-1.5248168e-02
-9.4414273e-03
-2.8237868e-03
3.2986894e-03
7.4532592e-03
8.1100820e-03
4.0884215e-03
-4.7326629e-03
-1.6740921e-02
-2.8780407e-02
-3.7238061e-02
-3.9323446e-02
-3.3843772e-02
-2.1189048e-02
-3.2234971e-03
1.6920442e-02
3.6017980e-02
5.1716480e-02
6.1816437e-02
6.3377385e-02
5.3651480e-02
3.2849773e-02
6.2345433e-03
-1.8294880e-02
-3.5391588e-02
-4.3945830e-02
-4.5070728e-02
-4.0636106e-02
-3.3056583e-02
-2.4562506e-02
-1.6071175e-02
-7.3281976e-03
1.9510634e-03
1.1406808e-02
2.0010802e-02
2.6467413e-02
2.9735652e-02
2.9205014e-02
2.4881618e-02
1.7729623e-02
9.4455705e-03
1.8573170e-03
-3.6197106e-03
-6.8420649e-03
-9.2489605e-03
-1.2555138e-02
-1.7091603e-02
-2.1400529e-02
-2.3313802e-02
-2.1479638e-02
-1.5765854e-02
-6.8123042e-03
3.9501162e-03
1.4072916e-02
2.0674961e-02
2.1873040e-02
1.7805963e-02
1.0240356e-02
1.4987546e-03
-6.1990735e-03
-1.1183375e-02
-1.2901780e-02
-1.1996296e-02
-9.4792535e-03
-5.8324974e-03
-1.1093662e-03
4.3006173e-03
9.5655483e-03
1.3936591e-02
1.6665936e-02
1.6657536e-02
1.3123881e-02
6.6542841e-03
-9.2713919e-04
-7.8363768e-03
-1.3093813e-02
-1.6411743e-02
-1.7954116e-02
-1.7979231e-02
-1.6528929e-02
-1.3466838e-02
-8.6362213e-03
-2.0714366e-03
5.8322397e-03
1.4249329e-02
2.1759583e-02
2.6601039e-02
2.7477398e-02
2.3964500e-02
1.6554556e-02
6.6631706e-03
-3.7571137e-03
-1.2784803e-02
-1.9069948e-02
-2.2128047e-02
-2.2108598e-02
-1.9507952e-02
-1.4928991e-02
-8.7477948e-03
-1.2096443e-03
6.9070454e-03
1.3869055e-02
1.7645434e-02
1.7193831e-02
1.3069033e-02
6.8940226e-03
3.3606395e-04
-5.4529207e-03
-9.7612253e-03
-1.2274891e-02
-1.3042209e-02
-1.2096933e-02
-9.4058441e-03
-5.3004343e-03
-4.4856799e-04
4.5574978e-03
9.2590113e-03
1.3163251e-02
1.5612393e-02
1.5747722e-02
1.2976472e-02
7.7160856e-03
1.3197235e-03
-4.7682323e-03
-9.5934446e-03
-1.2694673e-02
-1.3907114e-02
-1.3421590e-02
-1.1779520e-02
-9.2650533e-03
-5.4888960e-03
-1.1266402e-05
6.7646352e-03
1.3535541e-02
1.8720135e-02
2.0921900e-02
1.9233403e-02
1.3755321e-02
5.6425649e-03
-3.6248904e-03
-1.2555306e-02
-1.9506723e-02
-2.3122812e-02
-2.2913540e-02
-1.9327042e-02
-1.3384900e-02
-6.0460117e-03
2.0710798e-03
1.0261854e-02
1.7388114e-02
2.2174752e-02
2.3579169e-02
2.1009558e-02
1.4780031e-02
6.2197843e-03
-2.9504941e-03
-1.1075421e-02
-1.6756272e-02
-1.9343603e-02
-1.9159572e-02
-1.6797262e-02
-1.2341180e-02
-5.7099009e-03
2.4106873e-03
1.0368111e-02
1.6183963e-02
1.8442880e-02
1.6868342e-02
1.2190908e-02
5.7121876e-03
-9.3538565e-04
-6.2573522e-03
-9.5787371e-03
-1.1012167e-02
-1.0901487e-02
-9.6162625e-03
-7.4428902e-03
-4.3956766e-03
-4.5775726e-04
4.0023315e-03
8.1361109e-03
1.0854000e-02
1.1433777e-02
9.9455071e-03
6.9283533e-03
3.0453397e-03
-8.6628127e-04
-3.9763478e-03
-5.9002248e-03
-6.8187817e-03
-7.1542435e-03
-7.1694557e-03
-6.8506541e-03
-6.0322816e-03
-4.5151793e-03
-2.1928939e-03
7.0381999e-04
3.5237349e-03
5.5462851e-03
6.3914430e-03
6.0898246e-03
4.9798849e-03
3.5611878e-03
2.2766994e-03
1.3850691e-03
9.7741298e-04
1.0148146e-03
1.3525163e-03
